************************************************************
  HS Scan of (1) Internal mercury lamp
************************************************************
Integration time is 0.2294 seconds per sample
dh120917Reading 51.44 .94 3.21pr1000
************************************************************
Dead Time -------------------------  3.4E-08 
Number of Cycles Used -------------  4 
Starting Wavelength (Angstroms) ---  2950 
Final Wavelength (Angstoms) -------  2984 
Wavelength Increment (Angstroms) --  .25 
Filter Wheel #1 Position ---------- (1) Ground quartz diffuser (ND=2.32)
Filter Wheel #2 Position ---------- (1) Neutral Density 0.494



************************************************************
HS scan start time = 02:32:01
Dark Count =  1.1 


Time (GMT)  Wavelength (Ang)  Step Number  Raw Counts  Counts/Second

  152.92        2950.00           2144         150.00       649.10
  153.11        2950.25           2147         143.00       618.58
  153.14        2950.50           2151         143.00       618.58
  153.17        2950.75           2155         156.00       675.26
  153.20        2951.00           2158         157.00       679.61
  153.23        2951.25           2162         150.00       649.10
  153.26        2951.50           2165         160.00       692.69
  153.29        2951.75           2169         154.00       666.54
  153.32        2952.00           2172         150.00       649.10
  153.35        2952.25           2176         157.00       679.61
  153.39        2952.50           2179         154.00       666.54
  153.42        2952.75           2183         158.00       683.97
  153.45        2953.00           2186         150.00       649.10
  153.48        2953.25           2190         149.00       644.74
  153.51        2953.50           2193         166.00       718.85
  153.54        2953.75           2197         164.00       710.13
  153.57        2954.00           2200         161.00       697.05
  153.60        2954.25           2204         163.00       705.77
  153.63        2954.50           2208         160.00       692.69
  153.66        2954.75           2211         161.00       697.05
  153.69        2955.00           2215         172.00       745.01
  153.72        2955.25           2218         168.00       727.57
  153.75        2955.50           2222         164.00       710.13
  153.78        2955.75           2225         159.00       688.33
  153.81        2956.00           2229         174.00       753.72
  153.84        2956.25           2232         170.00       736.29
  153.87        2956.50           2236         165.00       714.49
  153.91        2956.75           2239         180.00       779.88
  153.94        2957.00           2243         178.00       771.16
  153.97        2957.25           2246         191.00       827.83
  154.00        2957.50           2250         181.00       784.24
  154.03        2957.75           2254         176.00       762.44
  154.06        2958.00           2257         196.00       849.63
  154.09        2958.25           2261         189.00       819.12
  154.12        2958.50           2264         192.00       832.19
  154.15        2958.75           2268         184.00       797.32
  154.18        2959.00           2271         189.00       819.12
  154.21        2959.25           2275         223.00       967.34
  154.24        2959.50           2278         201.00       871.43
  154.27        2959.75           2282         220.00       954.26
  154.30        2960.00           2285         215.00       932.46
  154.33        2960.25           2289         217.00       941.18
  154.36        2960.50           2293         216.00       936.82
  154.39        2960.75           2296         220.00       954.26
  154.43        2961.00           2300         286.00      1241.99
  154.46        2961.25           2303         649.00      2824.60
  154.49        2961.50           2307        2385.00     10395.56
  154.52        2961.75           2310        4420.00     19275.49
  154.55        2962.00           2314        7469.00     32590.15
  154.58        2962.25           2317        9936.00     43372.11
  154.61        2962.50           2321       12954.00     56572.98
  154.64        2962.75           2324       15252.00     66632.49
  154.67        2963.00           2328       18592.00     81265.65
  154.70        2963.25           2331       21374.00     93465.25
  154.73        2963.50           2335       25082.00    109741.30
  154.76        2963.75           2339       28594.00    125173.70
  154.79        2964.00           2342       31081.00    136111.90
  154.82        2964.25           2346       34411.00    150770.50
  154.85        2964.50           2349       36892.00    161701.30
  154.88        2964.75           2353       40148.00    176059.00
  154.91        2965.00           2356       42705.00    187344.30
  154.95        2965.25           2360       45824.00    201121.70
  154.98        2965.50           2363       48109.00    211223.30
  155.01        2965.75           2367       50978.00    223916.70
  155.04        2966.00           2370       53541.00    235265.40
  155.07        2966.25           2374       55703.00    244845.40
  155.10        2966.50           2378       57564.00    253096.70
  155.13        2966.75           2381       57953.00    254822.00
  155.16        2967.00           2385       57950.00    254808.70
  155.19        2967.25           2388       57850.00    254365.20
  155.22        2967.50           2392       57716.00    253770.90
  155.25        2967.75           2395       57523.00    252914.90
  155.28        2968.00           2399       55786.00    245213.30
  155.31        2968.25           2402       53745.00    236169.10
  155.34        2968.50           2406       50367.00    221212.50
  155.37        2968.75           2409       48086.00    211121.60
  155.40        2969.00           2413       44418.00    194909.40
  155.43        2969.25           2417       40680.00    178406.30
  155.47        2969.50           2420       38009.00    166625.30
  155.50        2969.75           2424       34763.00    152320.80
  155.53        2970.00           2427       32004.00    140173.50
  155.56        2970.25           2431       28635.00    125354.00
  155.59        2970.50           2434       25961.00    113602.30
  155.62        2970.75           2438       22326.00     97642.28
  155.65        2971.00           2441       19954.00     87237.01
  155.68        2971.25           2445       16878.00     73754.47
  155.71        2971.50           2449       13697.00     59824.71
  155.74        2971.75           2452       11296.00     49319.34
  155.77        2972.00           2456        7862.00     34307.22
  155.80        2972.25           2459        5446.00     23754.58
  155.83        2972.50           2463        2785.00     12140.58
  155.86        2972.75           2466        1308.00      5698.14
  155.89        2973.00           2470         437.00      1900.30
  155.92        2973.25           2473         268.00      1163.52
  155.95        2973.50           2477         234.00      1015.29
  155.98        2973.75           2481         228.00       989.14
  156.02        2974.00           2484         227.00       984.78
  156.05        2974.25           2488         207.00       897.59
  156.08        2974.50           2491         197.00       853.99
  156.11        2974.75           2495         190.00       823.48
  156.14        2975.00           2498         181.00       784.24
  156.17        2975.25           2502         176.00       762.44
  156.20        2975.50           2505         180.00       779.88
  156.23        2975.75           2509         182.00       788.60
  156.26        2976.00           2512         176.00       762.44
  156.29        2976.25           2516         162.00       701.41
  156.32        2976.50           2520         170.00       736.29
  156.35        2976.75           2523         172.00       745.01
  156.39        2977.00           2527         167.00       723.21
  156.42        2977.25           2530         159.00       688.33
  156.45        2977.50           2534         168.00       727.57
  156.48        2977.75           2537         161.00       697.05
  156.51        2978.00           2541         155.00       670.90
  156.54        2978.25           2544         152.00       657.82
  156.57        2978.50           2548         149.00       644.74
  156.60        2978.75           2552         162.00       701.41
  156.63        2979.00           2555         156.00       675.26
  156.66        2979.25           2559         149.00       644.74
  156.70        2979.50           2562         162.00       701.41
  156.73        2979.75           2566         151.00       653.46
  156.76        2980.00           2569         174.00       753.72
  156.79        2980.25           2573         145.00       627.30
  156.82        2980.50           2577         150.00       649.10
  156.85        2980.75           2580         140.00       605.51
  156.88        2981.00           2584         169.00       731.93
  156.91        2981.25           2587         131.00       566.27
  156.94        2981.50           2591         152.00       657.82
  156.97        2981.75           2594         147.00       636.02
  157.00        2982.00           2598         136.00       588.07
  157.03        2982.25           2601         140.00       605.51
  157.06        2982.50           2605         158.00       683.97
  157.09        2982.75           2609         133.00       574.99
  157.12        2983.00           2612         126.00       544.47
  157.15        2983.25           2616         132.00       570.63
  157.18        2983.50           2619         132.00       570.63
  157.22        2983.75           2623         129.00       557.55
  157.25        2984.00           2626         173.00       749.37
HS scan finished at 02:37:28
end
************************************************************
  HS Scan of (1) Internal mercury lamp
************************************************************
Integration time is 0.2294 seconds per sample
dh120917Reading 51.44 .94 3.35pr1000
************************************************************
Dead Time -------------------------  3.4E-08 
Number of Cycles Used -------------  4 
Starting Wavelength (Angstroms) ---  2950 
Final Wavelength (Angstoms) -------  2984 
Wavelength Increment (Angstroms) --  .25 
Filter Wheel #1 Position ---------- (1) Ground quartz diffuser (ND=2.32)
Filter Wheel #2 Position ---------- (1) Neutral Density 0.494



************************************************************
HS scan start time = 19:07:26
Dark Count =  1.9 


Time (GMT)  Wavelength (Ang)  Step Number  Raw Counts  Counts/Second

 1148.33        2950.00           2144         130.00       558.42
 1148.52        2950.25           2147         105.00       449.44
 1148.55        2950.50           2151         108.00       462.52
 1148.58        2950.75           2155         139.00       597.66
 1148.62        2951.00           2158         113.00       484.31
 1148.65        2951.25           2162         107.00       458.16
 1148.68        2951.50           2165         106.00       453.80
 1148.71        2951.75           2169         118.00       506.11
 1148.74        2952.00           2172         123.00       527.91
 1148.77        2952.25           2176         133.00       571.50
 1148.80        2952.50           2179         127.00       545.35
 1148.83        2952.75           2183         124.00       532.27
 1148.86        2953.00           2186         105.00       449.44
 1148.89        2953.25           2190         112.00       479.96
 1148.92        2953.50           2193         108.00       462.52
 1148.95        2953.75           2197         116.00       497.39
 1148.98        2954.00           2200         113.00       484.31
 1149.01        2954.25           2204         125.00       536.63
 1149.04        2954.50           2208         136.00       584.58
 1149.07        2954.75           2211         119.00       510.47
 1149.10        2955.00           2215         120.00       514.83
 1149.14        2955.25           2218         112.00       479.96
 1149.17        2955.50           2222         133.00       571.50
 1149.20        2955.75           2225         165.00       711.00
 1149.23        2956.00           2229         142.00       610.74
 1149.26        2956.25           2232         133.00       571.50
 1149.29        2956.50           2236         124.00       532.27
 1149.32        2956.75           2239         139.00       597.66
 1149.35        2957.00           2243         126.00       540.99
 1149.38        2957.25           2246         146.00       628.17
 1149.41        2957.50           2250         129.00       554.06
 1149.44        2957.75           2254         141.00       606.38
 1149.47        2958.00           2257         127.00       545.35
 1149.50        2958.25           2261         144.00       619.46
 1149.53        2958.50           2264         155.00       667.41
 1149.56        2958.75           2268         133.00       571.50
 1149.59        2959.00           2271         139.00       597.66
 1149.62        2959.25           2275         136.00       584.58
 1149.66        2959.50           2278         139.00       597.66
 1149.69        2959.75           2282         145.00       623.81
 1149.72        2960.00           2285         138.00       593.30
 1149.75        2960.25           2289         146.00       628.17
 1149.78        2960.50           2293         155.00       667.41
 1149.81        2960.75           2296         169.00       728.44
 1149.84        2961.00           2300         185.00       798.19
 1149.87        2961.25           2303         326.00      1412.88
 1149.90        2961.50           2307        1119.00      4870.47
 1149.93        2961.75           2310        2299.00     10016.93
 1149.96        2962.00           2314        4188.00     18259.37
 1149.99        2962.25           2317        5844.00     25488.95
 1150.02        2962.50           2321        8206.00     35806.86
 1150.05        2962.75           2324        9739.00     42507.33
 1150.08        2963.00           2328       12410.00     54189.12
 1150.11        2963.25           2331       13690.00     59790.56
 1150.14        2963.50           2335       16094.00     70316.56
 1150.18        2963.75           2339       18200.00     79543.96
 1150.21        2964.00           2342       19987.00     87378.21
 1150.24        2964.25           2346       22427.00     98081.99
 1150.27        2964.50           2349       24208.00    105899.80
 1150.30        2964.75           2353       26433.00    115672.40
 1150.33        2965.00           2356       28277.00    123776.60
 1150.36        2965.25           2360       30647.00    134199.00
 1150.39        2965.50           2363       32310.00    141516.70
 1150.42        2965.75           2367       34402.00    150727.30
 1150.45        2966.00           2370       36105.00    158229.50
 1150.48        2966.25           2374       38583.00    169152.70
 1150.51        2966.50           2378       39454.00    172994.00
 1150.54        2966.75           2381       39532.00    173338.10
 1150.57        2967.00           2385       39497.00    173183.70
 1150.60        2967.25           2388       39484.00    173126.40
 1150.63        2967.50           2392       39530.00    173329.30
 1150.66        2967.75           2395       39462.00    173029.40
 1150.70        2968.00           2399       37844.00    165894.30
 1150.73        2968.25           2402       36381.00    159445.70
 1150.76        2968.50           2406       34077.00    149296.00
 1150.79        2968.75           2409       32584.00    142722.70
 1150.82        2969.00           2413       30257.00    132483.40
 1150.85        2969.25           2417       28808.00    126111.10
 1150.88        2969.50           2420       27129.00    118730.70
 1150.91        2969.75           2424       25012.00    109430.40
 1150.94        2970.00           2427       22995.00    100574.80
 1150.97        2970.25           2431       20076.00     87768.50
 1151.00        2970.50           2434       18261.00     79811.31
 1151.03        2970.75           2438       15975.00     69795.34
 1151.06        2971.00           2441       14190.00     61979.21
 1151.09        2971.25           2445       11900.00     51957.88
 1151.12        2971.50           2449        9543.00     41650.49
 1151.15        2971.75           2452        7990.00     34863.01
 1151.18        2972.00           2456        5793.00     25266.25
 1151.22        2972.25           2459        4221.00     18403.41
 1151.25        2972.50           2463        2225.00      9694.13
 1151.28        2972.75           2466        1156.00      5031.81
 1151.31        2973.00           2470         321.00      1391.09
 1151.34        2973.25           2473         207.00       894.10
 1151.37        2973.50           2477         169.00       728.44
 1151.40        2973.75           2481         159.00       684.85
 1151.43        2974.00           2484         154.00       663.05
 1151.46        2974.25           2488         139.00       597.66
 1151.49        2974.50           2491         145.00       623.81
 1151.52        2974.75           2495         162.00       697.92
 1151.55        2975.00           2498         144.00       619.46
 1151.58        2975.25           2502         141.00       606.38
 1151.61        2975.50           2505         124.00       532.27
 1151.64        2975.75           2509         133.00       571.50
 1151.67        2976.00           2512         142.00       610.74
 1151.70        2976.25           2516         128.00       549.71
 1151.74        2976.50           2520         129.00       554.06
 1151.77        2976.75           2523         151.00       649.97
 1151.80        2977.00           2527         130.00       558.42
 1151.83        2977.25           2530         126.00       540.99
 1151.86        2977.50           2534         148.00       636.89
 1151.89        2977.75           2537         125.00       536.63
 1151.92        2978.00           2541         140.00       602.02
 1151.95        2978.25           2544         141.00       606.38
 1151.98        2978.50           2548         141.00       606.38
 1152.01        2978.75           2552         150.00       645.61
 1152.04        2979.00           2555         112.00       479.96
 1152.07        2979.25           2559         122.00       523.55
 1152.10        2979.50           2562         119.00       510.47
 1152.13        2979.75           2566         115.00       493.03
 1152.16        2980.00           2569         130.00       558.42
 1152.19        2980.25           2573         136.00       584.58
 1152.22        2980.50           2577         154.00       663.05
 1152.26        2980.75           2580         116.00       497.39
 1152.29        2981.00           2584         124.00       532.27
 1152.32        2981.25           2587         113.00       484.31
 1152.35        2981.50           2591         164.00       706.64
 1152.38        2981.75           2594         113.00       484.31
 1152.41        2982.00           2598         106.00       453.80
 1152.44        2982.25           2601         122.00       523.55
 1152.47        2982.50           2605         108.00       462.52
 1152.50        2982.75           2609         102.00       436.36
 1152.53        2983.00           2612          95.00       405.85
 1152.56        2983.25           2616          97.00       414.57
 1152.59        2983.50           2619         104.00       445.08
 1152.62        2983.75           2623         101.00       432.00
 1152.65        2984.00           2626          99.00       423.28
HS scan finished at 19:12:53
end
