************************************************************
  HS Scan of (1) Internal mercury lamp
************************************************************
Integration time is 0.2294 seconds per sample
dh100918Reading 51.44 .94 3.33pr1000
************************************************************
Dead Time -------------------------  3.4E-08 
Number of Cycles Used -------------  4 
Starting Wavelength (Angstroms) ---  2950 
Final Wavelength (Angstoms) -------  2984 
Wavelength Increment (Angstroms) --  .25 
Filter Wheel #1 Position ---------- (1) Ground quartz diffuser (ND=2.32)
Filter Wheel #2 Position ---------- (1) Neutral Density 0.494



************************************************************
HS scan start time = 02:04:36
Dark Count =  1.7 


Time (GMT)  Wavelength (Ang)  Step Number  Raw Counts  Counts/Second

  125.50        2950.00           2144          53.00       223.63
  125.69        2950.25           2147          58.00       245.42
  125.73        2950.50           2151          60.00       254.14
  125.76        2950.75           2155          56.00       236.71
  125.79        2951.00           2158          64.00       271.58
  125.82        2951.25           2162          55.00       232.35
  125.85        2951.50           2165          58.00       245.42
  125.88        2951.75           2169          59.00       249.78
  125.91        2952.00           2172          61.00       258.50
  125.94        2952.25           2176          65.00       275.94
  125.97        2952.50           2179          62.00       262.86
  126.00        2952.75           2183          64.00       271.58
  126.03        2953.00           2186          66.00       280.30
  126.06        2953.25           2190          66.00       280.30
  126.09        2953.50           2193          69.00       293.38
  126.12        2953.75           2197          64.00       271.58
  126.15        2954.00           2200          66.00       280.30
  126.18        2954.25           2204          64.00       271.58
  126.21        2954.50           2208          62.00       262.86
  126.25        2954.75           2211          59.00       249.78
  126.28        2955.00           2215          72.00       306.45
  126.31        2955.25           2218          61.00       258.50
  126.34        2955.50           2222          65.00       275.94
  126.37        2955.75           2225          63.00       267.22
  126.40        2956.00           2229          66.00       280.30
  126.43        2956.25           2232          58.00       245.42
  126.46        2956.50           2236          64.00       271.58
  126.49        2956.75           2239          62.00       262.86
  126.52        2957.00           2243          76.00       323.89
  126.55        2957.25           2246          67.00       284.66
  126.58        2957.50           2250          75.00       319.53
  126.61        2957.75           2254          72.00       306.45
  126.64        2958.00           2257          78.00       332.61
  126.67        2958.25           2261          75.00       319.53
  126.70        2958.50           2264          77.00       328.25
  126.73        2958.75           2268          85.00       363.13
  126.77        2959.00           2271          77.00       328.25
  126.80        2959.25           2275          74.00       315.17
  126.83        2959.50           2278          72.00       306.45
  126.86        2959.75           2282          85.00       363.13
  126.89        2960.00           2285          90.00       384.92
  126.92        2960.25           2289          86.00       367.49
  126.95        2960.50           2293          83.00       354.41
  126.98        2960.75           2296          96.00       411.08
  127.01        2961.00           2300         118.00       506.98
  127.04        2961.25           2303         250.00      1082.43
  127.07        2961.50           2307         749.00      3257.99
  127.10        2961.75           2310        1426.00      6210.12
  127.13        2962.00           2314        2499.00     10890.26
  127.16        2962.25           2317        3297.00     14371.89
  127.19        2962.50           2321        4534.00     19770.48
  127.22        2962.75           2324        5455.00     23791.25
  127.25        2963.00           2328        6757.00     29477.22
  127.29        2963.25           2331        7714.00     33657.94
  127.32        2963.50           2335        8610.00     37573.26
  127.35        2963.75           2339        9733.00     42481.98
  127.38        2964.00           2342       10637.00     46434.63
  127.41        2964.25           2346       11952.00     52186.24
  127.44        2964.50           2349       12742.00     55642.66
  127.47        2964.75           2353       13733.00     59979.64
  127.50        2965.00           2356       14682.00     64134.03
  127.53        2965.25           2360       16093.00     70313.06
  127.56        2965.50           2363       17199.00     75158.25
  127.59        2965.75           2367       18439.00     80592.38
  127.62        2966.00           2370       19404.00     84822.74
  127.65        2966.25           2374       20075.00     87764.99
  127.68        2966.50           2378       20437.00     89352.56
  127.71        2966.75           2381       20672.00     90383.26
  127.74        2967.00           2385       20666.00     90356.94
  127.77        2967.25           2388       20605.00     90089.39
  127.81        2967.50           2392       21088.00     92207.99
  127.84        2967.75           2395       21304.00     93155.52
  127.87        2968.00           2399       20625.00     90177.12
  127.90        2968.25           2402       19578.00     85585.66
  127.93        2968.50           2406       18834.00     82323.83
  127.96        2968.75           2409       17799.00     77787.41
  127.99        2969.00           2413       16571.00     72406.90
  128.02        2969.25           2417       15141.00     66143.78
  128.05        2969.50           2420       14201.00     62028.24
  128.08        2969.75           2424       12754.00     55695.17
  128.11        2970.00           2427       11978.00     52299.98
  128.14        2970.25           2431       10795.00     47125.58
  128.17        2970.50           2434        9915.00     43277.67
  128.20        2970.75           2438        8738.00     38132.67
  128.23        2971.00           2441        7651.00     33382.68
  128.26        2971.25           2445        6290.00     27437.53
  128.29        2971.50           2449        5078.00     22145.26
  128.33        2971.75           2452        4149.00     18090.02
  128.36        2972.00           2456        3005.00     13097.81
  128.39        2972.25           2459        2214.00      9647.02
  128.42        2972.50           2463        1207.00      5255.08
  128.45        2972.75           2466         603.00      2621.42
  128.48        2973.00           2470         186.00       803.42
  128.51        2973.25           2473         100.00       428.52
  128.54        2973.50           2477          96.00       411.08
  128.57        2973.75           2481          85.00       363.13
  128.60        2974.00           2484          83.00       354.41
  128.63        2974.25           2488          78.00       332.61
  128.66        2974.50           2491          83.00       354.41
  128.69        2974.75           2495          78.00       332.61
  128.72        2975.00           2498          77.00       328.25
  128.75        2975.25           2502          80.00       341.33
  128.78        2975.50           2505          76.00       323.89
  128.81        2975.75           2509          77.00       328.25
  128.85        2976.00           2512          71.00       302.10
  128.88        2976.25           2516          72.00       306.45
  128.91        2976.50           2520          66.00       280.30
  128.94        2976.75           2523          77.00       328.25
  128.97        2977.00           2527          76.00       323.89
  129.00        2977.25           2530          76.00       323.89
  129.03        2977.50           2534          70.00       297.74
  129.06        2977.75           2537          77.00       328.25
  129.09        2978.00           2541          74.00       315.17
  129.12        2978.25           2544          67.00       284.66
  129.15        2978.50           2548          65.00       275.94
  129.18        2978.75           2552          72.00       306.45
  129.21        2979.00           2555          67.00       284.66
  129.24        2979.25           2559          65.00       275.94
  129.27        2979.50           2562          73.00       310.81
  129.30        2979.75           2566          64.00       271.58
  129.33        2980.00           2569          62.00       262.86
  129.37        2980.25           2573          62.00       262.86
  129.40        2980.50           2577          61.00       258.50
  129.43        2980.75           2580          67.00       284.66
  129.46        2981.00           2584          59.00       249.78
  129.49        2981.25           2587          59.00       249.78
  129.52        2981.50           2591          66.00       280.30
  129.55        2981.75           2594          64.00       271.58
  129.58        2982.00           2598          61.00       258.50
  129.61        2982.25           2601          64.00       271.58
  129.64        2982.50           2605          58.00       245.42
  129.67        2982.75           2609          57.00       241.07
  129.70        2983.00           2612          56.00       236.71
  129.73        2983.25           2616          59.00       249.78
  129.76        2983.50           2619          57.00       241.07
  129.79        2983.75           2623          66.00       280.30
  129.82        2984.00           2626          61.00       258.50
HS scan finished at 02:10:03
end
************************************************************
  HS Scan of (1) Internal mercury lamp
************************************************************
Integration time is 0.2294 seconds per sample
dh100918Reading 51.44 .94 3.62pr1000
************************************************************
Dead Time -------------------------  3.4E-08 
Number of Cycles Used -------------  4 
Starting Wavelength (Angstroms) ---  2950 
Final Wavelength (Angstoms) -------  2984 
Wavelength Increment (Angstroms) --  .25 
Filter Wheel #1 Position ---------- (1) Ground quartz diffuser (ND=2.32)
Filter Wheel #2 Position ---------- (1) Neutral Density 0.494



************************************************************
HS scan start time = 19:37:29
Dark Count =  3.8 


Time (GMT)  Wavelength (Ang)  Step Number  Raw Counts  Counts/Second

 1178.38        2950.00           2144          55.00       223.19
 1178.58        2950.25           2147          49.00       197.04
 1178.61        2950.50           2151          47.00       188.32
 1178.64        2950.75           2155          50.00       201.40
 1178.67        2951.00           2158          53.00       214.47
 1178.70        2951.25           2162          45.00       179.60
 1178.73        2951.50           2165          46.00       183.96
 1178.76        2951.75           2169          54.00       218.83
 1178.79        2952.00           2172          47.00       188.32
 1178.82        2952.25           2176          51.00       205.76
 1178.85        2952.50           2179          51.00       205.76
 1178.88        2952.75           2183          51.00       205.76
 1178.91        2953.00           2186          56.00       227.55
 1178.94        2953.25           2190          47.00       188.32
 1178.97        2953.50           2193          53.00       214.47
 1179.00        2953.75           2197          50.00       201.40
 1179.03        2954.00           2200          51.00       205.76
 1179.06        2954.25           2204          51.00       205.76
 1179.10        2954.50           2208          51.00       205.76
 1179.13        2954.75           2211          57.00       231.91
 1179.16        2955.00           2215          51.00       205.76
 1179.19        2955.25           2218          57.00       231.91
 1179.22        2955.50           2222          52.00       210.11
 1179.25        2955.75           2225          56.00       227.55
 1179.28        2956.00           2229          45.00       179.60
 1179.31        2956.25           2232          58.00       236.27
 1179.34        2956.50           2236          47.00       188.32
 1179.37        2956.75           2239          49.00       197.04
 1179.40        2957.00           2243          53.00       214.47
 1179.43        2957.25           2246          61.00       249.35
 1179.46        2957.50           2250          56.00       227.55
 1179.49        2957.75           2254          62.00       253.71
 1179.52        2958.00           2257          57.00       231.91
 1179.55        2958.25           2261          57.00       231.91
 1179.58        2958.50           2264          60.00       244.99
 1179.62        2958.75           2268          58.00       236.27
 1179.65        2959.00           2271          67.00       275.50
 1179.68        2959.25           2275          69.00       284.22
 1179.71        2959.50           2278          75.00       310.38
 1179.74        2959.75           2282          69.00       284.22
 1179.77        2960.00           2285          73.00       301.66
 1179.80        2960.25           2289          69.00       284.22
 1179.83        2960.50           2293          77.00       319.10
 1179.86        2960.75           2296          69.00       284.22
 1179.89        2961.00           2300         110.00       462.95
 1179.92        2961.25           2303         216.00       925.05
 1179.95        2961.50           2307         801.00      3475.56
 1179.98        2961.75           2310        1469.00      6388.48
 1180.01        2962.00           2314        2405.00     10471.03
 1180.04        2962.25           2317        3190.00     13895.84
 1180.07        2962.50           2321        4059.00     17688.05
 1180.10        2962.75           2324        4851.00     21145.10
 1180.14        2963.00           2328        5824.00     25393.32
 1180.17        2963.25           2331        6679.00     29127.35
 1180.20        2963.50           2335        7689.00     33539.53
 1180.23        2963.75           2339        8901.00     38835.90
 1180.26        2964.00           2342        9770.00     42634.56
 1180.29        2964.25           2346       10832.00     47278.21
 1180.32        2964.50           2349       11604.00     50654.74
 1180.35        2964.75           2353       12647.00     55217.79
 1180.38        2965.00           2356       13551.00     59173.86
 1180.41        2965.25           2360       14629.00     63892.80
 1180.44        2965.50           2363       15404.00     67286.28
 1180.47        2965.75           2367       16396.00     71631.09
 1180.50        2966.00           2370       16885.00     73773.30
 1180.53        2966.25           2374       17728.00     77467.07
 1180.56        2966.50           2378       18185.00     79469.88
 1180.59        2966.75           2381       18091.00     79057.91
 1180.62        2967.00           2385       18154.00     79334.02
 1180.66        2967.25           2388       18148.00     79307.72
 1180.69        2967.50           2392       18222.00     79632.05
 1180.72        2967.75           2395       18083.00     79022.85
 1180.75        2968.00           2399       17547.00     76673.91
 1180.78        2968.25           2402       17001.00     74281.53
 1180.81        2968.50           2406       16175.00     70663.03
 1180.84        2968.75           2409       15523.00     67807.41
 1180.87        2969.00           2413       14268.00     62312.35
 1180.90        2969.25           2417       13110.00     57243.83
 1180.93        2969.50           2420       12167.00     53117.65
 1180.96        2969.75           2424       11129.00     48577.12
 1180.99        2970.00           2427       10481.00     45743.28
 1181.02        2970.25           2431        9310.00     40623.64
 1181.05        2970.50           2434        8435.00     36799.28
 1181.08        2970.75           2438        7282.00     31761.40
 1181.11        2971.00           2441        6461.00     28175.19
 1181.14        2971.25           2445        5494.00     23952.37
 1181.17        2971.50           2449        4502.00     19621.63
 1181.21        2971.75           2452        3775.00     16448.61
 1181.24        2972.00           2456        2563.00     11160.29
 1181.27        2972.25           2459        1737.00      7557.30
 1181.30        2972.50           2463         870.00      3776.42
 1181.33        2972.75           2466         398.00      1718.50
 1181.36        2973.00           2470         161.00       685.28
 1181.39        2973.25           2473          97.00       406.28
 1181.42        2973.50           2477          77.00       319.10
 1181.45        2973.75           2481          77.00       319.10
 1181.48        2974.00           2484          71.00       292.94
 1181.51        2974.25           2488          76.00       314.74
 1181.54        2974.50           2491          65.00       266.79
 1181.57        2974.75           2495          70.00       288.58
 1181.60        2975.00           2498          68.00       279.86
 1181.63        2975.25           2502          69.00       284.22
 1181.66        2975.50           2505          69.00       284.22
 1181.69        2975.75           2509          64.00       262.43
 1181.73        2976.00           2512          67.00       275.50
 1181.76        2976.25           2516          65.00       266.79
 1181.79        2976.50           2520          62.00       253.71
 1181.82        2976.75           2523          57.00       231.91
 1181.85        2977.00           2527          62.00       253.71
 1181.88        2977.25           2530          61.00       249.35
 1181.91        2977.50           2534          68.00       279.86
 1181.94        2977.75           2537          57.00       231.91
 1181.97        2978.00           2541          56.00       227.55
 1182.00        2978.25           2544          54.00       218.83
 1182.03        2978.50           2548          61.00       249.35
 1182.06        2978.75           2552          60.00       244.99
 1182.09        2979.00           2555          58.00       236.27
 1182.12        2979.25           2559          56.00       227.55
 1182.15        2979.50           2562          54.00       218.83
 1182.18        2979.75           2566          53.00       214.47
 1182.21        2980.00           2569          56.00       227.55
 1182.25        2980.25           2573          54.00       218.83
 1182.28        2980.50           2577          47.00       188.32
 1182.31        2980.75           2580          52.00       210.11
 1182.34        2981.00           2584          54.00       218.83
 1182.37        2981.25           2587          48.00       192.68
 1182.40        2981.50           2591          50.00       201.40
 1182.43        2981.75           2594          53.00       214.47
 1182.46        2982.00           2598          52.00       210.11
 1182.49        2982.25           2601          54.00       218.83
 1182.52        2982.50           2605          55.00       223.19
 1182.55        2982.75           2609          54.00       218.83
 1182.58        2983.00           2612          54.00       218.83
 1182.61        2983.25           2616          47.00       188.32
 1182.64        2983.50           2619          53.00       214.47
 1182.67        2983.75           2623          55.00       223.19
 1182.70        2984.00           2626          54.00       218.83
HS scan finished at 19:42:56
end
