************************************************************
  HS Scan of (1) Internal mercury lamp
************************************************************
Integration time is 0.2294 seconds per sample
dh160917Reading 51.44 .94 2.96pr1000
************************************************************
Dead Time -------------------------  3.4E-08 
Number of Cycles Used -------------  4 
Starting Wavelength (Angstroms) ---  2950 
Final Wavelength (Angstoms) -------  2984 
Wavelength Increment (Angstroms) --  .25 
Filter Wheel #1 Position ---------- (1) Ground quartz diffuser (ND=2.32)
Filter Wheel #2 Position ---------- (1) Neutral Density 0.494



************************************************************
HS scan start time = 02:29:54
Dark Count =  .8 


Time (GMT)  Wavelength (Ang)  Step Number  Raw Counts  Counts/Second

  150.80        2950.00           2144         156.00       676.56
  150.99        2950.25           2147         143.00       619.89
  151.02        2950.50           2151         154.00       667.84
  151.06        2950.75           2155         160.00       694.00
  151.09        2951.00           2158         171.00       741.95
  151.12        2951.25           2162         163.00       707.08
  151.15        2951.50           2165         150.00       650.41
  151.18        2951.75           2169         170.00       737.59
  151.21        2952.00           2172         161.00       698.36
  151.24        2952.25           2176         159.00       689.64
  151.27        2952.50           2179         154.00       667.84
  151.30        2952.75           2183         165.00       715.80
  151.33        2953.00           2186         162.00       702.72
  151.36        2953.25           2190         164.00       711.44
  151.39        2953.50           2193         163.00       707.08
  151.42        2953.75           2197         165.00       715.80
  151.45        2954.00           2200         162.00       702.72
  151.48        2954.25           2204         158.00       685.28
  151.51        2954.50           2208         167.00       724.52
  151.54        2954.75           2211         182.00       789.91
  151.58        2955.00           2215         159.00       689.64
  151.61        2955.25           2218         177.00       768.11
  151.64        2955.50           2222         173.00       750.67
  151.67        2955.75           2225         177.00       768.11
  151.70        2956.00           2229         171.00       741.95
  151.73        2956.25           2232         190.00       824.78
  151.76        2956.50           2236         181.00       785.55
  151.79        2956.75           2239         179.00       776.83
  151.82        2957.00           2243         197.00       855.30
  151.85        2957.25           2246         198.00       859.66
  151.88        2957.50           2250         170.00       737.59
  151.91        2957.75           2254         194.00       842.22
  151.94        2958.00           2257         187.00       811.71
  151.97        2958.25           2261         200.00       868.38
  152.00        2958.50           2264         200.00       868.38
  152.03        2958.75           2268         195.00       846.58
  152.06        2959.00           2271         205.00       890.18
  152.10        2959.25           2275         201.00       872.74
  152.13        2959.50           2278         197.00       855.30
  152.16        2959.75           2282         211.00       916.33
  152.19        2960.00           2285         219.00       951.21
  152.22        2960.25           2289         204.00       885.82
  152.25        2960.50           2293         237.00      1029.68
  152.28        2960.75           2296         248.00      1077.63
  152.31        2961.00           2300         248.00      1077.63
  152.34        2961.25           2303         450.00      1958.28
  152.37        2961.50           2307        1592.00      6937.99
  152.40        2961.75           2310        3274.00     14275.45
  152.43        2962.00           2314        5990.00     26131.32
  152.46        2962.25           2317        8425.00     36768.69
  152.49        2962.50           2321       11626.00     50764.10
  152.52        2962.75           2324       14271.00     62338.62
  152.55        2963.00           2328       17791.00     77756.29
  152.58        2963.25           2331       20555.00     89874.03
  152.62        2963.50           2335       23910.00    104596.30
  152.65        2963.75           2339       26859.00    117549.10
  152.68        2964.00           2342       29325.00    128389.20
  152.71        2964.25           2346       33261.00    145707.90
  152.74        2964.50           2349       35518.00    155648.00
  152.77        2964.75           2353       39012.00    171049.40
  152.80        2965.00           2356       41433.00    181730.60
  152.83        2965.25           2360       44220.00    194036.20
  152.86        2965.50           2363       46593.00    204521.90
  152.89        2965.75           2367       50045.00    219788.90
  152.92        2966.00           2370       52007.00    228473.30
  152.95        2966.25           2374       55173.00    242497.70
  152.98        2966.50           2378       56895.00    250131.30
  153.01        2966.75           2381       57397.00    252357.40
  153.04        2967.00           2385       57674.00    253585.90
  153.07        2967.25           2388       57802.00    254153.60
  153.10        2967.50           2392       57468.00    252672.30
  153.13        2967.75           2395       57276.00    251820.80
  153.17        2968.00           2399       56100.00    246606.60
  153.20        2968.25           2402       54279.00    238536.20
  153.23        2968.50           2406       51152.00    224688.20
  153.26        2968.75           2409       48693.00    213807.60
  153.29        2969.00           2413       45409.00    199289.10
  153.32        2969.25           2417       42191.00    185076.40
  153.35        2969.50           2420       39762.00    174357.50
  153.38        2969.75           2424       36527.00    160094.00
  153.41        2970.00           2427       33865.00    148367.30
  153.44        2970.25           2431       30753.00    134670.10
  153.47        2970.50           2434       28202.00    123451.70
  153.50        2970.75           2438       24613.00    107683.00
  153.53        2971.00           2441       21873.00     95655.85
  153.56        2971.25           2445       18454.00     80662.06
  153.59        2971.50           2449       14650.00     63997.87
  153.62        2971.75           2452       12058.00     52653.90
  153.65        2972.00           2456        8765.00     38254.61
  153.69        2972.25           2459        6528.00     28480.93
  153.72        2972.50           2463        3705.00     16156.21
  153.75        2972.75           2466        1923.00      8381.64
  153.78        2973.00           2470         591.00      2573.02
  153.81        2973.25           2473         297.00      1291.25
  153.84        2973.50           2477         247.00      1073.27
  153.87        2973.75           2481         219.00       951.21
  153.90        2974.00           2484         218.00       946.85
  153.93        2974.25           2488         249.00      1081.99
  153.96        2974.50           2491         221.00       959.93
  153.99        2974.75           2495         209.00       907.61
  154.02        2975.00           2498         200.00       868.38
  154.05        2975.25           2502         205.00       890.18
  154.08        2975.50           2505         196.00       850.94
  154.11        2975.75           2509         180.00       781.19
  154.14        2976.00           2512         183.00       794.27
  154.17        2976.25           2516         183.00       794.27
  154.21        2976.50           2520         173.00       750.67
  154.24        2976.75           2523         184.00       798.63
  154.27        2977.00           2527         182.00       789.91
  154.30        2977.25           2530         179.00       776.83
  154.33        2977.50           2534         177.00       768.11
  154.36        2977.75           2537         181.00       785.55
  154.39        2978.00           2541         187.00       811.71
  154.42        2978.25           2544         161.00       698.36
  154.45        2978.50           2548         169.00       733.24
  154.48        2978.75           2552         153.00       663.48
  154.51        2979.00           2555         165.00       715.80
  154.54        2979.25           2559         165.00       715.80
  154.57        2979.50           2562         153.00       663.48
  154.60        2979.75           2566         159.00       689.64
  154.63        2980.00           2569         156.00       676.56
  154.66        2980.25           2573         164.00       711.44
  154.69        2980.50           2577         170.00       737.59
  154.73        2980.75           2580         148.00       641.69
  154.76        2981.00           2584         149.00       646.05
  154.79        2981.25           2587         151.00       654.77
  154.82        2981.50           2591         148.00       641.69
  154.85        2981.75           2594         142.00       615.53
  154.88        2982.00           2598         152.00       659.13
  154.91        2982.25           2601         163.00       707.08
  154.94        2982.50           2605         155.00       672.20
  154.97        2982.75           2609         167.00       724.52
  155.00        2983.00           2612         145.00       628.61
  155.03        2983.25           2616         144.00       624.25
  155.06        2983.50           2619         142.00       615.53
  155.09        2983.75           2623         140.00       606.81
  155.12        2984.00           2626         139.00       602.45
HS scan finished at 02:35:21
end
************************************************************
  HS Scan of (1) Internal mercury lamp
************************************************************
Integration time is 0.2294 seconds per sample
dh160917Reading 51.44 .94 3.31pr1000
************************************************************
Dead Time -------------------------  3.4E-08 
Number of Cycles Used -------------  4 
Starting Wavelength (Angstroms) ---  2950 
Final Wavelength (Angstoms) -------  2984 
Wavelength Increment (Angstroms) --  .25 
Filter Wheel #1 Position ---------- (1) Ground quartz diffuser (ND=2.32)
Filter Wheel #2 Position ---------- (1) Neutral Density 0.494



************************************************************
HS scan start time = 19:07:28
Dark Count =  2 


Time (GMT)  Wavelength (Ang)  Step Number  Raw Counts  Counts/Second

 1148.36        2950.00           2144         163.00       701.85
 1148.55        2950.25           2147         159.00       684.41
 1148.58        2950.50           2151         169.00       728.00
 1148.62        2950.75           2155         161.00       693.13
 1148.65        2951.00           2158         169.00       728.00
 1148.68        2951.25           2162         180.00       775.96
 1148.71        2951.50           2165         169.00       728.00
 1148.74        2951.75           2169         175.00       754.16
 1148.77        2952.00           2172         181.00       780.32
 1148.80        2952.25           2176         172.00       741.08
 1148.83        2952.50           2179         184.00       793.40
 1148.86        2952.75           2183         167.00       719.29
 1148.89        2953.00           2186         167.00       719.29
 1148.92        2953.25           2190         165.00       710.57
 1148.95        2953.50           2193         182.00       784.68
 1148.98        2953.75           2197         171.00       736.72
 1149.01        2954.00           2200         184.00       793.40
 1149.04        2954.25           2204         182.00       784.68
 1149.07        2954.50           2208         187.00       806.47
 1149.10        2954.75           2211         185.00       797.75
 1149.14        2955.00           2215         190.00       819.55
 1149.17        2955.25           2218         169.00       728.00
 1149.20        2955.50           2222         188.00       810.83
 1149.23        2955.75           2225         173.00       745.44
 1149.26        2956.00           2229         180.00       775.96
 1149.29        2956.25           2232         195.00       841.35
 1149.32        2956.50           2236         188.00       810.83
 1149.35        2956.75           2239         179.00       771.60
 1149.38        2957.00           2243         186.00       802.11
 1149.41        2957.25           2246         199.00       858.79
 1149.44        2957.50           2250         204.00       880.58
 1149.47        2957.75           2254         211.00       911.10
 1149.50        2958.00           2257         193.00       832.63
 1149.53        2958.25           2261         196.00       845.71
 1149.56        2958.50           2264         203.00       876.22
 1149.59        2958.75           2268         225.00       972.13
 1149.62        2959.00           2271         223.00       963.41
 1149.66        2959.25           2275         221.00       954.70
 1149.69        2959.50           2278         223.00       963.41
 1149.72        2959.75           2282         237.00      1024.45
 1149.75        2960.00           2285         265.00      1146.51
 1149.78        2960.25           2289         259.00      1120.36
 1149.81        2960.50           2293         284.00      1229.35
 1149.84        2960.75           2296         265.00      1146.51
 1149.87        2961.00           2300         310.00      1342.69
 1149.90        2961.25           2303         622.00      2702.95
 1149.93        2961.50           2307        2241.00      9763.48
 1149.96        2961.75           2310        4327.00     18865.63
 1149.99        2962.00           2314        7928.00     34591.67
 1150.02        2962.25           2317       10668.00     46568.89
 1150.05        2962.50           2321       14452.00     63125.76
 1150.08        2962.75           2324       17412.00     76090.24
 1150.11        2963.00           2328       21254.00     92934.87
 1150.14        2963.25           2331       23796.00    104090.50
 1150.18        2963.50           2335       27269.00    119345.50
 1150.21        2963.75           2339       31310.00    137115.50
 1150.24        2964.00           2342       34616.00    151669.40
 1150.27        2964.25           2346       38483.00    168711.30
 1150.30        2964.50           2349       41440.00    181756.20
 1150.33        2964.75           2353       45138.00    198086.40
 1150.36        2965.00           2356       47424.00    208190.40
 1150.39        2965.25           2360       51260.00    225160.90
 1150.42        2965.50           2363       54392.00    239031.60
 1150.45        2965.75           2367       57900.00    254583.00
 1150.48        2966.00           2370       60655.00    266807.80
 1150.51        2966.25           2374       63630.00    280020.40
 1150.54        2966.50           2378       65207.00    287029.00
 1150.57        2966.75           2381       65889.00    290061.00
 1150.60        2967.00           2385       65907.00    290141.00
 1150.63        2967.25           2388       65751.00    289447.50
 1150.66        2967.50           2392       65701.00    289225.20
 1150.70        2967.75           2395       65222.00    287095.70
 1150.73        2968.00           2399       63390.00    278954.10
 1150.76        2968.25           2402       61342.00    269857.90
 1150.79        2968.50           2406       57726.00    253811.20
 1150.82        2968.75           2409       55443.00    243689.00
 1150.85        2969.00           2413       51718.00    227188.40
 1150.88        2969.25           2417       48118.00    211259.20
 1150.91        2969.50           2420       44885.00    196968.60
 1150.94        2969.75           2424       40976.00    179708.50
 1150.97        2970.00           2427       38423.00    168446.70
 1151.00        2970.25           2431       34312.00    150330.50
 1151.03        2970.50           2434       31443.00    137700.70
 1151.06        2970.75           2438       27665.00    121086.00
 1151.09        2971.00           2441       24475.00    107071.70
 1151.12        2971.25           2445       20481.00     89544.22
 1151.15        2971.50           2449       16517.00     72169.03
 1151.18        2971.75           2452       13719.00     59917.07
 1151.21        2972.00           2456        9983.00     43573.67
 1151.25        2972.25           2459        7333.00     31992.06
 1151.28        2972.50           2463        4138.00     18040.71
 1151.31        2972.75           2466        2113.00      9205.15
 1151.34        2973.00           2470         612.00      2659.35
 1151.37        2973.25           2473         322.00      1395.01
 1151.40        2973.50           2477         255.00      1102.92
 1151.43        2973.75           2481         244.00      1054.96
 1151.46        2974.00           2484         248.00      1072.40
 1151.49        2974.25           2488         239.00      1033.17
 1151.52        2974.50           2491         237.00      1024.45
 1151.55        2974.75           2495         236.00      1020.09
 1151.58        2975.00           2498         219.00       945.98
 1151.61        2975.25           2502         239.00      1033.17
 1151.64        2975.50           2505         218.00       941.62
 1151.67        2975.75           2509         217.00       937.26
 1151.70        2976.00           2512         216.00       932.90
 1151.73        2976.25           2516         213.00       919.82
 1151.77        2976.50           2520         219.00       945.98
 1151.80        2976.75           2523         207.00       893.66
 1151.83        2977.00           2527         202.00       871.87
 1151.86        2977.25           2530         200.00       863.15
 1151.89        2977.50           2534         191.00       823.91
 1151.92        2977.75           2537         189.00       815.19
 1151.95        2978.00           2541         190.00       819.55
 1151.98        2978.25           2544         181.00       780.32
 1152.01        2978.50           2548         192.00       828.27
 1152.04        2978.75           2552         187.00       806.47
 1152.07        2979.00           2555         189.00       815.19
 1152.10        2979.25           2559         180.00       775.96
 1152.13        2979.50           2562         178.00       767.24
 1152.16        2979.75           2566         184.00       793.40
 1152.19        2980.00           2569         176.00       758.52
 1152.22        2980.25           2573         186.00       802.11
 1152.25        2980.50           2577         181.00       780.32
 1152.29        2980.75           2580         180.00       775.96
 1152.32        2981.00           2584         169.00       728.00
 1152.35        2981.25           2587         171.00       736.72
 1152.38        2981.50           2591         167.00       719.29
 1152.41        2981.75           2594         159.00       684.41
 1152.44        2982.00           2598         177.00       762.88
 1152.47        2982.25           2601         177.00       762.88
 1152.50        2982.50           2605         173.00       745.44
 1152.53        2982.75           2609         172.00       741.08
 1152.56        2983.00           2612         168.00       723.64
 1152.59        2983.25           2616         162.00       697.49
 1152.62        2983.50           2619         157.00       675.69
 1152.65        2983.75           2623         149.00       640.82
 1152.68        2984.00           2626         154.00       662.61
HS scan finished at 19:12:54
end
