************************************************************
  HS Scan of (1) Internal mercury lamp
************************************************************
Integration time is 0.2294 seconds per sample
dh110917Reading 51.44 .94 3.03pr1000
************************************************************
Dead Time -------------------------  3.4E-08 
Number of Cycles Used -------------  4 
Starting Wavelength (Angstroms) ---  2950 
Final Wavelength (Angstoms) -------  2984 
Wavelength Increment (Angstroms) --  .25 
Filter Wheel #1 Position ---------- (1) Ground quartz diffuser (ND=2.32)
Filter Wheel #2 Position ---------- (1) Neutral Density 0.494



************************************************************
HS scan start time = 02:10:14
Dark Count =  .8 


Time (GMT)  Wavelength (Ang)  Step Number  Raw Counts  Counts/Second

  131.13        2950.00           2144         148.00       641.69
  131.32        2950.25           2147         163.00       707.08
  131.35        2950.50           2151         162.00       702.72
  131.38        2950.75           2155         152.00       659.13
  131.41        2951.00           2158         156.00       676.56
  131.44        2951.25           2162         167.00       724.52
  131.47        2951.50           2165         157.00       680.92
  131.50        2951.75           2169         154.00       667.84
  131.53        2952.00           2172         151.00       654.77
  131.56        2952.25           2176         152.00       659.13
  131.60        2952.50           2179         161.00       698.36
  131.63        2952.75           2183         159.00       689.64
  131.66        2953.00           2186         159.00       689.64
  131.69        2953.25           2190         161.00       698.36
  131.72        2953.50           2193         167.00       724.52
  131.75        2953.75           2197         174.00       755.03
  131.78        2954.00           2200         154.00       667.84
  131.81        2954.25           2204         169.00       733.24
  131.84        2954.50           2208         158.00       685.28
  131.87        2954.75           2211         172.00       746.31
  131.90        2955.00           2215         178.00       772.47
  131.93        2955.25           2218         173.00       750.67
  131.96        2955.50           2222         166.00       720.16
  131.99        2955.75           2225         176.00       763.75
  132.02        2956.00           2229         177.00       768.11
  132.05        2956.25           2232         170.00       737.59
  132.08        2956.50           2236         174.00       755.03
  132.12        2956.75           2239         173.00       750.67
  132.15        2957.00           2243         175.00       759.39
  132.18        2957.25           2246         180.00       781.19
  132.21        2957.50           2250         192.00       833.50
  132.24        2957.75           2254         193.00       837.86
  132.27        2958.00           2257         192.00       833.50
  132.30        2958.25           2261         170.00       737.59
  132.33        2958.50           2264         190.00       824.78
  132.36        2958.75           2268         187.00       811.71
  132.39        2959.00           2271         200.00       868.38
  132.42        2959.25           2275         195.00       846.58
  132.45        2959.50           2278         198.00       859.66
  132.48        2959.75           2282         198.00       859.66
  132.51        2960.00           2285         204.00       885.82
  132.54        2960.25           2289         207.00       898.89
  132.57        2960.50           2293         217.00       942.49
  132.60        2960.75           2296         220.00       955.57
  132.63        2961.00           2300         289.00      1256.37
  132.67        2961.25           2303         406.00      1766.45
  132.70        2961.50           2307        1706.00      7435.18
  132.73        2961.75           2310        3500.00     15261.62
  132.76        2962.00           2314        6248.00     27258.03
  132.79        2962.25           2317        8472.00     36974.09
  132.82        2962.50           2321       11639.00     50820.96
  132.85        2962.75           2324       13971.00     61025.35
  132.88        2963.00           2328       17263.00     75442.61
  132.91        2963.25           2331       19548.00     85458.06
  132.94        2963.50           2335       22919.00    100246.10
  132.97        2963.75           2339       26359.00    115352.10
  133.00        2964.00           2342       29267.00    128134.20
  133.03        2964.25           2346       32817.00    143753.20
  133.06        2964.50           2349       35251.00    154471.80
  133.09        2964.75           2353       38251.00    167693.60
  133.12        2965.00           2356       40433.00    177317.80
  133.15        2965.25           2360       43930.00    192755.20
  133.19        2965.50           2363       46502.00    204119.60
  133.22        2965.75           2367       49559.00    217638.50
  133.25        2966.00           2370       51962.00    228274.00
  133.28        2966.25           2374       55082.00    242094.40
  133.31        2966.50           2378       56996.00    250579.20
  133.34        2966.75           2381       57507.00    252845.30
  133.37        2967.00           2385       57844.00    254339.90
  133.40        2967.25           2388       57760.00    253967.30
  133.43        2967.50           2392       57608.00    253293.20
  133.46        2967.75           2395       57415.00    252437.20
  133.49        2968.00           2399       56035.00    246318.40
  133.52        2968.25           2402       53909.00    236897.00
  133.55        2968.50           2406       51255.00    225144.10
  133.58        2968.75           2409       48748.00    214050.90
  133.61        2969.00           2413       45474.00    199576.40
  133.64        2969.25           2417       41906.00    183818.30
  133.67        2969.50           2420       39309.00    172359.30
  133.71        2969.75           2424       35888.00    157278.20
  133.74        2970.00           2427       33326.00    145994.00
  133.77        2970.25           2431       30044.00    131551.40
  133.80        2970.50           2434       27467.00    120221.00
  133.83        2970.75           2438       23814.00    104174.80
  133.86        2971.00           2441       21152.00     92492.68
  133.89        2971.25           2445       17824.00     77900.91
  133.92        2971.50           2449       14607.00     63809.61
  133.95        2971.75           2452       12262.00     53546.40
  133.98        2972.00           2456        9322.00     40689.21
  134.01        2972.25           2459        6713.00     29288.96
  134.04        2972.50           2463        3469.00     15126.35
  134.07        2972.75           2466        1653.00      7204.03
  134.10        2973.00           2470         473.00      2058.56
  134.13        2973.25           2473         307.00      1334.85
  134.16        2973.50           2477         249.00      1081.99
  134.19        2973.75           2481         268.00      1164.82
  134.23        2974.00           2484         251.00      1090.71
  134.26        2974.25           2488         201.00       872.74
  134.29        2974.50           2491         200.00       868.38
  134.32        2974.75           2495         204.00       885.82
  134.35        2975.00           2498         199.00       864.02
  134.38        2975.25           2502         193.00       837.86
  134.41        2975.50           2505         184.00       798.63
  134.44        2975.75           2509         186.00       807.35
  134.47        2976.00           2512         182.00       789.91
  134.50        2976.25           2516         191.00       829.14
  134.53        2976.50           2520         178.00       772.47
  134.56        2976.75           2523         173.00       750.67
  134.59        2977.00           2527         179.00       776.83
  134.62        2977.25           2530         174.00       755.03
  134.65        2977.50           2534         162.00       702.72
  134.68        2977.75           2537         167.00       724.52
  134.71        2978.00           2541         167.00       724.52
  134.74        2978.25           2544         162.00       702.72
  134.78        2978.50           2548         157.00       680.92
  134.81        2978.75           2552         149.00       646.05
  134.84        2979.00           2555         167.00       724.52
  134.87        2979.25           2559         158.00       685.28
  134.90        2979.50           2562         163.00       707.08
  134.93        2979.75           2566         160.00       694.00
  134.96        2980.00           2569         159.00       689.64
  134.99        2980.25           2573         152.00       659.13
  135.02        2980.50           2577         149.00       646.05
  135.05        2980.75           2580         143.00       619.89
  135.08        2981.00           2584         152.00       659.13
  135.11        2981.25           2587         171.00       741.95
  135.14        2981.50           2591         140.00       606.81
  135.17        2981.75           2594         150.00       650.41
  135.20        2982.00           2598         146.00       632.97
  135.23        2982.25           2601         144.00       624.25
  135.26        2982.50           2605         161.00       698.36
  135.30        2982.75           2609         145.00       628.61
  135.33        2983.00           2612         135.00       585.02
  135.36        2983.25           2616         157.00       680.92
  135.39        2983.50           2619         151.00       654.77
  135.42        2983.75           2623         165.00       715.80
  135.45        2984.00           2626         155.00       672.20
HS scan finished at 02:15:40
end
************************************************************
  HS Scan of (1) Internal mercury lamp
************************************************************
Integration time is 0.2294 seconds per sample
dh110917Reading 51.44 .94 3.27pr1000
************************************************************
Dead Time -------------------------  3.4E-08 
Number of Cycles Used -------------  4 
Starting Wavelength (Angstroms) ---  2950 
Final Wavelength (Angstoms) -------  2984 
Wavelength Increment (Angstroms) --  .25 
Filter Wheel #1 Position ---------- (1) Ground quartz diffuser (ND=2.32)
Filter Wheel #2 Position ---------- (1) Neutral Density 0.494



************************************************************
HS scan start time = 19:37:24
Dark Count =  1.5 


Time (GMT)  Wavelength (Ang)  Step Number  Raw Counts  Counts/Second

 1178.30        2950.00           2144         147.00       634.28
 1178.49        2950.25           2147         163.00       704.03
 1178.52        2950.50           2151         166.00       717.11
 1178.55        2950.75           2155         151.00       651.71
 1178.58        2951.00           2158         153.00       660.43
 1178.61        2951.25           2162         169.00       730.18
 1178.64        2951.50           2165         151.00       651.71
 1178.67        2951.75           2169         155.00       669.15
 1178.70        2952.00           2172         158.00       682.23
 1178.73        2952.25           2176         171.00       738.90
 1178.76        2952.50           2179         162.00       699.67
 1178.80        2952.75           2183         164.00       708.39
 1178.83        2953.00           2186         157.00       677.87
 1178.86        2953.25           2190         177.00       765.06
 1178.89        2953.50           2193         167.00       721.46
 1178.92        2953.75           2197         159.00       686.59
 1178.95        2954.00           2200         160.00       690.95
 1178.98        2954.25           2204         166.00       717.11
 1179.01        2954.50           2208         175.00       756.34
 1179.04        2954.75           2211         160.00       690.95
 1179.07        2955.00           2215         171.00       738.90
 1179.10        2955.25           2218         170.00       734.54
 1179.13        2955.50           2222         177.00       765.06
 1179.16        2955.75           2225         179.00       773.78
 1179.19        2956.00           2229         175.00       756.34
 1179.22        2956.25           2232         185.00       799.93
 1179.25        2956.50           2236         180.00       778.14
 1179.28        2956.75           2239         181.00       782.50
 1179.31        2957.00           2243         196.00       847.89
 1179.35        2957.25           2246         198.00       856.61
 1179.38        2957.50           2250         189.00       817.37
 1179.41        2957.75           2254         183.00       791.22
 1179.44        2958.00           2257         191.00       826.09
 1179.47        2958.25           2261         203.00       878.40
 1179.50        2958.50           2264         198.00       856.61
 1179.53        2958.75           2268         204.00       882.76
 1179.56        2959.00           2271         228.00       987.39
 1179.59        2959.25           2275         199.00       860.97
 1179.62        2959.50           2278         203.00       878.40
 1179.65        2959.75           2282         208.00       900.20
 1179.68        2960.00           2285         224.00       969.95
 1179.71        2960.25           2289         244.00      1057.14
 1179.74        2960.50           2293         230.00       996.11
 1179.77        2960.75           2296         288.00      1248.96
 1179.80        2961.00           2300         272.00      1179.21
 1179.83        2961.25           2303         491.00      2133.98
 1179.87        2961.50           2307        2086.00      9089.56
 1179.90        2961.75           2310        4271.00     18623.38
 1179.93        2962.00           2314        7560.00     32985.97
 1179.96        2962.25           2317        9822.00     42871.96
 1179.99        2962.50           2321       13154.00     57446.44
 1180.02        2962.75           2324       15608.00     68189.74
 1180.05        2963.00           2328       19262.00     84201.05
 1180.08        2963.25           2331       21528.00     94139.11
 1180.11        2963.50           2335       25001.00    109383.80
 1180.14        2963.75           2339       28629.00    125325.80
 1180.17        2964.00           2342       31506.00    137980.20
 1180.20        2964.25           2346       35220.00    154332.10
 1180.23        2964.50           2349       37613.00    164877.70
 1180.26        2964.75           2353       40961.00    179644.50
 1180.29        2965.00           2356       43310.00    190014.00
 1180.32        2965.25           2360       47330.00    207776.90
 1180.35        2965.50           2363       50218.00    220551.30
 1180.39        2965.75           2367       53503.00    235095.30
 1180.42        2966.00           2370       55692.00    244794.90
 1180.45        2966.25           2374       58874.00    258906.00
 1180.48        2966.50           2378       60898.00    267888.80
 1180.51        2966.75           2381       61264.00    269513.80
 1180.54        2967.00           2385       61400.00    270117.60
 1180.57        2967.25           2388       61527.00    270681.50
 1180.60        2967.50           2392       61285.00    269607.00
 1180.63        2967.75           2395       60805.00    267476.00
 1180.66        2968.00           2399       58708.00    258169.50
 1180.69        2968.25           2402       56525.00    248487.70
 1180.72        2968.50           2406       53295.00    234174.00
 1180.75        2968.75           2409       51001.00    224016.70
 1180.78        2969.00           2413       47531.00    208665.70
 1180.81        2969.25           2417       43818.00    192257.40
 1180.84        2969.50           2420       40803.00    178947.30
 1180.87        2969.75           2424       37491.00    164339.90
 1180.91        2970.00           2427       34993.00    153332.20
 1180.94        2970.25           2431       31306.00    137100.10
 1180.97        2970.50           2434       28471.00    124631.20
 1181.00        2970.75           2438       24656.00    107868.70
 1181.03        2971.00           2441       21908.00     95806.35
 1181.06        2971.25           2445       18568.00     81158.68
 1181.09        2971.50           2449       15132.00     66105.25
 1181.12        2971.75           2452       12417.00     54221.49
 1181.15        2972.00           2456        8966.00     39130.06
 1181.18        2972.25           2459        6680.00     29141.77
 1181.21        2972.50           2463        3464.00     15101.48
 1181.24        2972.75           2466        1594.00      6943.66
 1181.27        2973.00           2470         470.00      2042.43
 1181.30        2973.25           2473         303.00      1314.36
 1181.33        2973.50           2477         275.00      1192.29
 1181.36        2973.75           2481         257.00      1113.82
 1181.40        2974.00           2484         233.00      1009.19
 1181.43        2974.25           2488         260.00      1126.90
 1181.46        2974.50           2491         225.00       974.31
 1181.49        2974.75           2495         216.00       935.08
 1181.52        2975.00           2498         247.00      1070.22
 1181.55        2975.25           2502         222.00       961.23
 1181.58        2975.50           2505         203.00       878.40
 1181.61        2975.75           2509         215.00       930.72
 1181.64        2976.00           2512         200.00       865.33
 1181.67        2976.25           2516         204.00       882.76
 1181.70        2976.50           2520         196.00       847.89
 1181.73        2976.75           2523         205.00       887.12
 1181.76        2977.00           2527         197.00       852.25
 1181.79        2977.25           2530         204.00       882.76
 1181.82        2977.50           2534         180.00       778.14
 1181.85        2977.75           2537         192.00       830.45
 1181.88        2978.00           2541         199.00       860.97
 1181.91        2978.25           2544         190.00       821.73
 1181.95        2978.50           2548         172.00       743.26
 1181.98        2978.75           2552         193.00       834.81
 1182.01        2979.00           2555         174.00       751.98
 1182.04        2979.25           2559         180.00       778.14
 1182.07        2979.50           2562         175.00       756.34
 1182.10        2979.75           2566         200.00       865.33
 1182.13        2980.00           2569         168.00       725.82
 1182.16        2980.25           2573         172.00       743.26
 1182.19        2980.50           2577         176.00       760.70
 1182.22        2980.75           2580         168.00       725.82
 1182.25        2981.00           2584         164.00       708.39
 1182.28        2981.25           2587         171.00       738.90
 1182.31        2981.50           2591         165.00       712.75
 1182.34        2981.75           2594         168.00       725.82
 1182.37        2982.00           2598         157.00       677.87
 1182.40        2982.25           2601         150.00       647.36
 1182.43        2982.50           2605         167.00       721.46
 1182.47        2982.75           2609         160.00       690.95
 1182.50        2983.00           2612         164.00       708.39
 1182.53        2983.25           2616         151.00       651.71
 1182.56        2983.50           2619         152.00       656.07
 1182.59        2983.75           2623         153.00       660.43
 1182.62        2984.00           2626         173.00       747.62
HS scan finished at 19:42:51
end
