************************************************************
  HS Scan of (1) Internal mercury lamp
************************************************************
Integration time is 0.2294 seconds per sample
dh150918Reading 51.44 .94 3.21pr1000
************************************************************
Dead Time -------------------------  3.4E-08 
Number of Cycles Used -------------  4 
Starting Wavelength (Angstroms) ---  2950 
Final Wavelength (Angstoms) -------  2984 
Wavelength Increment (Angstroms) --  .25 
Filter Wheel #1 Position ---------- (1) Ground quartz diffuser (ND=2.32)
Filter Wheel #2 Position ---------- (1) Neutral Density 0.494



************************************************************
HS scan start time = 02:25:27
Dark Count =  1.4 


Time (GMT)  Wavelength (Ang)  Step Number  Raw Counts  Counts/Second

  146.35        2950.00           2144          84.00       360.07
  146.54        2950.25           2147          62.00       264.17
  146.58        2950.50           2151          60.00       255.45
  146.61        2950.75           2155          62.00       264.17
  146.64        2951.00           2158          63.00       268.53
  146.68        2951.25           2162          65.00       277.25
  146.71        2951.50           2165          59.00       251.09
  146.74        2951.75           2169          64.00       272.89
  146.77        2952.00           2172          61.00       259.81
  146.80        2952.25           2176          63.00       268.53
  146.83        2952.50           2179          67.00       285.97
  146.86        2952.75           2183          67.00       285.97
  146.90        2953.00           2186          62.00       264.17
  146.93        2953.25           2190          63.00       268.53
  146.96        2953.50           2193          64.00       272.89
  146.99        2953.75           2197          61.00       259.81
  147.02        2954.00           2200          60.00       255.45
  147.05        2954.25           2204          63.00       268.53
  147.08        2954.50           2208          65.00       277.25
  147.11        2954.75           2211          62.00       264.17
  147.14        2955.00           2215          60.00       255.45
  147.17        2955.25           2218          70.00       299.04
  147.20        2955.50           2222          68.00       290.33
  147.23        2955.75           2225          64.00       272.89
  147.26        2956.00           2229          63.00       268.53
  147.29        2956.25           2232          69.00       294.68
  147.32        2956.50           2236          67.00       285.97
  147.35        2956.75           2239          57.00       242.37
  147.39        2957.00           2243          65.00       277.25
  147.42        2957.25           2246          72.00       307.76
  147.45        2957.50           2250          68.00       290.33
  147.48        2957.75           2254          73.00       312.12
  147.51        2958.00           2257          64.00       272.89
  147.54        2958.25           2261          66.00       281.61
  147.57        2958.50           2264          68.00       290.33
  147.60        2958.75           2268          80.00       342.64
  147.63        2959.00           2271          77.00       329.56
  147.66        2959.25           2275          73.00       312.12
  147.69        2959.50           2278          71.00       303.40
  147.72        2959.75           2282          66.00       281.61
  147.75        2960.00           2285          75.00       320.84
  147.78        2960.25           2289          80.00       342.64
  147.81        2960.50           2293          77.00       329.56
  147.84        2960.75           2296          84.00       360.07
  147.87        2961.00           2300         110.00       473.42
  147.91        2961.25           2303         226.00       979.11
  147.94        2961.50           2307         747.00      3250.58
  147.97        2961.75           2310        1396.00      6080.59
  148.00        2962.00           2314        2279.00      9931.86
  148.03        2962.25           2317        3001.00     13081.67
  148.06        2962.50           2321        4106.00     17903.66
  148.09        2962.75           2324        5002.00     21814.78
  148.12        2963.00           2328        6283.00     27408.27
  148.15        2963.25           2331        7124.00     31081.66
  148.18        2963.50           2335       14597.00     63763.20
  148.21        2963.75           2339       10550.00     46055.50
  148.24        2964.00           2342       11215.00     48963.75
  148.27        2964.25           2346       12280.00     53622.53
  148.30        2964.50           2349       12833.00     56042.17
  148.33        2964.75           2353       13584.00     59328.80
  148.36        2965.00           2356       13767.00     60129.78
  148.39        2965.25           2360       14860.00     64914.70
  148.43        2965.50           2363       15959.00     69727.45
  148.46        2965.75           2367       16731.00     73109.15
  148.49        2966.00           2370       17623.00     77017.46
  148.52        2966.25           2374       18450.00     80641.91
  148.55        2966.50           2378       19723.00     86222.76
  148.58        2966.75           2381       19051.00     83276.43
  148.61        2967.00           2385       19532.00     85385.27
  148.64        2967.25           2388       19504.00     85262.50
  148.67        2967.50           2392       19010.00     83096.70
  148.70        2967.75           2395       19595.00     85661.50
  148.73        2968.00           2399       19314.00     84429.46
  148.76        2968.25           2402       18043.00     78858.05
  148.79        2968.50           2406       17143.00     74914.20
  148.82        2968.75           2409       15971.00     69780.01
  148.85        2969.00           2413       15798.00     69022.30
  148.88        2969.25           2417       14504.00     63356.03
  148.91        2969.50           2420       13315.00     58151.48
  148.95        2969.75           2424       13108.00     57245.58
  148.98        2970.00           2427       11589.00     50599.62
  149.01        2970.25           2431       10526.00     45950.55
  149.04        2970.50           2434        9211.00     40201.38
  149.07        2970.75           2438        8347.00     36425.20
  149.10        2971.00           2441        7216.00     31483.55
  149.13        2971.25           2445        6138.00     26775.02
  149.16        2971.50           2449        4829.00     21059.54
  149.19        2971.75           2452        3868.00     16864.94
  149.22        2972.00           2456        2767.00     12060.74
  149.25        2972.25           2459        1990.00      8671.26
  149.28        2972.50           2463        1056.00      4597.93
  149.31        2972.75           2466         569.00      2474.49
  149.34        2973.00           2470         181.00       782.93
  149.37        2973.25           2473         120.00       517.01
  149.40        2973.50           2477          88.00       377.51
  149.43        2973.75           2481          88.00       377.51
  149.47        2974.00           2484          86.00       368.79
  149.50        2974.25           2488          86.00       368.79
  149.53        2974.50           2491          87.00       373.15
  149.56        2974.75           2495          83.00       355.71
  149.59        2975.00           2498          77.00       329.56
  149.62        2975.25           2502          77.00       329.56
  149.65        2975.50           2505          74.00       316.48
  149.68        2975.75           2509          71.00       303.40
  149.71        2976.00           2512          74.00       316.48
  149.74        2976.25           2516          71.00       303.40
  149.77        2976.50           2520          73.00       312.12
  149.80        2976.75           2523          68.00       290.33
  149.83        2977.00           2527          77.00       329.56
  149.86        2977.25           2530          77.00       329.56
  149.89        2977.50           2534          70.00       299.04
  149.92        2977.75           2537         105.00       451.62
  149.95        2978.00           2541          66.00       281.61
  149.98        2978.25           2544          65.00       277.25
  150.02        2978.50           2548          68.00       290.33
  150.05        2978.75           2552          69.00       294.68
  150.08        2979.00           2555          68.00       290.33
  150.11        2979.25           2559          67.00       285.97
  150.14        2979.50           2562          66.00       281.61
  150.17        2979.75           2566          72.00       307.76
  150.20        2980.00           2569          67.00       285.97
  150.23        2980.25           2573          60.00       255.45
  150.26        2980.50           2577          63.00       268.53
  150.29        2980.75           2580          67.00       285.97
  150.32        2981.00           2584          66.00       281.61
  150.35        2981.25           2587          57.00       242.37
  150.38        2981.50           2591          65.00       277.25
  150.41        2981.75           2594          59.00       251.09
  150.44        2982.00           2598          58.00       246.73
  150.47        2982.25           2601          61.00       259.81
  150.50        2982.50           2605          65.00       277.25
  150.54        2982.75           2609          57.00       242.37
  150.57        2983.00           2612          60.00       255.45
  150.60        2983.25           2616          61.00       259.81
  150.63        2983.50           2619          61.00       259.81
  150.66        2983.75           2623          55.00       233.65
  150.69        2984.00           2626          58.00       246.73
HS scan finished at 02:30:55
end
************************************************************
  HS Scan of (1) Internal mercury lamp
************************************************************
Integration time is 0.2294 seconds per sample
dh150918Reading 51.44 .94 3.62pr1000
************************************************************
Dead Time -------------------------  3.4E-08 
Number of Cycles Used -------------  4 
Starting Wavelength (Angstroms) ---  2950 
Final Wavelength (Angstoms) -------  2984 
Wavelength Increment (Angstroms) --  .25 
Filter Wheel #1 Position ---------- (1) Ground quartz diffuser (ND=2.32)
Filter Wheel #2 Position ---------- (1) Neutral Density 0.494



************************************************************
HS scan start time = 19:07:26
Dark Count =  3.6 


Time (GMT)  Wavelength (Ang)  Step Number  Raw Counts  Counts/Second

 1148.33        2950.00           2144          50.00       202.27
 1148.52        2950.25           2147          48.00       193.55
 1148.55        2950.50           2151          44.00       176.11
 1148.58        2950.75           2155          44.00       176.11
 1148.61        2951.00           2158          52.00       210.99
 1148.64        2951.25           2162          48.00       193.55
 1148.67        2951.50           2165          47.00       189.19
 1148.70        2951.75           2169          50.00       202.27
 1148.73        2952.00           2172          47.00       189.19
 1148.76        2952.25           2176          43.00       171.75
 1148.79        2952.50           2179          44.00       176.11
 1148.83        2952.75           2183          47.00       189.19
 1148.86        2953.00           2186          50.00       202.27
 1148.89        2953.25           2190          60.00       245.86
 1148.92        2953.50           2193          57.00       232.78
 1148.95        2953.75           2197          50.00       202.27
 1148.98        2954.00           2200          47.00       189.19
 1149.01        2954.25           2204          50.00       202.27
 1149.04        2954.50           2208          53.00       215.35
 1149.07        2954.75           2211          51.00       206.63
 1149.10        2955.00           2215          52.00       210.99
 1149.13        2955.25           2218          59.00       241.50
 1149.16        2955.50           2222          58.00       237.14
 1149.19        2955.75           2225          52.00       210.99
 1149.22        2956.00           2229          49.00       197.91
 1149.25        2956.25           2232          52.00       210.99
 1149.28        2956.50           2236          50.00       202.27
 1149.31        2956.75           2239          56.00       228.42
 1149.35        2957.00           2243          51.00       206.63
 1149.38        2957.25           2246          54.00       219.71
 1149.41        2957.50           2250          54.00       219.71
 1149.44        2957.75           2254          52.00       210.99
 1149.47        2958.00           2257          57.00       232.78
 1149.50        2958.25           2261          60.00       245.86
 1149.53        2958.50           2264          63.00       258.94
 1149.56        2958.75           2268          57.00       232.78
 1149.59        2959.00           2271          63.00       258.94
 1149.62        2959.25           2275          63.00       258.94
 1149.65        2959.50           2278          65.00       267.66
 1149.68        2959.75           2282          54.00       219.71
 1149.71        2960.00           2285          68.00       280.74
 1149.74        2960.25           2289          72.00       298.17
 1149.77        2960.50           2293          69.00       285.09
 1149.80        2960.75           2296          77.00       319.97
 1149.83        2961.00           2300          84.00       350.48
 1149.87        2961.25           2303         198.00       847.45
 1149.90        2961.50           2307         628.00      2722.14
 1149.93        2961.75           2310        1218.00      5294.76
 1149.96        2962.00           2314        1930.00      8399.96
 1149.99        2962.25           2317        2524.00     10991.03
 1150.02        2962.50           2321        3317.00     14450.87
 1150.05        2962.75           2324        3949.00     17208.85
 1150.08        2963.00           2328        4737.00     20648.32
 1150.11        2963.25           2331        5397.00     23529.72
 1150.14        2963.50           2335        6362.00     27743.68
 1150.17        2963.75           2339        7036.00     30687.63
 1150.20        2964.00           2342        7705.00     33610.31
 1150.23        2964.25           2346        8444.00     36839.49
 1150.26        2964.50           2349        9345.00     40777.51
 1150.29        2964.75           2353       10139.00     44248.74
 1150.32        2965.00           2356       12033.00     52532.28
 1150.35        2965.25           2360       13241.00     57818.00
 1150.39        2965.50           2363       13680.00     59739.36
 1150.42        2965.75           2367       14818.00     64721.17
 1150.45        2966.00           2370       15260.00     66656.56
 1150.48        2966.25           2374       16086.00     70274.07
 1150.51        2966.50           2378       16523.00     72188.30
 1150.54        2966.75           2381       16627.00     72643.90
 1150.57        2967.00           2385       17041.00     74457.66
 1150.60        2967.25           2388       17024.00     74383.18
 1150.63        2967.50           2392       16995.00     74256.13
 1150.66        2967.75           2395       16759.00     73222.18
 1150.69        2968.00           2399       16227.00     70891.69
 1150.72        2968.25           2402       15673.00     68465.21
 1150.75        2968.50           2406       14446.00     63092.48
 1150.78        2968.75           2409       13532.00     59091.58
 1150.81        2969.00           2413       12697.00     55437.44
 1150.84        2969.25           2417       11883.00     51876.08
 1150.87        2969.50           2420       10818.00     47217.86
 1150.91        2969.75           2424       10048.00     43850.86
 1150.94        2970.00           2427        9094.00     39680.35
 1150.97        2970.25           2431        8228.00     35895.57
 1151.00        2970.50           2434        7415.00     32343.31
 1151.03        2970.75           2438        6460.00     28171.70
 1151.06        2971.00           2441        5706.00     24878.93
 1151.09        2971.25           2445        4788.00     20870.95
 1151.12        2971.50           2449        3858.00     16811.70
 1151.15        2971.75           2452        3166.00     13791.99
 1151.18        2972.00           2456        2157.00      9390.10
 1151.21        2972.25           2459        1543.00      6712.08
 1151.24        2972.50           2463         788.00      3419.75
 1151.27        2972.75           2466         382.00      1649.61
 1151.30        2973.00           2470         160.00       681.79
 1151.33        2973.25           2473          84.00       350.48
 1151.36        2973.50           2477          73.00       302.53
 1151.39        2973.75           2481          71.00       293.81
 1151.43        2974.00           2484          72.00       298.17
 1151.46        2974.25           2488          69.00       285.09
 1151.49        2974.50           2491          64.00       263.30
 1151.52        2974.75           2495          69.00       285.09
 1151.55        2975.00           2498          72.00       298.17
 1151.58        2975.25           2502          64.00       263.30
 1151.61        2975.50           2505          64.00       263.30
 1151.64        2975.75           2509          60.00       245.86
 1151.67        2976.00           2512          58.00       237.14
 1151.70        2976.25           2516          50.00       202.27
 1151.73        2976.50           2520          65.00       267.66
 1151.76        2976.75           2523          59.00       241.50
 1151.79        2977.00           2527          57.00       232.78
 1151.82        2977.25           2530          56.00       228.42
 1151.85        2977.50           2534          57.00       232.78
 1151.88        2977.75           2537          49.00       197.91
 1151.91        2978.00           2541          53.00       215.35
 1151.95        2978.25           2544          58.00       237.14
 1151.98        2978.50           2548          57.00       232.78
 1152.01        2978.75           2552          52.00       210.99
 1152.04        2979.00           2555          51.00       206.63
 1152.07        2979.25           2559          52.00       210.99
 1152.10        2979.50           2562          54.00       219.71
 1152.13        2979.75           2566          56.00       228.42
 1152.16        2980.00           2569          48.00       193.55
 1152.19        2980.25           2573          60.00       245.86
 1152.22        2980.50           2577          45.00       180.47
 1152.25        2980.75           2580          51.00       206.63
 1152.28        2981.00           2584          51.00       206.63
 1152.31        2981.25           2587          58.00       237.14
 1152.34        2981.50           2591          42.00       167.39
 1152.37        2981.75           2594          49.00       197.91
 1152.40        2982.00           2598          45.00       180.47
 1152.43        2982.25           2601          53.00       215.35
 1152.46        2982.50           2605          46.00       184.83
 1152.50        2982.75           2609          40.00       158.68
 1152.53        2983.00           2612          51.00       206.63
 1152.56        2983.25           2616          55.00       224.06
 1152.59        2983.50           2619          52.00       210.99
 1152.62        2983.75           2623          48.00       193.55
 1152.65        2984.00           2626          46.00       184.83
HS scan finished at 19:12:52
end
