************************************************************
  HS Scan of (1) Internal mercury lamp
************************************************************
Integration time is 0.2294 seconds per sample
dh160918Reading 51.44 .94 3.29pr1000
************************************************************
Dead Time -------------------------  3.4E-08 
Number of Cycles Used -------------  4 
Starting Wavelength (Angstroms) ---  2950 
Final Wavelength (Angstoms) -------  2984 
Wavelength Increment (Angstroms) --  .25 
Filter Wheel #1 Position ---------- (1) Ground quartz diffuser (ND=2.32)
Filter Wheel #2 Position ---------- (1) Neutral Density 0.494



************************************************************
HS scan start time = 02:29:03
Dark Count =  1.3 


Time (GMT)  Wavelength (Ang)  Step Number  Raw Counts  Counts/Second

  149.95        2950.00           2144          56.00       238.45
  150.14        2950.25           2147          56.00       238.45
  150.17        2950.50           2151          64.00       273.32
  150.21        2950.75           2155          64.00       273.32
  150.24        2951.00           2158          51.00       216.65
  150.27        2951.25           2162          56.00       238.45
  150.30        2951.50           2165          62.00       264.61
  150.33        2951.75           2169          58.00       247.17
  150.36        2952.00           2172          58.00       247.17
  150.39        2952.25           2176          59.00       251.53
  150.42        2952.50           2179          59.00       251.53
  150.45        2952.75           2183          52.00       221.01
  150.48        2953.00           2186          67.00       286.40
  150.51        2953.25           2190          54.00       229.73
  150.54        2953.50           2193          57.00       242.81
  150.57        2953.75           2197          65.00       277.68
  150.60        2954.00           2200          61.00       260.25
  150.63        2954.25           2204          63.00       268.97
  150.66        2954.50           2208          67.00       286.40
  150.69        2954.75           2211          63.00       268.97
  150.73        2955.00           2215          61.00       260.25
  150.76        2955.25           2218          62.00       264.61
  150.79        2955.50           2222          56.00       238.45
  150.82        2955.75           2225          65.00       277.68
  150.85        2956.00           2229          65.00       277.68
  150.88        2956.25           2232          63.00       268.97
  150.91        2956.50           2236          55.00       234.09
  150.94        2956.75           2239          57.00       242.81
  150.97        2957.00           2243          62.00       264.61
  151.00        2957.25           2246          60.00       255.89
  151.03        2957.50           2250          67.00       286.40
  151.06        2957.75           2254          70.00       299.48
  151.09        2958.00           2257          64.00       273.32
  151.12        2958.25           2261          68.00       290.76
  151.15        2958.50           2264          68.00       290.76
  151.18        2958.75           2268          65.00       277.68
  151.21        2959.00           2271          69.00       295.12
  151.25        2959.25           2275          67.00       286.40
  151.28        2959.50           2278          73.00       312.56
  151.31        2959.75           2282          73.00       312.56
  151.34        2960.00           2285          79.00       338.71
  151.37        2960.25           2289          73.00       312.56
  151.40        2960.50           2293          80.00       343.07
  151.43        2960.75           2296          78.00       334.35
  151.46        2961.00           2300         102.00       438.98
  151.49        2961.25           2303         188.00       813.88
  151.52        2961.50           2307         633.00      2753.96
  151.55        2961.75           2310        1203.00      5239.38
  151.58        2962.00           2314        2060.00      8977.02
  151.61        2962.25           2317        2887.00     12584.72
  151.64        2962.50           2321        3756.00     16376.60
  151.67        2962.75           2324        4441.00     19366.28
  151.70        2963.00           2328        5307.00     23146.81
  151.73        2963.25           2331        6264.00     27325.73
  151.77        2963.50           2335        7373.00     32169.87
  151.80        2963.75           2339        8867.00     38698.23
  151.83        2964.00           2342        9554.00     41701.20
  151.86        2964.25           2346       10276.00     44857.82
  151.89        2964.50           2349       10900.00     47586.53
  151.92        2964.75           2353       11875.00     51851.14
  151.95        2965.00           2356       12505.00     54607.40
  151.98        2965.25           2360       14993.00     65497.49
  152.01        2965.50           2363       15283.00     66767.36
  152.04        2965.75           2367       15888.00     69416.91
  152.07        2966.00           2370       16493.00     72066.96
  152.10        2966.25           2374       17302.00     75611.31
  152.13        2966.50           2378       17691.00     77315.87
  152.16        2966.75           2381       18171.00     79419.49
  152.19        2967.00           2385       17936.00     78389.56
  152.22        2967.25           2388       17630.00     77048.57
  152.25        2967.50           2392       19002.00     83062.06
  152.29        2967.75           2395       17995.00     78648.13
  152.32        2968.00           2399       17711.00     77403.53
  152.35        2968.25           2402       16939.00     74020.84
  152.38        2968.50           2406       15795.00     69009.60
  152.41        2968.75           2409       14927.00     65208.50
  152.44        2969.00           2413       13694.00     59810.70
  152.47        2969.25           2417       12362.00     53981.73
  152.50        2969.50           2420       11513.00     50267.62
  152.53        2969.75           2424       10609.00     46313.94
  152.56        2970.00           2427       10160.00     44350.62
  152.59        2970.25           2431        9678.00     42243.28
  152.62        2970.50           2434        8555.00     37334.63
  152.65        2970.75           2438        7257.00     31663.10
  152.68        2971.00           2441        6341.00     27662.01
  152.71        2971.25           2445        5244.00     22871.75
  152.74        2971.50           2449        4412.00     19239.70
  152.77        2971.75           2452        3542.00     15442.72
  152.81        2972.00           2456        2510.00     10939.99
  152.84        2972.25           2459        1799.00      7838.62
  152.87        2972.50           2463         918.00      3996.62
  152.90        2972.75           2466         439.00      1908.14
  152.93        2973.00           2470         156.00       674.38
  152.96        2973.25           2473         116.00       500.01
  152.99        2973.50           2477          75.00       321.28
  153.02        2973.75           2481          75.00       321.28
  153.05        2974.00           2484          80.00       343.07
  153.08        2974.25           2488          72.00       308.20
  153.11        2974.50           2491          77.00       329.99
  153.14        2974.75           2495          71.00       303.84
  153.17        2975.00           2498          72.00       308.20
  153.20        2975.25           2502          74.00       316.92
  153.23        2975.50           2505          70.00       299.48
  153.26        2975.75           2509          72.00       308.20
  153.29        2976.00           2512          75.00       321.28
  153.33        2976.25           2516          71.00       303.84
  153.36        2976.50           2520          65.00       277.68
  153.39        2976.75           2523          65.00       277.68
  153.42        2977.00           2527          68.00       290.76
  153.45        2977.25           2530          62.00       264.61
  153.48        2977.50           2534          70.00       299.48
  153.51        2977.75           2537          67.00       286.40
  153.54        2978.00           2541          68.00       290.76
  153.57        2978.25           2544          56.00       238.45
  153.60        2978.50           2548          65.00       277.68
  153.63        2978.75           2552          61.00       260.25
  153.66        2979.00           2555          60.00       255.89
  153.69        2979.25           2559          57.00       242.81
  153.72        2979.50           2562          57.00       242.81
  153.75        2979.75           2566          59.00       251.53
  153.78        2980.00           2569          54.00       229.73
  153.81        2980.25           2573          62.00       264.61
  153.85        2980.50           2577          56.00       238.45
  153.88        2980.75           2580          57.00       242.81
  153.91        2981.00           2584          60.00       255.89
  153.94        2981.25           2587          56.00       238.45
  153.97        2981.50           2591          56.00       238.45
  154.00        2981.75           2594          55.00       234.09
  154.03        2982.00           2598          58.00       247.17
  154.06        2982.25           2601          62.00       264.61
  154.09        2982.50           2605          56.00       238.45
  154.12        2982.75           2609          54.00       229.73
  154.15        2983.00           2612          54.00       229.73
  154.18        2983.25           2616          51.00       216.65
  154.21        2983.50           2619          49.00       207.94
  154.24        2983.75           2623          54.00       229.73
  154.27        2984.00           2626          55.00       234.09
HS scan finished at 02:34:30
end
************************************************************
  HS Scan of (1) Internal mercury lamp
************************************************************
Integration time is 0.2294 seconds per sample
dh160918Reading 51.44 .94 3.76pr1000
************************************************************
Dead Time -------------------------  3.4E-08 
Number of Cycles Used -------------  4 
Starting Wavelength (Angstroms) ---  2950 
Final Wavelength (Angstoms) -------  2984 
Wavelength Increment (Angstroms) --  .25 
Filter Wheel #1 Position ---------- (1) Ground quartz diffuser (ND=2.32)
Filter Wheel #2 Position ---------- (1) Neutral Density 0.494



************************************************************
HS scan start time = 19:10:02
Dark Count =  5.4 


Time (GMT)  Wavelength (Ang)  Step Number  Raw Counts  Counts/Second

 1150.93        2950.00           2144          59.00       233.65
 1151.12        2950.25           2147          67.00       268.53
 1151.15        2950.50           2151          62.00       246.73
 1151.18        2950.75           2155          62.00       246.73
 1151.21        2951.00           2158          63.00       251.09
 1151.24        2951.25           2162          69.00       277.25
 1151.27        2951.50           2165          57.00       224.94
 1151.30        2951.75           2169          55.00       216.22
 1151.33        2952.00           2172          59.00       233.65
 1151.36        2952.25           2176          63.00       251.09
 1151.39        2952.50           2179          62.00       246.73
 1151.43        2952.75           2183          56.00       220.58
 1151.46        2953.00           2186          56.00       220.58
 1151.49        2953.25           2190          59.00       233.65
 1151.52        2953.50           2193          62.00       246.73
 1151.55        2953.75           2197          68.00       272.89
 1151.58        2954.00           2200          59.00       233.65
 1151.61        2954.25           2204          68.00       272.89
 1151.64        2954.50           2208          71.00       285.97
 1151.67        2954.75           2211          72.00       290.33
 1151.70        2955.00           2215          67.00       268.53
 1151.73        2955.25           2218          70.00       281.61
 1151.76        2955.50           2222          64.00       255.45
 1151.79        2955.75           2225          68.00       272.89
 1151.82        2956.00           2229          63.00       251.09
 1151.85        2956.25           2232          61.00       242.37
 1151.88        2956.50           2236          72.00       290.33
 1151.91        2956.75           2239          71.00       285.97
 1151.95        2957.00           2243          68.00       272.89
 1151.98        2957.25           2246          68.00       272.89
 1152.01        2957.50           2250          70.00       281.61
 1152.04        2957.75           2254          70.00       281.61
 1152.07        2958.00           2257          73.00       294.68
 1152.10        2958.25           2261          80.00       325.20
 1152.13        2958.50           2264          78.00       316.48
 1152.16        2958.75           2268          76.00       307.76
 1152.19        2959.00           2271          71.00       285.97
 1152.22        2959.25           2275          82.00       333.92
 1152.25        2959.50           2278          72.00       290.33
 1152.28        2959.75           2282          76.00       307.76
 1152.31        2960.00           2285          81.00       329.56
 1152.34        2960.25           2289          85.00       347.00
 1152.37        2960.50           2293          87.00       355.71
 1152.40        2960.75           2296          86.00       351.36
 1152.43        2961.00           2300         121.00       503.93
 1152.46        2961.25           2303         149.00       625.99
 1152.50        2961.50           2307         558.00      2409.09
 1152.53        2961.75           2310        1213.00      5265.11
 1152.56        2962.00           2314        2354.00     10241.58
 1152.59        2962.25           2317        3146.00     13696.87
 1152.62        2962.50           2321        4304.00     18750.40
 1152.65        2962.75           2324        5229.00     22788.36
 1152.68        2963.00           2328        6447.00     28107.06
 1152.71        2963.25           2331        7342.00     32016.52
 1152.74        2963.50           2335        8595.00     37491.53
 1152.77        2963.75           2339        9991.00     43593.78
 1152.80        2964.00           2342       10932.00     47708.54
 1152.83        2964.25           2346       12074.00     52703.77
 1152.86        2964.50           2349       12976.00     56650.43
 1152.89        2964.75           2353       14903.00     65085.46
 1152.92        2965.00           2356       15861.00     69280.70
 1152.95        2965.25           2360       17137.00     74870.38
 1152.98        2965.50           2363       18155.00     79331.38
 1153.02        2965.75           2367       19236.00     84069.96
 1153.05        2966.00           2370       20240.00     88472.35
 1153.08        2966.25           2374       21232.00     92823.44
 1153.11        2966.50           2378       21876.00     95648.83
 1153.14        2966.75           2381       22174.00     96956.41
 1153.17        2967.00           2385       22118.00     96710.69
 1153.20        2967.25           2388       22181.00     96987.12
 1153.23        2967.50           2392       22211.00     97118.77
 1153.26        2967.75           2395       22066.00     96482.50
 1153.29        2968.00           2399       21725.00     94986.31
 1153.32        2968.25           2402       21265.00     92968.21
 1153.35        2968.50           2406       20055.00     87661.05
 1153.38        2968.75           2409       19222.00     84008.58
 1153.41        2969.00           2413       17701.00     77341.74
 1153.44        2969.25           2417       16325.00     71313.06
 1153.47        2969.50           2420       15327.00     66942.07
 1153.50        2969.75           2424       13818.00     60335.50
 1153.54        2970.00           2427       12832.00     56020.29
 1153.57        2970.25           2431       11621.00     50722.10
 1153.60        2970.50           2434       10687.00     46637.10
 1153.63        2970.75           2438        9313.00     40629.76
 1153.66        2971.00           2441        8302.00     36211.08
 1153.69        2971.25           2445        6973.00     30404.56
 1153.72        2971.50           2449        5807.00     25312.10
 1153.75        2971.75           2452        4864.00     21194.87
 1153.78        2972.00           2456        3735.00     16267.06
 1153.81        2972.25           2459        2794.00     12161.09
 1153.84        2972.50           2463        1456.00      6324.81
 1153.87        2972.75           2466         772.00      3342.14
 1153.90        2973.00           2470         227.00       966.03
 1153.93        2973.25           2473         134.00       560.60
 1153.96        2973.50           2477         120.00       499.57
 1153.99        2973.75           2481         100.00       412.39
 1154.02        2974.00           2484          94.00       386.23
 1154.06        2974.25           2488          88.00       360.07
 1154.09        2974.50           2491          77.00       312.12
 1154.12        2974.75           2495          86.00       351.36
 1154.15        2975.00           2498         101.00       416.75
 1154.18        2975.25           2502          77.00       312.12
 1154.21        2975.50           2505          73.00       294.68
 1154.24        2975.75           2509          84.00       342.64
 1154.27        2976.00           2512          78.00       316.48
 1154.30        2976.25           2516          78.00       316.48
 1154.33        2976.50           2520          71.00       285.97
 1154.36        2976.75           2523          76.00       307.76
 1154.40        2977.00           2527          68.00       272.89
 1154.43        2977.25           2530          71.00       285.97
 1154.46        2977.50           2534          83.00       338.28
 1154.49        2977.75           2537          79.00       320.84
 1154.52        2978.00           2541          76.00       307.76
 1154.55        2978.25           2544          74.00       299.04
 1154.58        2978.50           2548          62.00       246.73
 1154.61        2978.75           2552          73.00       294.68
 1154.64        2979.00           2555          61.00       242.37
 1154.67        2979.25           2559          73.00       294.68
 1154.70        2979.50           2562          63.00       251.09
 1154.73        2979.75           2566          63.00       251.09
 1154.77        2980.00           2569          68.00       272.89
 1154.80        2980.25           2573          65.00       259.81
 1154.83        2980.50           2577          64.00       255.45
 1154.86        2980.75           2580          69.00       277.25
 1154.89        2981.00           2584          63.00       251.09
 1154.92        2981.25           2587          58.00       229.30
 1154.95        2981.50           2591          61.00       242.37
 1154.98        2981.75           2594          61.00       242.37
 1155.01        2982.00           2598          63.00       251.09
 1155.04        2982.25           2601          68.00       272.89
 1155.07        2982.50           2605          67.00       268.53
 1155.10        2982.75           2609          66.00       264.17
 1155.13        2983.00           2612          65.00       259.81
 1155.16        2983.25           2616          64.00       255.45
 1155.19        2983.50           2619          60.00       238.01
 1155.22        2983.75           2623          60.00       238.01
 1155.25        2984.00           2626          58.00       229.30
HS scan finished at 19:15:29
end
