************************************************************
  HS Scan of (1) Internal mercury lamp
************************************************************
Integration time is 0.2294 seconds per sample
dh140918Reading 51.44 .94 3.09pr1000
************************************************************
Dead Time -------------------------  3.4E-08 
Number of Cycles Used -------------  4 
Starting Wavelength (Angstroms) ---  2950 
Final Wavelength (Angstoms) -------  2984 
Wavelength Increment (Angstroms) --  .25 
Filter Wheel #1 Position ---------- (1) Ground quartz diffuser (ND=2.32)
Filter Wheel #2 Position ---------- (1) Neutral Density 0.494



************************************************************
HS scan start time = 02:21:35
Dark Count =  1.1 


Time (GMT)  Wavelength (Ang)  Step Number  Raw Counts  Counts/Second

  142.48        2950.00           2144          52.00       221.88
  142.67        2950.25           2147          58.00       248.04
  142.70        2950.50           2151          56.00       239.32
  142.73        2950.75           2155          62.00       265.48
  142.77        2951.00           2158          62.00       265.48
  142.80        2951.25           2162          60.00       256.76
  142.83        2951.50           2165          63.00       269.84
  142.86        2951.75           2169          64.00       274.20
  142.90        2952.00           2172          58.00       248.04
  142.93        2952.25           2176          58.00       248.04
  142.96        2952.50           2179          67.00       287.27
  142.99        2952.75           2183          57.00       243.68
  143.03        2953.00           2186          62.00       265.48
  143.06        2953.25           2190          60.00       256.76
  143.09        2953.50           2193          59.00       252.40
  143.12        2953.75           2197          60.00       256.76
  143.15        2954.00           2200          58.00       248.04
  143.18        2954.25           2204          56.00       239.32
  143.21        2954.50           2208          65.00       278.56
  143.24        2954.75           2211          66.00       282.91
  143.27        2955.00           2215          63.00       269.84
  143.30        2955.25           2218          70.00       300.35
  143.33        2955.50           2222          58.00       248.04
  143.36        2955.75           2225          66.00       282.91
  143.39        2956.00           2229          63.00       269.84
  143.42        2956.25           2232          63.00       269.84
  143.46        2956.50           2236          64.00       274.20
  143.50        2956.75           2239          64.00       274.20
  143.53        2957.00           2243          66.00       282.91
  143.56        2957.25           2246          70.00       300.35
  143.59        2957.50           2250          60.00       256.76
  143.62        2957.75           2254          65.00       278.56
  143.65        2958.00           2257          78.00       335.23
  143.68        2958.25           2261          68.00       291.63
  143.71        2958.50           2264          84.00       361.38
  143.74        2958.75           2268          74.00       317.79
  143.77        2959.00           2271          68.00       291.63
  143.80        2959.25           2275          76.00       326.51
  143.84        2959.50           2278          76.00       326.51
  143.87        2959.75           2282          79.00       339.59
  143.90        2960.00           2285          72.00       309.07
  143.93        2960.25           2289          74.00       317.79
  143.96        2960.50           2293          80.00       343.94
  143.99        2960.75           2296          85.00       365.74
  144.02        2961.00           2300         121.00       522.68
  144.05        2961.25           2303         200.00       867.07
  144.08        2961.50           2307         723.00      3147.24
  144.11        2961.75           2310        1381.00      6016.49
  144.14        2962.00           2314        2398.00     10452.28
  144.17        2962.25           2317        3030.00     13209.51
  144.20        2962.50           2321        3988.00     17389.96
  144.23        2962.75           2324        4851.00     21156.89
  144.26        2963.00           2328        5972.00     26051.40
  144.29        2963.25           2331        6817.00     29741.92
  144.32        2963.50           2335        7803.00     34049.42
  144.36        2963.75           2339        9403.00     41041.98
  144.39        2964.00           2342       10068.00     43949.24
  144.42        2964.25           2346       10803.00     47163.19
  144.45        2964.50           2349       12684.00     55391.49
  144.48        2964.75           2353       13347.00     58292.84
  144.51        2965.00           2356       13421.00     58616.71
  144.54        2965.25           2360       14609.00     63817.05
  144.57        2965.50           2363       15454.00     67517.06
  144.60        2965.75           2367       16345.00     71419.51
  144.63        2966.00           2370       17343.00     75791.85
  144.66        2966.25           2374       18531.00     80998.27
  144.69        2966.50           2378       18689.00     81690.85
  144.72        2966.75           2381       18760.00     82002.07
  144.75        2967.00           2385       19072.00     83369.81
  144.78        2967.25           2388       19116.00     83562.71
  144.81        2967.50           2392       19028.00     83176.93
  144.84        2967.75           2395       18682.00     81660.16
  144.88        2968.00           2399       18052.00     78898.82
  144.91        2968.25           2402       17295.00     75581.53
  144.94        2968.50           2406       16143.00     70534.70
  144.97        2968.75           2409       15310.00     66886.47
  145.00        2969.00           2413       20772.00     90824.50
  145.03        2969.25           2417       15602.00     68165.21
  145.06        2969.50           2420       14466.00     63190.98
  145.09        2969.75           2424       13242.00     57833.32
  145.12        2970.00           2427       12175.00     53164.46
  145.15        2970.25           2431       10768.00     47010.14
  145.18        2970.50           2434        9890.00     43171.00
  145.21        2970.75           2438        8602.00     37540.92
  145.24        2971.00           2441        7614.00     33223.65
  145.27        2971.25           2445        6479.00     28265.60
  145.30        2971.50           2449        5221.00     22772.20
  145.33        2971.75           2452        4230.00     18446.18
  145.36        2972.00           2456        2886.00     12581.23
  145.40        2972.25           2459        2109.00      9191.63
  145.43        2972.50           2463        1014.00      4416.09
  145.46        2972.75           2466         536.00      2331.92
  145.49        2973.00           2470         176.00       762.44
  145.52        2973.25           2473         106.00       457.29
  145.55        2973.50           2477          98.00       422.41
  145.58        2973.75           2481          82.00       352.66
  145.61        2974.00           2484          88.00       378.82
  145.64        2974.25           2488          85.00       365.74
  145.67        2974.50           2491          79.00       339.59
  145.70        2974.75           2495          79.00       339.59
  145.73        2975.00           2498          84.00       361.38
  145.76        2975.25           2502          83.00       357.02
  145.79        2975.50           2505          84.00       361.38
  145.82        2975.75           2509          74.00       317.79
  145.85        2976.00           2512          72.00       309.07
  145.88        2976.25           2516          73.00       313.43
  145.92        2976.50           2520          80.00       343.94
  145.95        2976.75           2523          71.00       304.71
  145.99        2977.00           2527          71.00       304.71
  146.02        2977.25           2530          67.00       287.27
  146.05        2977.50           2534          64.00       274.20
  146.08        2977.75           2537          66.00       282.91
  146.11        2978.00           2541          70.00       300.35
  146.14        2978.25           2544          68.00       291.63
  146.17        2978.50           2548          64.00       274.20
  146.20        2978.75           2552          63.00       269.84
  146.23        2979.00           2555          63.00       269.84
  146.26        2979.25           2559          60.00       256.76
  146.29        2979.50           2562          56.00       239.32
  146.32        2979.75           2566          66.00       282.91
  146.35        2980.00           2569          60.00       256.76
  146.38        2980.25           2573          67.00       287.27
  146.41        2980.50           2577          62.00       265.48
  146.44        2980.75           2580          53.00       226.24
  146.47        2981.00           2584          61.00       261.12
  146.51        2981.25           2587          63.00       269.84
  146.54        2981.50           2591          62.00       265.48
  146.57        2981.75           2594          54.00       230.60
  146.60        2982.00           2598          59.00       252.40
  146.63        2982.25           2601          67.00       287.27
  146.66        2982.50           2605          64.00       274.20
  146.69        2982.75           2609          56.00       239.32
  146.72        2983.00           2612          62.00       265.48
  146.75        2983.25           2616          62.00       265.48
  146.78        2983.50           2619          59.00       252.40
  146.81        2983.75           2623          63.00       269.84
  146.84        2984.00           2626          58.00       248.04
HS scan finished at 02:27:04
end
************************************************************
  HS Scan of (1) Internal mercury lamp
************************************************************
Integration time is 0.2294 seconds per sample
dh140918Reading 51.44 .94 3.47pr1000
************************************************************
Dead Time -------------------------  3.4E-08 
Number of Cycles Used -------------  4 
Starting Wavelength (Angstroms) ---  2950 
Final Wavelength (Angstoms) -------  2984 
Wavelength Increment (Angstroms) --  .25 
Filter Wheel #1 Position ---------- (1) Ground quartz diffuser (ND=2.32)
Filter Wheel #2 Position ---------- (1) Neutral Density 0.494



************************************************************
HS scan start time = 19:07:23
Dark Count =  2.3 


Time (GMT)  Wavelength (Ang)  Step Number  Raw Counts  Counts/Second

 1148.28        2950.00           2144          87.00       369.23
 1148.48        2950.25           2147          61.00       255.89
 1148.51        2950.50           2151          55.00       229.73
 1148.54        2950.75           2155          63.00       264.61
 1148.57        2951.00           2158          61.00       255.89
 1148.60        2951.25           2162          62.00       260.25
 1148.63        2951.50           2165          60.00       251.53
 1148.66        2951.75           2169          59.00       247.17
 1148.69        2952.00           2172          65.00       273.32
 1148.72        2952.25           2176          60.00       251.53
 1148.75        2952.50           2179          61.00       255.89
 1148.78        2952.75           2183          61.00       255.89
 1148.81        2953.00           2186          68.00       286.40
 1148.84        2953.25           2190          72.00       303.84
 1148.87        2953.50           2193          59.00       247.17
 1148.90        2953.75           2197          63.00       264.61
 1148.93        2954.00           2200          63.00       264.61
 1148.96        2954.25           2204          63.00       264.61
 1149.00        2954.50           2208          64.00       268.96
 1149.03        2954.75           2211          73.00       308.20
 1149.06        2955.00           2215          61.00       255.89
 1149.09        2955.25           2218          63.00       264.61
 1149.12        2955.50           2222          64.00       268.96
 1149.15        2955.75           2225          55.00       229.73
 1149.18        2956.00           2229          60.00       251.53
 1149.21        2956.25           2232          64.00       268.96
 1149.24        2956.50           2236          69.00       290.76
 1149.27        2956.75           2239          57.00       238.45
 1149.30        2957.00           2243          61.00       255.89
 1149.33        2957.25           2246          69.00       290.76
 1149.36        2957.50           2250          66.00       277.68
 1149.39        2957.75           2254          59.00       247.17
 1149.42        2958.00           2257          74.00       312.56
 1149.45        2958.25           2261          72.00       303.84
 1149.48        2958.50           2264          70.00       295.12
 1149.52        2958.75           2268          72.00       303.84
 1149.55        2959.00           2271          71.00       299.48
 1149.58        2959.25           2275          73.00       308.20
 1149.61        2959.50           2278          74.00       312.56
 1149.64        2959.75           2282          78.00       329.99
 1149.67        2960.00           2285          76.00       321.28
 1149.70        2960.25           2289          84.00       356.15
 1149.73        2960.50           2293          96.00       408.46
 1149.76        2960.75           2296          92.00       391.03
 1149.79        2961.00           2300         154.00       661.31
 1149.82        2961.25           2303         328.00      1419.86
 1149.85        2961.50           2307        1041.00      4528.60
 1149.88        2961.75           2310        1742.00      7585.65
 1149.91        2962.00           2314        2743.00     11952.11
 1149.94        2962.25           2317        3536.00     15412.17
 1149.97        2962.50           2321        4648.00     20265.49
 1150.00        2962.75           2324        5522.00     24081.18
 1150.04        2963.00           2328        6741.00     29404.71
 1150.07        2963.25           2331        7498.00     32711.60
 1150.10        2963.50           2335        8624.00     37631.82
 1150.13        2963.75           2339        9936.00     43366.86
 1150.16        2964.00           2342       10653.00     46501.98
 1150.19        2964.25           2346       11571.00     50516.95
 1150.22        2964.50           2349       12270.00     53574.84
 1150.25        2964.75           2353       13365.00     58366.37
 1150.28        2965.00           2356       13364.00     58361.99
 1150.31        2965.25           2360       15175.00     66290.05
 1150.34        2965.50           2363       15945.00     69662.19
 1150.37        2965.75           2367       16962.00     74117.23
 1150.40        2966.00           2370       17773.00     77670.85
 1150.43        2966.25           2374       18387.00     80361.83
 1150.46        2966.50           2378       18672.00     81611.06
 1150.49        2966.75           2381       19438.00     84969.18
 1150.52        2967.00           2385       19209.00     83965.16
 1150.56        2967.25           2388       19418.00     84881.49
 1150.59        2967.50           2392       18951.00     82834.10
 1150.62        2967.75           2395       18595.00     81273.53
 1150.65        2968.00           2399       18000.00     78665.65
 1150.68        2968.25           2402       17202.00     75168.76
 1150.71        2968.50           2406       15656.00     68396.45
 1150.74        2968.75           2409       14760.00     64472.92
 1150.77        2969.00           2413       13778.00     60173.99
 1150.80        2969.25           2417       13868.00     60567.94
 1150.83        2969.50           2420       12913.00     56388.30
 1150.86        2969.75           2424       11391.00     49729.62
 1150.89        2970.00           2427       11051.00     48242.54
 1150.92        2970.25           2431        9755.00     42575.54
 1150.95        2970.50           2434        8652.00     37754.19
 1150.98        2970.75           2438        7201.00     31414.10
 1151.01        2971.00           2441        6365.00     27762.46
 1151.04        2971.25           2445        5322.00     23207.93
 1151.08        2971.50           2449        4196.00     18292.54
 1151.11        2971.75           2452        3418.00     14897.26
 1151.14        2972.00           2456        2352.00     10246.38
 1151.17        2972.25           2459        1647.00      7171.32
 1151.20        2972.50           2463         786.00      3416.70
 1151.23        2972.75           2466         370.00      1602.96
 1151.26        2973.00           2470         147.00       630.79
 1151.29        2973.25           2473         106.00       452.06
 1151.32        2973.50           2477          82.00       347.43
 1151.35        2973.75           2481          81.00       343.07
 1151.38        2974.00           2484          79.00       334.35
 1151.41        2974.25           2488          89.00       377.95
 1151.44        2974.50           2491          80.00       338.71
 1151.47        2974.75           2495          72.00       303.84
 1151.50        2975.00           2498          76.00       321.28
 1151.53        2975.25           2502          74.00       312.56
 1151.56        2975.50           2505          71.00       299.48
 1151.60        2975.75           2509          72.00       303.84
 1151.63        2976.00           2512          72.00       303.84
 1151.66        2976.25           2516          70.00       295.12
 1151.69        2976.50           2520          68.00       286.40
 1151.72        2976.75           2523          68.00       286.40
 1151.75        2977.00           2527          66.00       277.68
 1151.78        2977.25           2530          70.00       295.12
 1151.81        2977.50           2534          67.00       282.04
 1151.84        2977.75           2537          68.00       286.40
 1151.87        2978.00           2541          67.00       282.04
 1151.90        2978.25           2544          58.00       242.81
 1151.93        2978.50           2548          65.00       273.32
 1151.96        2978.75           2552          64.00       268.96
 1151.99        2979.00           2555          62.00       260.25
 1152.02        2979.25           2559          56.00       234.09
 1152.05        2979.50           2562          54.00       225.37
 1152.08        2979.75           2566          62.00       260.25
 1152.11        2980.00           2569          59.00       247.17
 1152.15        2980.25           2573          60.00       251.53
 1152.18        2980.50           2577          65.00       273.32
 1152.21        2980.75           2580          60.00       251.53
 1152.24        2981.00           2584          57.00       238.45
 1152.27        2981.25           2587          58.00       242.81
 1152.30        2981.50           2591          59.00       247.17
 1152.33        2981.75           2594          58.00       242.81
 1152.36        2982.00           2598          62.00       260.25
 1152.39        2982.25           2601          63.00       264.61
 1152.42        2982.50           2605          50.00       207.94
 1152.45        2982.75           2609          57.00       238.45
 1152.48        2983.00           2612          60.00       251.53
 1152.51        2983.25           2616          62.00       260.25
 1152.54        2983.50           2619          57.00       238.45
 1152.57        2983.75           2623          52.00       216.65
 1152.60        2984.00           2626          50.00       207.94
HS scan finished at 19:12:50
end
