************************************************************
  HS Scan of (1) Internal mercury lamp
************************************************************
Integration time is 0.2294 seconds per sample
dh080917Reading 51.44 .94 3.39pr1000
************************************************************
Dead Time -------------------------  3.4E-08 
Number of Cycles Used -------------  4 
Starting Wavelength (Angstroms) ---  2950 
Final Wavelength (Angstoms) -------  2984 
Wavelength Increment (Angstroms) --  .25 
Filter Wheel #1 Position ---------- (1) Ground quartz diffuser (ND=2.32)
Filter Wheel #2 Position ---------- (1) Neutral Density 0.494



************************************************************
HS scan start time = 01:55:55
Dark Count =  2.4 


Time (GMT)  Wavelength (Ang)  Step Number  Raw Counts  Counts/Second

  116.82        2950.00           2144          97.00       412.39
  117.01        2950.25           2147          92.00       390.59
  117.04        2950.50           2151         125.00       534.45
  117.07        2950.75           2155         115.00       490.85
  117.10        2951.00           2158          97.00       412.39
  117.13        2951.25           2162         101.00       429.82
  117.16        2951.50           2165         101.00       429.82
  117.19        2951.75           2169          96.00       408.03
  117.22        2952.00           2172         100.00       425.46
  117.25        2952.25           2176         106.00       451.62
  117.29        2952.50           2179          96.00       408.03
  117.32        2952.75           2183         102.00       434.18
  117.35        2953.00           2186         105.00       447.26
  117.38        2953.25           2190          97.00       412.39
  117.41        2953.50           2193          97.00       412.39
  117.44        2953.75           2197         102.00       434.18
  117.47        2954.00           2200         105.00       447.26
  117.50        2954.25           2204         110.00       469.06
  117.53        2954.50           2208         100.00       425.46
  117.56        2954.75           2211         111.00       473.42
  117.59        2955.00           2215         124.00       530.09
  117.62        2955.25           2218         127.00       543.17
  117.65        2955.50           2222         106.00       451.62
  117.68        2955.75           2225         109.00       464.70
  117.71        2956.00           2229         159.00       682.67
  117.74        2956.25           2232         102.00       434.18
  117.77        2956.50           2236         119.00       508.29
  117.81        2956.75           2239         115.00       490.85
  117.84        2957.00           2243         124.00       530.09
  117.87        2957.25           2246         144.00       617.28
  117.90        2957.50           2250         111.00       473.42
  117.93        2957.75           2254         131.00       560.60
  117.96        2958.00           2257         150.00       643.43
  117.99        2958.25           2261         114.00       486.49
  118.02        2958.50           2264         125.00       534.45
  118.05        2958.75           2268         142.00       608.56
  118.08        2959.00           2271         134.00       573.68
  118.11        2959.25           2275         127.00       543.17
  118.14        2959.50           2278         121.00       517.01
  118.17        2959.75           2282         123.00       525.73
  118.20        2960.00           2285         161.00       691.39
  118.23        2960.25           2289         138.00       591.12
  118.26        2960.50           2293         153.00       656.51
  118.29        2960.75           2296         147.00       630.35
  118.33        2961.00           2300         187.00       804.73
  118.36        2961.25           2303         395.00      1711.52
  118.39        2961.50           2307        1492.00      6494.90
  118.42        2961.75           2310        2767.00     12056.38
  118.45        2962.00           2314        4789.00     20880.56
  118.48        2962.25           2317        6285.00     27412.64
  118.51        2962.50           2321        8435.00     36805.40
  118.54        2962.75           2324        9974.00     43532.56
  118.57        2963.00           2328       12366.00     53994.41
  118.60        2963.25           2331       14034.00     61294.12
  118.63        2963.50           2335       16101.00     70345.03
  118.66        2963.75           2339       18339.00     80151.00
  118.69        2964.00           2342       20223.00     88410.97
  118.72        2964.25           2346       22406.00     97987.64
  118.75        2964.50           2349       24175.00    105752.70
  118.78        2964.75           2353       26448.00    115736.10
  118.81        2965.00           2356       28094.00    122969.90
  118.84        2965.25           2360       30326.00    132784.70
  118.88        2965.50           2363       31916.00    139780.40
  118.91        2965.75           2367       34125.00    149505.20
  118.94        2966.00           2370       35720.00    156531.00
  118.97        2966.25           2374       37078.00    162515.40
  119.00        2966.50           2378       38412.00    168396.50
  119.03        2966.75           2381       38591.00    169185.80
  119.06        2967.00           2385       38543.00    168974.10
  119.09        2967.25           2388       38504.00    168802.10
  119.12        2967.50           2392       38328.00    168026.10
  119.15        2967.75           2395       38082.00    166941.40
  119.18        2968.00           2399       36577.00    160307.30
  119.21        2968.25           2402       35226.00    154354.60
  119.24        2968.50           2406       32923.00    144212.80
  119.27        2968.75           2409       31621.00    138482.20
  119.30        2969.00           2413       29336.00    128430.60
  119.33        2969.25           2417       27279.00    119387.70
  119.36        2969.50           2420       25641.00    112190.90
  119.40        2969.75           2424       23537.00    102951.70
  119.43        2970.00           2427       21613.00     94508.07
  119.46        2970.25           2431       19775.00     86446.39
  119.49        2970.50           2434       17841.00     77968.40
  119.52        2970.75           2438       15567.00     68006.24
  119.55        2971.00           2441       13973.00     61027.11
  119.58        2971.25           2445       11818.00     51596.98
  119.61        2971.50           2449        9798.00     42763.09
  119.64        2971.75           2452        8169.00     35643.00
  119.67        2972.00           2456        5984.00     26098.13
  119.70        2972.25           2459        4150.00     18091.33
  119.73        2972.50           2463        2204.00      9600.35
  119.76        2972.75           2466        1166.00      5073.24
  119.79        2973.00           2470         403.00      1746.40
  119.82        2973.25           2473         198.00       852.68
  119.85        2973.50           2477         162.00       695.74
  119.88        2973.75           2481         159.00       682.67
  119.92        2974.00           2484         152.00       652.15
  119.95        2974.25           2488         142.00       608.56
  119.98        2974.50           2491         158.00       678.31
  120.01        2974.75           2495         169.00       726.26
  120.04        2975.00           2498         142.00       608.56
  120.07        2975.25           2502         147.00       630.35
  120.10        2975.50           2505         141.00       604.20
  120.13        2975.75           2509         133.00       569.32
  120.16        2976.00           2512         154.00       660.87
  120.19        2976.25           2516         156.00       669.59
  120.22        2976.50           2520         129.00       551.88
  120.25        2976.75           2523         119.00       508.29
  120.28        2977.00           2527         173.00       743.70
  120.31        2977.25           2530         140.00       599.84
  120.34        2977.50           2534         124.00       530.09
  120.37        2977.75           2537         111.00       473.42
  120.40        2978.00           2541         115.00       490.85
  120.44        2978.25           2544         109.00       464.70
  120.47        2978.50           2548         153.00       656.51
  120.50        2978.75           2552         158.00       678.31
  120.53        2979.00           2555         130.00       556.24
  120.56        2979.25           2559         104.00       442.90
  120.59        2979.50           2562         110.00       469.06
  120.62        2979.75           2566         128.00       547.53
  120.65        2980.00           2569         124.00       530.09
  120.68        2980.25           2573         104.00       442.90
  120.71        2980.50           2577         130.00       556.24
  120.74        2980.75           2580          99.00       421.10
  120.77        2981.00           2584          99.00       421.10
  120.80        2981.25           2587         101.00       429.82
  120.83        2981.50           2591         102.00       434.18
  120.86        2981.75           2594         104.00       442.90
  120.89        2982.00           2598         104.00       442.90
  120.92        2982.25           2601         112.00       477.78
  120.96        2982.50           2605         110.00       469.06
  120.99        2982.75           2609         110.00       469.06
  121.02        2983.00           2612         107.00       455.98
  121.05        2983.25           2616          95.00       403.67
  121.08        2983.50           2619          91.00       386.23
  121.11        2983.75           2623          93.00       394.95
  121.14        2984.00           2626          94.00       399.31
HS scan finished at 02:01:22
end
************************************************************
  HS Scan of (1) Internal mercury lamp
************************************************************
Integration time is 0.2294 seconds per sample
dh080917Reading 51.44 .94 3.5pr1000
************************************************************
Dead Time -------------------------  3.4E-08 
Number of Cycles Used -------------  4 
Starting Wavelength (Angstroms) ---  2950 
Final Wavelength (Angstoms) -------  2984 
Wavelength Increment (Angstroms) --  .25 
Filter Wheel #1 Position ---------- (1) Ground quartz diffuser (ND=2.32)
Filter Wheel #2 Position ---------- (1) Neutral Density 0.494



************************************************************
HS scan start time = 19:37:28
Dark Count =  3.1 


Time (GMT)  Wavelength (Ang)  Step Number  Raw Counts  Counts/Second

 1178.37        2950.00           2144          93.00       391.90
 1178.56        2950.25           2147          94.00       396.26
 1178.59        2950.50           2151          91.00       383.18
 1178.63        2950.75           2155          91.00       383.18
 1178.66        2951.00           2158         104.00       439.85
 1178.69        2951.25           2162         111.00       470.37
 1178.72        2951.50           2165         111.00       470.37
 1178.75        2951.75           2169          98.00       413.69
 1178.78        2952.00           2172          95.00       400.62
 1178.81        2952.25           2176          93.00       391.90
 1178.84        2952.50           2179          93.00       391.90
 1178.87        2952.75           2183         123.00       522.68
 1178.90        2953.00           2186          96.00       404.98
 1178.93        2953.25           2190         100.00       422.41
 1178.96        2953.50           2193          92.00       387.54
 1178.99        2953.75           2197          99.00       418.05
 1179.02        2954.00           2200         112.00       474.72
 1179.05        2954.25           2204         101.00       426.77
 1179.08        2954.50           2208         103.00       435.49
 1179.11        2954.75           2211          94.00       396.26
 1179.15        2955.00           2215         125.00       531.40
 1179.18        2955.25           2218         103.00       435.49
 1179.21        2955.50           2222         111.00       470.37
 1179.24        2955.75           2225         160.00       683.97
 1179.27        2956.00           2229         136.00       579.35
 1179.30        2956.25           2232         106.00       448.57
 1179.33        2956.50           2236         107.00       452.93
 1179.36        2956.75           2239         146.00       622.94
 1179.39        2957.00           2243         126.00       535.76
 1179.42        2957.25           2246         134.00       570.63
 1179.45        2957.50           2250         145.00       618.58
 1179.48        2957.75           2254         116.00       492.16
 1179.51        2958.00           2257         133.00       566.27
 1179.54        2958.25           2261         129.00       548.83
 1179.57        2958.50           2264         132.00       561.91
 1179.60        2958.75           2268         113.00       479.08
 1179.63        2959.00           2271         134.00       570.63
 1179.66        2959.25           2275         116.00       492.16
 1179.70        2959.50           2278         124.00       527.04
 1179.73        2959.75           2282         131.00       557.55
 1179.76        2960.00           2285         133.00       566.27
 1179.79        2960.25           2289         144.00       614.22
 1179.82        2960.50           2293         145.00       618.58
 1179.85        2960.75           2296         150.00       640.38
 1179.88        2961.00           2300         158.00       675.26
 1179.91        2961.25           2303         311.00      1342.26
 1179.94        2961.50           2307        1133.00      4926.28
 1179.97        2961.75           2310        2391.00     10413.01
 1180.00        2962.00           2314        4223.00     18406.90
 1180.03        2962.25           2317        5656.00     24662.78
 1180.06        2962.50           2321        7589.00     33105.68
 1180.09        2962.75           2324        9218.00     40224.55
 1180.12        2963.00           2328       11371.00     49638.64
 1180.15        2963.25           2331       12948.00     56537.96
 1180.18        2963.50           2335       14903.00     65095.53
 1180.22        2963.75           2339       16845.00     73601.13
 1180.25        2964.00           2342       18535.00     81007.03
 1180.28        2964.25           2346       20783.00     90863.99
 1180.31        2964.50           2349       22385.00     97892.41
 1180.34        2964.75           2353       24405.00    106759.50
 1180.37        2965.00           2356       25721.00    112539.20
 1180.41        2965.25           2360       27571.00    120668.00
 1180.44        2965.50           2363       28966.00    126800.50
 1180.47        2965.75           2367       31013.00    135803.90
 1180.50        2966.00           2370       32595.00    142765.90
 1180.53        2966.25           2374       34203.00    149845.60
 1180.56        2966.50           2378       35486.00    155496.90
 1180.59        2966.75           2381       35768.00    156739.40
 1180.62        2967.00           2385       35725.00    156549.90
 1180.66        2967.25           2388       35919.00    157404.70
 1180.69        2967.50           2392       35839.00    157052.20
 1180.72        2967.75           2395       35643.00    156188.60
 1180.75        2968.00           2399       34857.00    152726.10
 1180.78        2968.25           2402       33750.00    147850.80
 1180.81        2968.50           2406       31689.00    138778.40
 1180.84        2968.75           2409       30265.00    132513.30
 1180.87        2969.00           2413       28411.00    124360.40
 1180.90        2969.25           2417       26243.00    114832.40
 1180.93        2969.50           2420       24602.00    107624.60
 1180.96        2969.75           2424       23029.00    100718.80
 1180.99        2970.00           2427       21506.00     94035.57
 1181.02        2970.25           2431       19256.00     84167.72
 1181.05        2970.50           2434       17568.00     76769.00
 1181.08        2970.75           2438       15489.00     67661.59
 1181.12        2971.00           2441       13884.00     60634.47
 1181.15        2971.25           2445       11664.00     50920.26
 1181.18        2971.50           2449        9223.00     40246.41
 1181.21        2971.75           2452        7479.00     32625.10
 1181.24        2972.00           2456        5397.00     23531.90
 1181.27        2972.25           2459        3999.00     17429.25
 1181.30        2972.50           2463        2256.00      9824.12
 1181.33        2972.75           2466        1222.00      5314.39
 1181.36        2973.00           2470         418.00      1808.74
 1181.39        2973.25           2473         184.00       788.60
 1181.42        2973.50           2477         167.00       714.49
 1181.45        2973.75           2481         150.00       640.38
 1181.48        2974.00           2484         147.00       627.30
 1181.51        2974.25           2488         137.00       583.71
 1181.54        2974.50           2491         139.00       592.43
 1181.57        2974.75           2495         144.00       614.22
 1181.60        2975.00           2498         128.00       544.47
 1181.64        2975.25           2502         145.00       618.58
 1181.67        2975.50           2505         162.00       692.69
 1181.70        2975.75           2509         137.00       583.71
 1181.73        2976.00           2512         125.00       531.40
 1181.76        2976.25           2516         134.00       570.63
 1181.79        2976.50           2520         135.00       574.99
 1181.82        2976.75           2523         148.00       631.66
 1181.85        2977.00           2527         129.00       548.83
 1181.88        2977.25           2530         128.00       544.47
 1181.91        2977.50           2534         107.00       452.93
 1181.94        2977.75           2537         108.00       457.29
 1181.97        2978.00           2541         147.00       627.30
 1182.00        2978.25           2544         100.00       422.41
 1182.03        2978.50           2548         106.00       448.57
 1182.06        2978.75           2552         140.00       596.79
 1182.09        2979.00           2555         118.00       500.88
 1182.12        2979.25           2559         107.00       452.93
 1182.16        2979.50           2562         101.00       426.77
 1182.19        2979.75           2566         103.00       435.49
 1182.22        2980.00           2569         134.00       570.63
 1182.25        2980.25           2573          90.00       378.82
 1182.28        2980.50           2577          94.00       396.26
 1182.31        2980.75           2580         116.00       492.16
 1182.34        2981.00           2584          92.00       387.54
 1182.37        2981.25           2587         109.00       461.65
 1182.40        2981.50           2591          90.00       378.82
 1182.43        2981.75           2594         111.00       470.37
 1182.46        2982.00           2598          90.00       378.82
 1182.49        2982.25           2601         101.00       426.77
 1182.52        2982.50           2605         119.00       505.24
 1182.55        2982.75           2609          93.00       391.90
 1182.58        2983.00           2612          95.00       400.62
 1182.61        2983.25           2616          92.00       387.54
 1182.64        2983.50           2619          82.00       343.94
 1182.68        2983.75           2623          86.00       361.38
 1182.71        2984.00           2626          91.00       383.18
HS scan finished at 19:42:56
end
