************************************************************
  HS Scan of (1) Internal mercury lamp
************************************************************
Integration time is 0.2294 seconds per sample
dh230917Reading 51.44 .94 3.29pr1000
************************************************************
Dead Time -------------------------  3.4E-08 
Number of Cycles Used -------------  4 
Starting Wavelength (Angstroms) ---  2950 
Final Wavelength (Angstoms) -------  2984 
Wavelength Increment (Angstroms) --  .25 
Filter Wheel #1 Position ---------- (1) Ground quartz diffuser (ND=2.32)
Filter Wheel #2 Position ---------- (1) Neutral Density 0.494



************************************************************
HS scan start time = 02:52:19
Dark Count =  1.3 


Time (GMT)  Wavelength (Ang)  Step Number  Raw Counts  Counts/Second

  173.21        2950.00           2144         167.00       722.34
  173.40        2950.25           2147         159.00       687.46
  173.43        2950.50           2151         165.00       713.62
  173.47        2950.75           2155         161.00       696.18
  173.50        2951.00           2158         176.00       761.57
  173.53        2951.25           2162         173.00       748.49
  173.56        2951.50           2165         164.00       709.26
  173.59        2951.75           2169         166.00       717.98
  173.62        2952.00           2172         177.00       765.93
  173.65        2952.25           2176         169.00       731.06
  173.68        2952.50           2179         166.00       717.98
  173.71        2952.75           2183         174.00       752.85
  173.74        2953.00           2186         173.00       748.49
  173.77        2953.25           2190         178.00       770.29
  173.80        2953.50           2193         173.00       748.49
  173.83        2953.75           2197         173.00       748.49
  173.86        2954.00           2200         176.00       761.57
  173.89        2954.25           2204         175.00       757.21
  173.92        2954.50           2208         182.00       787.73
  173.96        2954.75           2211         181.00       783.37
  173.99        2955.00           2215         182.00       787.73
  174.02        2955.25           2218         180.00       779.01
  174.05        2955.50           2222         187.00       809.53
  174.08        2955.75           2225         188.00       813.88
  174.11        2956.00           2229         196.00       848.76
  174.14        2956.25           2232         196.00       848.76
  174.17        2956.50           2236         192.00       831.32
  174.20        2956.75           2239         193.00       835.68
  174.23        2957.00           2243         207.00       896.71
  174.26        2957.25           2246         190.00       822.60
  174.29        2957.50           2250         205.00       888.00
  174.32        2957.75           2254         217.00       940.31
  174.35        2958.00           2257         205.00       888.00
  174.38        2958.25           2261         227.00       983.90
  174.41        2958.50           2264         201.00       870.56
  174.44        2958.75           2268         232.00      1005.70
  174.48        2959.00           2271         215.00       931.59
  174.51        2959.25           2275         220.00       953.39
  174.54        2959.50           2278         210.00       909.79
  174.57        2959.75           2282         217.00       940.31
  174.60        2960.00           2285         253.00      1097.25
  174.63        2960.25           2289         237.00      1027.50
  174.66        2960.50           2293         244.00      1058.02
  174.69        2960.75           2296         254.00      1101.61
  174.72        2961.00           2300         347.00      1507.05
  174.75        2961.25           2303         817.00      3556.23
  174.78        2961.50           2307        2753.00     12000.10
  174.81        2961.75           2310        4982.00     21727.91
  174.84        2962.00           2314        8503.00     37107.38
  174.87        2962.25           2317       11094.00     48434.98
  174.90        2962.50           2321       14485.00     63273.29
  174.93        2962.75           2324       17098.00     74717.47
  174.96        2963.00           2328       20851.00     91170.13
  175.00        2963.25           2331       24173.00    105748.80
  175.03        2963.50           2335       28252.00    123669.30
  175.06        2963.75           2339       31684.00    138764.30
  175.09        2964.00           2342       34455.00    150963.40
  175.12        2964.25           2346       38323.00    168008.90
  175.15        2964.50           2349       41359.00    181401.80
  175.18        2964.75           2353       45419.00    199331.10
  175.21        2965.00           2356       47948.00    210510.50
  175.24        2965.25           2360       51154.00    224694.80
  175.27        2965.50           2363       53592.00    235490.40
  175.30        2965.75           2367       57419.00    252452.80
  175.33        2966.00           2370       60373.00    265559.10
  175.36        2966.25           2374       63457.00    279254.90
  175.39        2966.50           2378       65000.00    286112.00
  175.42        2966.75           2381       65345.00    287645.60
  175.45        2967.00           2385       65755.00    289468.40
  175.48        2967.25           2388       65444.00    288085.70
  175.51        2967.50           2392       65359.00    287707.80
  175.55        2967.75           2395       64880.00    285578.50
  175.58        2968.00           2399       63547.00    279654.70
  175.61        2968.25           2402       60931.00    268036.20
  175.64        2968.50           2406       57382.00    252288.70
  175.67        2968.75           2409       54248.00    238396.60
  175.70        2969.00           2413       50516.00    221871.00
  175.73        2969.25           2417       46703.00    205005.90
  175.76        2969.50           2420       44015.00    193128.40
  175.79        2969.75           2424       39950.00    175184.60
  175.82        2970.00           2427       36896.00    161718.10
  175.85        2970.25           2431       32586.00    142734.20
  175.88        2970.50           2434       29866.00    130766.20
  175.91        2970.75           2438       25754.00    112692.10
  175.94        2971.00           2441       22699.00     99278.31
  175.97        2971.25           2445       18884.00     82544.77
  176.00        2971.50           2449       15623.00     68256.31
  176.03        2971.75           2452       12752.00     55688.17
  176.07        2972.00           2456        8786.00     38344.20
  176.10        2972.25           2459        6137.00     26771.09
  176.13        2972.50           2463        3071.00     13387.52
  176.16        2972.75           2466        1409.00      6137.72
  176.19        2973.00           2470         499.00      2169.73
  176.22        2973.25           2473         299.00      1297.79
  176.25        2973.50           2477         269.00      1167.00
  176.28        2973.75           2481         255.00      1105.97
  176.31        2974.00           2484         261.00      1132.13
  176.34        2974.25           2488         220.00       953.39
  176.37        2974.50           2491         244.00      1058.02
  176.40        2974.75           2495         215.00       931.59
  176.43        2975.00           2498         206.00       892.35
  176.46        2975.25           2502         213.00       922.87
  176.49        2975.50           2505         205.00       888.00
  176.52        2975.75           2509         203.00       879.28
  176.55        2976.00           2512         203.00       879.28
  176.59        2976.25           2516         199.00       861.84
  176.62        2976.50           2520         183.00       792.09
  176.65        2976.75           2523         184.00       796.45
  176.68        2977.00           2527         192.00       831.32
  176.71        2977.25           2530         184.00       796.45
  176.74        2977.50           2534         180.00       779.01
  176.77        2977.75           2537         193.00       835.68
  176.80        2978.00           2541         181.00       783.37
  176.83        2978.25           2544         186.00       805.17
  176.86        2978.50           2548         174.00       752.85
  176.89        2978.75           2552         173.00       748.49
  176.92        2979.00           2555         170.00       735.42
  176.95        2979.25           2559         167.00       722.34
  176.98        2979.50           2562         164.00       709.26
  177.01        2979.75           2566         167.00       722.34
  177.04        2980.00           2569         163.00       704.90
  177.07        2980.25           2573         173.00       748.49
  177.11        2980.50           2577         172.00       744.13
  177.14        2980.75           2580         152.00       656.95
  177.17        2981.00           2584         168.00       726.70
  177.20        2981.25           2587         174.00       752.85
  177.23        2981.50           2591         156.00       674.38
  177.26        2981.75           2594         156.00       674.38
  177.29        2982.00           2598         151.00       652.59
  177.32        2982.25           2601         154.00       665.66
  177.35        2982.50           2605         158.00       683.10
  177.38        2982.75           2609         155.00       670.02
  177.41        2983.00           2612         155.00       670.02
  177.44        2983.25           2616         144.00       622.07
  177.47        2983.50           2619         149.00       643.87
  177.50        2983.75           2623         162.00       700.54
  177.53        2984.00           2626         143.00       617.71
HS scan finished at 02:57:45
end
************************************************************
  HS Scan of (1) Internal mercury lamp
************************************************************
Integration time is 0.2294 seconds per sample
dh230917Reading 51.44 .94 3.45pr1000
************************************************************
Dead Time -------------------------  3.4E-08 
Number of Cycles Used -------------  4 
Starting Wavelength (Angstroms) ---  2950 
Final Wavelength (Angstoms) -------  2984 
Wavelength Increment (Angstroms) --  .25 
Filter Wheel #1 Position ---------- (1) Ground quartz diffuser (ND=2.32)
Filter Wheel #2 Position ---------- (1) Neutral Density 0.494



************************************************************
HS scan start time = 19:07:27
Dark Count =  2.7 


Time (GMT)  Wavelength (Ang)  Step Number  Raw Counts  Counts/Second

 1148.35        2950.00           2144         104.00       441.59
 1148.55        2950.25           2147         106.00       450.31
 1148.58        2950.50           2151         101.00       428.52
 1148.61        2950.75           2155         123.00       524.42
 1148.64        2951.00           2158         118.00       502.62
 1148.67        2951.25           2162         107.00       454.67
 1148.70        2951.50           2165         104.00       441.59
 1148.73        2951.75           2169         123.00       524.42
 1148.76        2952.00           2172         131.00       559.30
 1148.79        2952.25           2176         124.00       528.78
 1148.82        2952.50           2179         149.00       637.76
 1148.85        2952.75           2183         145.00       620.33
 1148.88        2953.00           2186         115.00       489.55
 1148.91        2953.25           2190         144.00       615.97
 1148.95        2953.50           2193         169.00       724.95
 1148.98        2953.75           2197         115.00       489.55
 1149.01        2954.00           2200         103.00       437.23
 1149.04        2954.25           2204         138.00       589.81
 1149.07        2954.50           2208         128.00       546.22
 1149.10        2954.75           2211         137.00       585.45
 1149.13        2955.00           2215         112.00       476.47
 1149.16        2955.25           2218         145.00       620.33
 1149.19        2955.50           2222         152.00       650.84
 1149.22        2955.75           2225         126.00       537.50
 1149.25        2956.00           2229         118.00       502.62
 1149.28        2956.25           2232         127.00       541.86
 1149.31        2956.50           2236         129.00       550.58
 1149.34        2956.75           2239         158.00       677.00
 1149.37        2957.00           2243         137.00       585.45
 1149.40        2957.25           2246         130.00       554.94
 1149.43        2957.50           2250         126.00       537.50
 1149.47        2957.75           2254         136.00       581.09
 1149.50        2958.00           2257         134.00       572.37
 1149.53        2958.25           2261         142.00       607.25
 1149.56        2958.50           2264         140.00       598.53
 1149.59        2958.75           2268         150.00       642.12
 1149.62        2959.00           2271         131.00       559.30
 1149.65        2959.25           2275         150.00       642.12
 1149.68        2959.50           2278         151.00       646.48
 1149.71        2959.75           2282         170.00       729.31
 1149.74        2960.00           2285         144.00       615.97
 1149.77        2960.25           2289         162.00       694.44
 1149.80        2960.50           2293         160.00       685.72
 1149.83        2960.75           2296         166.00       711.87
 1149.86        2961.00           2300         207.00       890.61
 1149.89        2961.25           2303         425.00      1841.00
 1149.92        2961.50           2307        1435.00      6245.01
 1149.95        2961.75           2310        2859.00     12456.45
 1149.99        2962.00           2314        5008.00     21835.30
 1150.02        2962.25           2317        6524.00     28455.16
 1150.05        2962.50           2321        8798.00     38390.53
 1150.08        2962.75           2324       10276.00     44851.69
 1150.11        2963.00           2328       12624.00     55121.96
 1150.14        2963.25           2331       14532.00     63472.93
 1150.17        2963.50           2335       16830.00     73537.18
 1150.20        2963.75           2339       19263.00     84200.18
 1150.23        2964.00           2342       21359.00     93392.42
 1150.26        2964.25           2346       23741.00    103846.00
 1150.29        2964.50           2349       25455.00    111372.60
 1150.32        2964.75           2353       27925.00    122225.70
 1150.35        2965.00           2356       29572.00    129467.10
 1150.38        2965.25           2360       31661.00    138656.90
 1150.41        2965.50           2363       33757.00    147883.40
 1150.44        2965.75           2367       35942.00    157507.80
 1150.47        2966.00           2370       37481.00    164290.50
 1150.51        2966.25           2374       39314.00    172373.00
 1150.54        2966.50           2378       40582.00    177966.80
 1150.57        2966.75           2381       40947.00    179577.40
 1150.60        2967.00           2385       40923.00    179471.50
 1150.63        2967.25           2388       41096.00    180234.90
 1150.66        2967.50           2392       40829.00    179056.70
 1150.69        2967.75           2395       40695.00    178465.40
 1150.72        2968.00           2399       39424.00    172858.20
 1150.75        2968.25           2402       37940.00    166314.00
 1150.78        2968.50           2406       35875.00    157212.60
 1150.81        2968.75           2409       34303.00    150287.80
 1150.84        2969.00           2413       31594.00    138362.10
 1150.87        2969.25           2417       29227.00    127949.90
 1150.90        2969.50           2420       27429.00    120045.70
 1150.93        2969.75           2424       25046.00    109576.20
 1150.96        2970.00           2427       22946.00    100356.20
 1150.99        2970.25           2431       20722.00     90598.18
 1151.03        2970.50           2434       18955.00     82849.88
 1151.06        2970.75           2438       16329.00     71342.41
 1151.09        2971.00           2441       14590.00     63726.86
 1151.12        2971.25           2445       12130.00     52960.58
 1151.15        2971.50           2449        9772.00     42648.11
 1151.18        2971.75           2452        8200.00     35777.15
 1151.21        2972.00           2456        5910.00     25773.67
 1151.24        2972.25           2459        4423.00     19281.60
 1151.27        2972.50           2463        2276.00      9913.11
 1151.30        2972.75           2466         979.00      4256.50
 1151.33        2973.00           2470         299.00      1291.69
 1151.36        2973.25           2473         194.00       833.94
 1151.39        2973.50           2477         176.00       755.47
 1151.42        2973.75           2481         153.00       655.20
 1151.45        2974.00           2484         163.00       698.80
 1151.48        2974.25           2488         155.00       663.92
 1151.51        2974.50           2491         147.00       629.05
 1151.55        2974.75           2495         150.00       642.12
 1151.58        2975.00           2498         143.00       611.61
 1151.61        2975.25           2502         158.00       677.00
 1151.64        2975.50           2505         150.00       642.12
 1151.67        2975.75           2509         160.00       685.72
 1151.70        2976.00           2512         155.00       663.92
 1151.73        2976.25           2516         147.00       629.05
 1151.76        2976.50           2520         153.00       655.20
 1151.79        2976.75           2523         132.00       563.66
 1151.82        2977.00           2527         140.00       598.53
 1151.85        2977.25           2530         158.00       677.00
 1151.88        2977.50           2534         143.00       611.61
 1151.91        2977.75           2537         160.00       685.72
 1151.94        2978.00           2541         128.00       546.22
 1151.97        2978.25           2544         120.00       511.34
 1152.00        2978.50           2548         129.00       550.58
 1152.03        2978.75           2552         134.00       572.37
 1152.06        2979.00           2555         117.00       498.26
 1152.10        2979.25           2559         158.00       677.00
 1152.13        2979.50           2562         133.00       568.01
 1152.16        2979.75           2566         117.00       498.26
 1152.19        2980.00           2569         125.00       533.14
 1152.22        2980.25           2573         142.00       607.25
 1152.25        2980.50           2577         119.00       506.98
 1152.28        2980.75           2580         108.00       459.03
 1152.31        2981.00           2584         130.00       554.94
 1152.34        2981.25           2587         121.00       515.70
 1152.37        2981.50           2591         109.00       463.39
 1152.40        2981.75           2594         108.00       459.03
 1152.43        2982.00           2598         145.00       620.33
 1152.46        2982.25           2601         123.00       524.42
 1152.49        2982.50           2605         108.00       459.03
 1152.52        2982.75           2609         118.00       502.62
 1152.55        2983.00           2612         121.00       515.70
 1152.58        2983.25           2616         130.00       554.94
 1152.62        2983.50           2619         102.00       432.87
 1152.65        2983.75           2623         137.00       585.45
 1152.68        2984.00           2626         111.00       472.11
HS scan finished at 19:12:54
end
