************************************************************
  HS Scan of (1) Internal mercury lamp
************************************************************
Integration time is 0.2294 seconds per sample
dh250917Reading 51.44 .94 3.39pr1000
************************************************************
Dead Time -------------------------  3.4E-08 
Number of Cycles Used -------------  4 
Starting Wavelength (Angstroms) ---  2950 
Final Wavelength (Angstoms) -------  2984 
Wavelength Increment (Angstroms) --  .25 
Filter Wheel #1 Position ---------- (1) Ground quartz diffuser (ND=2.32)
Filter Wheel #2 Position ---------- (1) Neutral Density 0.494



************************************************************
HS scan start time = 02:58:03
Dark Count =  2.1 


Time (GMT)  Wavelength (Ang)  Step Number  Raw Counts  Counts/Second

  178.95        2950.00           2144          86.00       365.74
  179.14        2950.25           2147          88.00       374.46
  179.17        2950.50           2151          89.00       378.82
  179.20        2950.75           2155          80.00       339.59
  179.23        2951.00           2158          83.00       352.66
  179.26        2951.25           2162          87.00       370.10
  179.29        2951.50           2165          85.00       361.38
  179.32        2951.75           2169          86.00       365.74
  179.35        2952.00           2172          99.00       422.41
  179.39        2952.25           2176          84.00       357.02
  179.42        2952.50           2179          93.00       396.26
  179.45        2952.75           2183          90.00       383.18
  179.48        2953.00           2186          85.00       361.38
  179.51        2953.25           2190          97.00       413.69
  179.54        2953.50           2193          91.00       387.54
  179.57        2953.75           2197          85.00       361.38
  179.60        2954.00           2200          88.00       374.46
  179.63        2954.25           2204         110.00       470.37
  179.66        2954.50           2208         103.00       439.85
  179.69        2954.75           2211         100.00       426.77
  179.72        2955.00           2215          95.00       404.98
  179.75        2955.25           2218         105.00       448.57
  179.78        2955.50           2222          85.00       361.38
  179.81        2955.75           2225          99.00       422.41
  179.84        2956.00           2229         113.00       483.44
  179.87        2956.25           2232         114.00       487.80
  179.91        2956.50           2236          99.00       422.41
  179.94        2956.75           2239         100.00       426.77
  179.97        2957.00           2243         101.00       431.13
  180.00        2957.25           2246         131.00       561.91
  180.03        2957.50           2250         108.00       461.65
  180.06        2957.75           2254         146.00       627.30
  180.09        2958.00           2257         119.00       509.60
  180.12        2958.25           2261         153.00       657.82
  180.15        2958.50           2264         129.00       553.19
  180.18        2958.75           2268         117.00       500.88
  180.21        2959.00           2271         121.00       518.32
  180.24        2959.25           2275         121.00       518.32
  180.27        2959.50           2278         143.00       614.22
  180.30        2959.75           2282         136.00       583.71
  180.33        2960.00           2285         119.00       509.60
  180.36        2960.25           2289         136.00       583.71
  180.39        2960.50           2293         127.00       544.47
  180.43        2960.75           2296         146.00       627.30
  180.46        2961.00           2300         188.00       810.40
  180.49        2961.25           2303         478.00      2074.69
  180.52        2961.50           2307        1593.00      6936.68
  180.55        2961.75           2310        2733.00     11909.35
  180.58        2962.00           2314        4323.00     18847.73
  180.61        2962.25           2317        5765.00     25143.11
  180.64        2962.50           2321        7768.00     33892.13
  180.67        2962.75           2324        9077.00     39612.61
  180.70        2963.00           2328       11102.00     48466.47
  180.73        2963.25           2331       12537.00     54743.91
  180.76        2963.50           2335       14348.00     62670.01
  180.79        2963.75           2339       15987.00     69847.02
  180.82        2964.00           2342       17567.00     76769.00
  180.85        2964.25           2346       19463.00     85079.68
  180.88        2964.50           2349       20927.00     91500.00
  180.91        2964.75           2353       22537.00     98563.84
  180.95        2965.00           2356       23884.00    104476.40
  180.98        2965.25           2360       25633.00    112157.10
  181.01        2965.50           2363       26926.00    117837.80
  181.04        2965.75           2367       28851.00    126299.30
  181.07        2966.00           2370       30164.00    132073.50
  181.10        2966.25           2374       31667.00    138686.00
  181.13        2966.50           2378       32454.00    142149.60
  181.16        2966.75           2381       32740.00    143408.50
  181.19        2967.00           2385       32884.00    144042.40
  181.22        2967.25           2388       32936.00    144271.40
  181.25        2967.50           2392       32616.00    142862.70
  181.28        2967.75           2395       32165.00    140877.60
  181.31        2968.00           2399       31238.00    136798.30
  181.34        2968.25           2402       29957.00    131163.00
  181.37        2968.50           2406       28279.00    123784.50
  181.40        2968.75           2409       27052.00    118391.50
  181.43        2969.00           2413       25388.00    111080.90
  181.47        2969.25           2417       23294.00    101886.40
  181.50        2969.50           2420       21920.00     95856.37
  181.53        2969.75           2424       19937.00     87158.08
  181.56        2970.00           2427       18687.00     81677.69
  181.59        2970.25           2431       16717.00     73044.75
  181.62        2970.50           2434       15424.00     67381.31
  181.65        2970.75           2438       13383.00     58446.03
  181.68        2971.00           2441       12020.00     52481.98
  181.71        2971.25           2445        9828.00     42895.57
  181.74        2971.50           2449        7759.00     33852.81
  181.77        2971.75           2452        6357.00     27728.40
  181.80        2972.00           2456        4483.00     19546.12
  181.83        2972.25           2459        3204.00     13964.35
  181.86        2972.50           2463        1637.00      7128.58
  181.89        2972.75           2466         763.00      3317.29
  181.92        2973.00           2470         264.00      1141.72
  181.95        2973.25           2473         168.00       723.21
  181.99        2973.50           2477         152.00       653.46
  182.02        2973.75           2481         136.00       583.71
  182.05        2974.00           2484         151.00       649.10
  182.08        2974.25           2488         159.00       683.97
  182.11        2974.50           2491         146.00       627.30
  182.14        2974.75           2495         148.00       636.02
  182.17        2975.00           2498         156.00       670.90
  182.20        2975.25           2502         125.00       535.76
  182.23        2975.50           2505         136.00       583.71
  182.26        2975.75           2509         122.00       522.68
  182.29        2976.00           2512         108.00       461.65
  182.32        2976.25           2516         110.00       470.37
  182.35        2976.50           2520         142.00       609.86
  182.39        2976.75           2523         112.00       479.08
  182.43        2977.00           2527         125.00       535.76
  182.46        2977.25           2530         115.00       492.16
  182.49        2977.50           2534         105.00       448.57
  182.52        2977.75           2537          96.00       409.33
  182.55        2978.00           2541         132.00       566.27
  182.58        2978.25           2544         103.00       439.85
  182.61        2978.50           2548         111.00       474.72
  182.64        2978.75           2552         108.00       461.65
  182.67        2979.00           2555         121.00       518.32
  182.70        2979.25           2559         100.00       426.77
  182.73        2979.50           2562         100.00       426.77
  182.77        2979.75           2566         117.00       500.88
  182.80        2980.00           2569         121.00       518.32
  182.83        2980.25           2573          99.00       422.41
  182.86        2980.50           2577          95.00       404.98
  182.89        2980.75           2580         105.00       448.57
  182.92        2981.00           2584          93.00       396.26
  182.95        2981.25           2587          85.00       361.38
  182.98        2981.50           2591          95.00       404.98
  183.01        2981.75           2594          94.00       400.62
  183.04        2982.00           2598          86.00       365.74
  183.07        2982.25           2601         102.00       435.49
  183.10        2982.50           2605          86.00       365.74
  183.13        2982.75           2609          91.00       387.54
  183.16        2983.00           2612          92.00       391.90
  183.19        2983.25           2616          90.00       383.18
  183.22        2983.50           2619          85.00       361.38
  183.25        2983.75           2623          85.00       361.38
  183.28        2984.00           2626          90.00       383.18
HS scan finished at 03:03:30
end
************************************************************
  HS Scan of (1) Internal mercury lamp
************************************************************
Integration time is 0.2294 seconds per sample
dh250917Reading 51.44 .94 3.64pr1000
************************************************************
Dead Time -------------------------  3.4E-08 
Number of Cycles Used -------------  4 
Starting Wavelength (Angstroms) ---  2950 
Final Wavelength (Angstoms) -------  2984 
Wavelength Increment (Angstroms) --  .25 
Filter Wheel #1 Position ---------- (1) Ground quartz diffuser (ND=2.32)
Filter Wheel #2 Position ---------- (1) Neutral Density 0.494



************************************************************
HS scan start time = 18:37:29
Dark Count =  3.7 


Time (GMT)  Wavelength (Ang)  Step Number  Raw Counts  Counts/Second

 1118.38        2950.00           2144          88.00       367.49
 1118.57        2950.25           2147          79.00       328.25
 1118.60        2950.50           2151          87.00       363.13
 1118.63        2950.75           2155          87.00       363.13
 1118.66        2951.00           2158          80.00       332.61
 1118.69        2951.25           2162          88.00       367.49
 1118.73        2951.50           2165          79.00       328.25
 1118.76        2951.75           2169          88.00       367.49
 1118.79        2952.00           2172          87.00       363.13
 1118.82        2952.25           2176          92.00       384.92
 1118.85        2952.50           2179         109.00       459.03
 1118.88        2952.75           2183         112.00       472.11
 1118.91        2953.00           2186          92.00       384.92
 1118.94        2953.25           2190          97.00       406.72
 1118.97        2953.50           2193          95.00       398.00
 1119.00        2953.75           2197          96.00       402.36
 1119.03        2954.00           2200          86.00       358.77
 1119.06        2954.25           2204          88.00       367.49
 1119.09        2954.50           2208          96.00       402.36
 1119.12        2954.75           2211         102.00       428.52
 1119.15        2955.00           2215         114.00       480.83
 1119.18        2955.25           2218          95.00       398.00
 1119.21        2955.50           2222          95.00       398.00
 1119.25        2955.75           2225          95.00       398.00
 1119.28        2956.00           2229          96.00       402.36
 1119.31        2956.25           2232         100.00       419.80
 1119.34        2956.50           2236         115.00       485.19
 1119.37        2956.75           2239          99.00       415.44
 1119.40        2957.00           2243         107.00       450.31
 1119.43        2957.25           2246         122.00       515.70
 1119.46        2957.50           2250         115.00       485.19
 1119.49        2957.75           2254         104.00       437.23
 1119.52        2958.00           2257         118.00       498.26
 1119.55        2958.25           2261         103.00       432.87
 1119.58        2958.50           2264         103.00       432.87
 1119.61        2958.75           2268         130.00       550.58
 1119.64        2959.00           2271         121.00       511.34
 1119.67        2959.25           2275         141.00       598.53
 1119.70        2959.50           2278         126.00       533.14
 1119.73        2959.75           2282         118.00       498.26
 1119.77        2960.00           2285         121.00       511.34
 1119.80        2960.25           2289         156.00       663.92
 1119.83        2960.50           2293         171.00       729.31
 1119.86        2960.75           2296         139.00       589.81
 1119.89        2961.00           2300         170.00       724.95
 1119.92        2961.25           2303         408.00      1762.53
 1119.95        2961.50           2307        1352.00      5878.68
 1119.98        2961.75           2310        2415.00     10515.09
 1120.01        2962.00           2314        4168.00     18164.22
 1120.04        2962.25           2317        5397.00     23529.28
 1120.08        2962.50           2321        7192.00     31368.66
 1120.11        2962.75           2324        8509.00     37123.11
 1120.14        2963.00           2328       10264.00     44794.85
 1120.17        2963.25           2331       11758.00     51328.82
 1120.20        2963.50           2335       13719.00     59909.61
 1120.23        2963.75           2339       15723.00     68683.75
 1120.26        2964.00           2342       16956.00     74084.82
 1120.29        2964.25           2346       18724.00     81832.87
 1120.32        2964.50           2349       20137.00     88028.11
 1120.35        2964.75           2353       21953.00     95994.14
 1120.38        2965.00           2356       24155.00    105659.20
 1120.41        2965.25           2360       25481.00    111482.40
 1120.44        2965.50           2363       26390.00    115475.60
 1120.47        2965.75           2367       27900.00    122111.40
 1120.50        2966.00           2370       29328.00    128389.70
 1120.53        2966.25           2374       31069.00    136047.60
 1120.57        2966.50           2378       31911.00    139752.70
 1120.60        2966.75           2381       32610.00    142829.30
 1120.63        2967.00           2385       32973.00    144427.20
 1120.66        2967.25           2388       32985.00    144480.00
 1120.69        2967.50           2392       32963.00    144383.20
 1120.72        2967.75           2395       32958.00    144361.20
 1120.75        2968.00           2399       32248.00    141235.90
 1120.78        2968.25           2402       30949.00    135519.70
 1120.81        2968.50           2406       28792.00    126032.80
 1120.84        2968.75           2409       27347.00    119680.90
 1120.87        2969.00           2413       25217.00    110322.80
 1120.90        2969.25           2417       23430.00    102476.30
 1120.93        2969.50           2420       21920.00     95849.34
 1120.96        2969.75           2424       19778.00     86453.84
 1120.99        2970.00           2427       18422.00     80509.10
 1121.02        2970.25           2431       16178.00     70676.61
 1121.05        2970.50           2434       14514.00     63389.74
 1121.08        2970.75           2438       12744.00     55642.66
 1121.12        2971.00           2441       11352.00     49552.90
 1121.15        2971.25           2445        9590.00     41848.08
 1121.18        2971.50           2449        7848.00     34234.68
 1121.21        2971.75           2452        6396.00     27891.74
 1121.24        2972.00           2456        4557.00     19862.15
 1121.27        2972.25           2459        3128.00     13625.75
 1121.30        2972.50           2463        1555.00      6763.98
 1121.33        2972.75           2466         742.00      3218.75
 1121.36        2973.00           2470         248.00      1064.99
 1121.39        2973.25           2473         176.00       751.11
 1121.42        2973.50           2477         131.00       554.94
 1121.45        2973.75           2481         165.00       703.16
 1121.48        2974.00           2484         162.00       690.08
 1121.51        2974.25           2488         157.00       668.28
 1121.54        2974.50           2491         122.00       515.70
 1121.57        2974.75           2495         127.00       537.50
 1121.60        2975.00           2498         115.00       485.19
 1121.64        2975.25           2502         131.00       554.94
 1121.67        2975.50           2505         115.00       485.19
 1121.70        2975.75           2509         126.00       533.14
 1121.73        2976.00           2512         122.00       515.70
 1121.76        2976.25           2516         105.00       441.59
 1121.79        2976.50           2520         124.00       524.42
 1121.82        2976.75           2523         102.00       428.52
 1121.85        2977.00           2527         124.00       524.42
 1121.88        2977.25           2530         106.00       445.95
 1121.91        2977.50           2534          94.00       393.64
 1121.94        2977.75           2537          97.00       406.72
 1121.97        2978.00           2541         102.00       428.52
 1122.00        2978.25           2544         101.00       424.16
 1122.03        2978.50           2548          99.00       415.44
 1122.06        2978.75           2552          96.00       402.36
 1122.09        2979.00           2555          89.00       371.84
 1122.12        2979.25           2559          89.00       371.84
 1122.16        2979.50           2562          98.00       411.08
 1122.19        2979.75           2566          95.00       398.00
 1122.22        2980.00           2569          93.00       389.28
 1122.25        2980.25           2573         109.00       459.03
 1122.28        2980.50           2577          90.00       376.20
 1122.31        2980.75           2580          93.00       389.28
 1122.34        2981.00           2584          96.00       402.36
 1122.37        2981.25           2587          98.00       411.08
 1122.40        2981.50           2591          84.00       350.05
 1122.43        2981.75           2594          98.00       411.08
 1122.46        2982.00           2598          84.00       350.05
 1122.49        2982.25           2601          89.00       371.84
 1122.52        2982.50           2605          90.00       376.20
 1122.55        2982.75           2609          94.00       393.64
 1122.58        2983.00           2612          84.00       350.05
 1122.61        2983.25           2616          91.00       380.56
 1122.64        2983.50           2619         106.00       445.95
 1122.68        2983.75           2623          87.00       363.13
 1122.71        2984.00           2626          83.00       345.69
HS scan finished at 18:42:56
end
