************************************************************
  HS Scan of (1) Internal mercury lamp
************************************************************
Integration time is 0.2294 seconds per sample
dh230918Reading 51.44 .94 3.11pr1000
************************************************************
Dead Time -------------------------  3.4E-08 
Number of Cycles Used -------------  4 
Starting Wavelength (Angstroms) ---  2950 
Final Wavelength (Angstoms) -------  2984 
Wavelength Increment (Angstroms) --  .25 
Filter Wheel #1 Position ---------- (1) Ground quartz diffuser (ND=2.32)
Filter Wheel #2 Position ---------- (1) Neutral Density 0.494



************************************************************
HS scan start time = 02:51:40
Dark Count =  1.1 


Time (GMT)  Wavelength (Ang)  Step Number  Raw Counts  Counts/Second

  172.57        2950.00           2144          87.00       374.46
  172.76        2950.25           2147          88.00       378.82
  172.79        2950.50           2151          88.00       378.82
  172.82        2950.75           2155         116.00       500.88
  172.85        2951.00           2158          87.00       374.46
  172.88        2951.25           2162          80.00       343.94
  172.91        2951.50           2165          82.00       352.66
  172.94        2951.75           2169          64.00       274.20
  172.97        2952.00           2172          59.00       252.40
  173.00        2952.25           2176          66.00       282.91
  173.03        2952.50           2179          59.00       252.40
  173.06        2952.75           2183          94.00       404.98
  173.10        2953.00           2186          94.00       404.98
  173.13        2953.25           2190          97.00       418.05
  173.16        2953.50           2193          90.00       387.54
  173.19        2953.75           2197          98.00       422.41
  173.22        2954.00           2200          96.00       413.69
  173.25        2954.25           2204          90.00       387.54
  173.28        2954.50           2208          85.00       365.74
  173.31        2954.75           2211          92.00       396.26
  173.34        2955.00           2215          86.00       370.10
  173.37        2955.25           2218         106.00       457.29
  173.40        2955.50           2222         104.00       448.57
  173.43        2955.75           2225         104.00       448.57
  173.46        2956.00           2229         104.00       448.57
  173.49        2956.25           2232         101.00       435.49
  173.52        2956.50           2236         116.00       500.88
  173.55        2956.75           2239         101.00       435.49
  173.58        2957.00           2243         104.00       448.57
  173.61        2957.25           2246          93.00       400.62
  173.65        2957.50           2250         101.00       435.49
  173.68        2957.75           2254         126.00       544.47
  173.71        2958.00           2257         113.00       487.80
  173.74        2958.25           2261         122.00       527.04
  173.77        2958.50           2264         128.00       553.19
  173.80        2958.75           2268         129.00       557.55
  173.83        2959.00           2271         120.00       518.32
  173.86        2959.25           2275         127.00       548.83
  173.89        2959.50           2278         122.00       527.04
  173.92        2959.75           2282         142.00       614.22
  173.95        2960.00           2285         128.00       553.19
  173.98        2960.25           2289         124.00       535.76
  174.01        2960.50           2293         128.00       553.19
  174.04        2960.75           2296         140.00       605.51
  174.07        2961.00           2300         188.00       814.76
  174.10        2961.25           2303         468.00      2035.45
  174.13        2961.50           2307        1140.00      4965.53
  174.17        2961.75           2310        1749.00      7621.42
  174.20        2962.00           2314        2786.00     12144.94
  174.23        2962.25           2317        3575.00     15587.60
  174.26        2962.50           2321        4731.00     20633.04
  174.29        2962.75           2324        5390.00     23510.07
  174.32        2963.00           2328       11968.00     52258.86
  174.35        2963.25           2331       13100.00     57211.88
  174.38        2963.50           2335       14944.00     65283.81
  174.41        2963.75           2339       16798.00     73403.99
  174.44        2964.00           2342       18300.00     79985.76
  174.47        2964.25           2346       20453.00     89425.36
  174.50        2964.50           2349       22063.00     96488.22
  174.53        2964.75           2353       24344.00    106500.50
  174.56        2965.00           2356       25662.00    112288.80
  174.59        2965.25           2360       27639.00    120975.70
  174.62        2965.50           2363       28956.00    126765.30
  174.65        2965.75           2367       30862.00    135148.40
  174.69        2966.00           2370       32438.00    142083.60
  174.72        2966.25           2374       34049.00    149176.20
  174.75        2966.50           2378       35045.00    153563.00
  174.78        2966.75           2381       35117.00    153880.20
  174.81        2967.00           2385       35211.00    154294.20
  174.84        2967.25           2388       34708.00    152078.60
  174.87        2967.50           2392       34391.00    150682.40
  174.90        2967.75           2395       22030.00     96343.41
  174.93        2968.00           2399       20943.00     91574.57
  174.96        2968.25           2402       19605.00     85706.66
  174.99        2968.50           2406       18045.00     78868.15
  175.02        2968.75           2409       17137.00     74889.23
  175.05        2969.00           2413       28514.00    124822.00
  175.08        2969.25           2417       16597.00     72523.43
  175.11        2969.50           2420       15099.00     65962.50
  175.14        2969.75           2424       13224.00     57754.55
  175.17        2970.00           2427       11879.00     51869.52
  175.21        2970.25           2431       10439.00     45571.43
  175.24        2970.50           2434        9666.00     42191.70
  175.27        2970.75           2438        8338.00     36387.19
  175.30        2971.00           2441        7530.00     32856.65
  175.33        2971.25           2445        6212.00     27099.50
  175.36        2971.50           2449        4811.00     20982.27
  175.39        2971.75           2452        6949.00     30318.51
  175.42        2972.00           2456        3010.00     13122.24
  175.45        2972.25           2459        2035.00      8868.85
  175.48        2972.50           2463         990.00      4311.44
  175.51        2972.75           2466         472.00      2052.89
  175.54        2973.00           2470         175.00       758.08
  175.57        2973.25           2473         112.00       483.44
  175.60        2973.50           2477          94.00       404.98
  175.63        2973.75           2481          93.00       400.62
  175.66        2974.00           2484          88.00       378.82
  175.69        2974.25           2488         105.00       452.93
  175.73        2974.50           2491          78.00       335.23
  175.76        2974.75           2495          77.00       330.87
  175.79        2975.00           2498          85.00       365.74
  175.82        2975.25           2502          82.00       352.66
  175.85        2975.50           2505          66.00       282.91
  175.88        2975.75           2509          79.00       339.59
  175.91        2976.00           2512          76.00       326.51
  175.94        2976.25           2516          78.00       335.23
  175.97        2976.50           2520          74.00       317.79
  176.00        2976.75           2523          72.00       309.07
  176.03        2977.00           2527         115.00       496.52
  176.06        2977.25           2530          76.00       326.51
  176.09        2977.50           2534          75.00       322.15
  176.12        2977.75           2537          69.00       295.99
  176.15        2978.00           2541          78.00       335.23
  176.18        2978.25           2544          68.00       291.63
  176.21        2978.50           2548          61.00       261.12
  176.25        2978.75           2552          76.00       326.51
  176.28        2979.00           2555          66.00       282.91
  176.31        2979.25           2559          67.00       287.27
  176.34        2979.50           2562          61.00       261.12
  176.37        2979.75           2566          65.00       278.56
  176.40        2980.00           2569          54.00       230.60
  176.43        2980.25           2573          63.00       269.84
  176.46        2980.50           2577          64.00       274.20
  176.49        2980.75           2580          61.00       261.12
  176.52        2981.00           2584          61.00       261.12
  176.55        2981.25           2587          64.00       274.20
  176.58        2981.50           2591          60.00       256.76
  176.61        2981.75           2594          61.00       261.12
  176.64        2982.00           2598          67.00       287.27
  176.67        2982.25           2601          62.00       265.48
  176.70        2982.50           2605          61.00       261.12
  176.73        2982.75           2609          61.00       261.12
  176.77        2983.00           2612          59.00       252.40
  176.80        2983.25           2616          69.00       295.99
  176.83        2983.50           2619          59.00       252.40
  176.86        2983.75           2623          58.00       248.04
  176.89        2984.00           2626          57.00       243.68
HS scan finished at 02:57:06
end
************************************************************
  HS Scan of (1) Internal mercury lamp
************************************************************
Integration time is 0.2294 seconds per sample
dh230918Reading 51.44 .94 3.05pr1000
************************************************************
Dead Time -------------------------  3.4E-08 
Number of Cycles Used -------------  4 
Starting Wavelength (Angstroms) ---  2950 
Final Wavelength (Angstoms) -------  2984 
Wavelength Increment (Angstroms) --  .25 
Filter Wheel #1 Position ---------- (1) Ground quartz diffuser (ND=2.32)
Filter Wheel #2 Position ---------- (1) Neutral Density 0.494



************************************************************
HS scan start time = 19:07:26
Dark Count =  1 


Time (GMT)  Wavelength (Ang)  Step Number  Raw Counts  Counts/Second

 1148.33        2950.00           2144          67.00       287.71
 1148.52        2950.25           2147          80.00       344.38
 1148.56        2950.50           2151          75.00       322.58
 1148.59        2950.75           2155          68.00       292.07
 1148.62        2951.00           2158          72.00       309.51
 1148.65        2951.25           2162          77.00       331.30
 1148.68        2951.50           2165          79.00       340.02
 1148.72        2951.75           2169          81.00       348.74
 1148.75        2952.00           2172          80.00       344.38
 1148.78        2952.25           2176          90.00       387.97
 1148.82        2952.50           2179          78.00       335.66
 1148.85        2952.75           2183          68.00       292.07
 1148.88        2953.00           2186          80.00       344.38
 1148.91        2953.25           2190          80.00       344.38
 1148.94        2953.50           2193          76.00       326.94
 1148.97        2953.75           2197          83.00       357.46
 1149.00        2954.00           2200          79.00       340.02
 1149.03        2954.25           2204          88.00       379.26
 1149.06        2954.50           2208          83.00       357.46
 1149.09        2954.75           2211          84.00       361.82
 1149.12        2955.00           2215          83.00       357.46
 1149.15        2955.25           2218          89.00       383.61
 1149.18        2955.50           2222          87.00       374.90
 1149.21        2955.75           2225          91.00       392.33
 1149.24        2956.00           2229          91.00       392.33
 1149.27        2956.25           2232          84.00       361.82
 1149.30        2956.50           2236         109.00       470.80
 1149.34        2956.75           2239          83.00       357.46
 1149.37        2957.00           2243          94.00       405.41
 1149.40        2957.25           2246          84.00       361.82
 1149.43        2957.50           2250          89.00       383.61
 1149.46        2957.75           2254         102.00       440.29
 1149.49        2958.00           2257          97.00       418.49
 1149.52        2958.25           2261         112.00       483.88
 1149.55        2958.50           2264         116.00       501.32
 1149.58        2958.75           2268          93.00       401.05
 1149.61        2959.00           2271          97.00       418.49
 1149.64        2959.25           2275         119.00       514.39
 1149.67        2959.50           2278          94.00       405.41
 1149.70        2959.75           2282         105.00       453.36
 1149.73        2960.00           2285         109.00       470.80
 1149.76        2960.25           2289         108.00       466.44
 1149.79        2960.50           2293         132.00       571.07
 1149.82        2960.75           2296         116.00       501.32
 1149.86        2961.00           2300         165.00       714.93
 1149.89        2961.25           2303         331.00      1438.61
 1149.92        2961.50           2307        1159.00      5048.82
 1149.95        2961.75           2310        2128.00      9274.94
 1149.98        2962.00           2314        3638.00     15862.96
 1150.01        2962.25           2317        4806.00     20960.88
 1150.04        2962.50           2321        6525.00     28466.95
 1150.07        2962.75           2324        7890.00     34430.00
 1150.10        2963.00           2328        9821.00     42869.77
 1150.13        2963.25           2331       11141.00     48641.85
 1150.16        2963.50           2335       12817.00     55973.91
 1150.19        2963.75           2339       14345.00     62661.70
 1150.22        2964.00           2342       15753.00     68826.96
 1150.25        2964.25           2346       17610.00     76962.24
 1150.28        2964.50           2349       19044.00     83247.50
 1150.31        2964.75           2353       20641.00     90250.35
 1150.35        2965.00           2356       21848.00     95545.28
 1150.38        2965.25           2360       23575.00    103124.70
 1150.41        2965.50           2363       24492.00    107150.80
 1150.44        2965.75           2367       26462.00    115803.80
 1150.47        2966.00           2370       27543.00    120554.20
 1150.50        2966.25           2374       29028.00    127082.40
 1150.53        2966.50           2378       29858.00    130732.40
 1150.56        2966.75           2381       29840.00    130653.20
 1150.59        2967.00           2385       29879.00    130824.70
 1150.62        2967.25           2388       30017.00    131431.70
 1150.65        2967.50           2392       29995.00    131334.90
 1150.68        2967.75           2395       29703.00    130050.70
 1150.71        2968.00           2399       29123.00    127500.10
 1150.74        2968.25           2402       27794.00    121657.40
 1150.77        2968.50           2406       26012.00    113826.80
 1150.80        2968.75           2409       24975.00    109271.80
 1150.83        2969.00           2413       23208.00    101513.70
 1150.86        2969.25           2417       21697.00     94882.76
 1150.90        2969.50           2420       20587.00     90013.51
 1150.93        2969.75           2424       18648.00     81511.56
 1150.96        2970.00           2427       17187.00     75108.74
 1150.99        2970.25           2431       15392.00     67245.99
 1151.02        2970.50           2434       14142.00     61773.03
 1151.05        2970.75           2438       12099.00     52832.40
 1151.08        2971.00           2441       10809.00     47189.87
 1151.11        2971.25           2445        8961.00     39110.39
 1151.14        2971.50           2449        6970.00     30410.68
 1151.17        2971.75           2452        5688.00     24811.68
 1151.20        2972.00           2456        3970.00     17311.84
 1151.23        2972.25           2459        2784.00     12136.66
 1151.26        2972.50           2463        1451.00      6322.20
 1151.29        2972.75           2466         713.00      3104.08
 1151.32        2973.00           2470         252.00      1094.20
 1151.35        2973.25           2473         152.00       658.25
 1151.38        2973.50           2477         139.00       601.58
 1151.42        2973.75           2481         108.00       466.44
 1151.45        2974.00           2484         129.00       557.99
 1151.48        2974.25           2488         115.00       496.96
 1151.51        2974.50           2491         124.00       536.19
 1151.54        2974.75           2495         105.00       453.36
 1151.57        2975.00           2498         120.00       518.75
 1151.60        2975.25           2502          91.00       392.33
 1151.63        2975.50           2505         100.00       431.57
 1151.66        2975.75           2509         103.00       444.64
 1151.69        2976.00           2512          94.00       405.41
 1151.72        2976.25           2516          92.00       396.69
 1151.75        2976.50           2520         110.00       475.16
 1151.78        2976.75           2523         102.00       440.29
 1151.81        2977.00           2527          89.00       383.61
 1151.84        2977.25           2530          92.00       396.69
 1151.87        2977.50           2534          92.00       396.69
 1151.90        2977.75           2537          89.00       383.61
 1151.94        2978.00           2541          90.00       387.97
 1151.97        2978.25           2544          81.00       348.74
 1152.00        2978.50           2548          86.00       370.54
 1152.03        2978.75           2552          84.00       361.82
 1152.06        2979.00           2555          81.00       348.74
 1152.09        2979.25           2559          76.00       326.94
 1152.12        2979.50           2562          79.00       340.02
 1152.15        2979.75           2566          88.00       379.26
 1152.18        2980.00           2569          78.00       335.66
 1152.21        2980.25           2573          84.00       361.82
 1152.24        2980.50           2577          73.00       313.87
 1152.27        2980.75           2580          56.00       239.76
 1152.30        2981.00           2584          63.00       270.27
 1152.33        2981.25           2587          57.00       244.12
 1152.36        2981.50           2591          81.00       348.74
 1152.39        2981.75           2594          75.00       322.58
 1152.42        2982.00           2598          69.00       296.43
 1152.46        2982.25           2601          77.00       331.30
 1152.49        2982.50           2605          79.00       340.02
 1152.52        2982.75           2609          76.00       326.94
 1152.55        2983.00           2612          73.00       313.87
 1152.58        2983.25           2616          73.00       313.87
 1152.61        2983.50           2619          73.00       313.87
 1152.64        2983.75           2623          69.00       296.43
 1152.67        2984.00           2626          73.00       313.87
HS scan finished at 19:12:54
end
