************************************************************
  HS Scan of (1) Internal mercury lamp
************************************************************
Integration time is 0.2294 seconds per sample
dh260918Reading 51.44 .94 2.92pr1000
************************************************************
Dead Time -------------------------  3.4E-08 
Number of Cycles Used -------------  4 
Starting Wavelength (Angstroms) ---  2950 
Final Wavelength (Angstoms) -------  2984 
Wavelength Increment (Angstroms) --  .25 
Filter Wheel #1 Position ---------- (1) Ground quartz diffuser (ND=2.32)
Filter Wheel #2 Position ---------- (1) Neutral Density 0.494



************************************************************
HS scan start time = 03:00:07
Dark Count =  .8 


Time (GMT)  Wavelength (Ang)  Step Number  Raw Counts  Counts/Second

  181.01        2950.00           2144          82.00       353.97
  181.20        2950.25           2147          81.00       349.61
  181.23        2950.50           2151         101.00       436.80
  181.26        2950.75           2155          97.00       419.36
  181.29        2951.00           2158          93.00       401.92
  181.32        2951.25           2162          84.00       362.69
  181.35        2951.50           2165          95.00       410.64
  181.39        2951.75           2169          89.00       384.49
  181.42        2952.00           2172          85.00       367.05
  181.45        2952.25           2176          88.00       380.13
  181.48        2952.50           2179         100.00       432.44
  181.51        2952.75           2183          90.00       388.85
  181.54        2953.00           2186         121.00       523.98
  181.57        2953.25           2190          95.00       410.64
  181.60        2953.50           2193          99.00       428.08
  181.63        2953.75           2197          90.00       388.85
  181.66        2954.00           2200         113.00       489.11
  181.69        2954.25           2204         117.00       506.55
  181.72        2954.50           2208          98.00       423.72
  181.75        2954.75           2211         104.00       449.88
  181.78        2955.00           2215          98.00       423.72
  181.81        2955.25           2218         109.00       471.67
  181.84        2955.50           2222         107.00       462.95
  181.88        2955.75           2225         109.00       471.67
  181.91        2956.00           2229         108.00       467.31
  181.94        2956.25           2232         106.00       458.59
  181.97        2956.50           2236         102.00       441.16
  182.00        2956.75           2239         104.00       449.88
  182.03        2957.00           2243         104.00       449.88
  182.06        2957.25           2246         108.00       467.31
  182.09        2957.50           2250         106.00       458.59
  182.12        2957.75           2254         115.00       497.83
  182.15        2958.00           2257         113.00       489.11
  182.18        2958.25           2261         115.00       497.83
  182.21        2958.50           2264         150.00       650.41
  182.24        2958.75           2268         130.00       563.22
  182.27        2959.00           2271         154.00       667.84
  182.30        2959.25           2275         125.00       541.42
  182.33        2959.50           2278         130.00       563.22
  182.36        2959.75           2282         162.00       702.72
  182.39        2960.00           2285         154.00       667.84
  182.43        2960.25           2289         141.00       611.17
  182.46        2960.50           2293         133.00       576.30
  182.49        2960.75           2296         157.00       680.92
  182.52        2961.00           2300         176.00       763.75
  182.55        2961.25           2303         412.00      1792.61
  182.58        2961.50           2307        1501.00      6541.12
  182.61        2961.75           2310        2692.00     11736.16
  182.64        2962.00           2314        4507.00     19656.55
  182.67        2962.25           2317        5868.00     25598.56
  182.70        2962.50           2321        7833.00     34181.82
  182.73        2962.75           2324        9543.00     41655.29
  182.76        2963.00           2328       11707.00     51118.41
  182.79        2963.25           2331       13223.00     57751.48
  182.82        2963.50           2335       15293.00     66813.34
  182.85        2963.75           2339       17238.00     75333.07
  182.88        2964.00           2342       18917.00     82691.63
  182.91        2964.25           2346       21320.00     93229.66
  182.95        2964.50           2349       22861.00     99991.49
  182.98        2964.75           2353       24877.00    108842.30
  183.01        2965.00           2356       26367.00    115387.30
  183.04        2965.25           2360       28036.00    122722.00
  183.07        2965.50           2363       29648.00    129809.70
  183.10        2965.75           2367       31721.00    138929.30
  183.13        2966.00           2370       33202.00    145448.10
  183.16        2966.25           2374       34587.00    151547.00
  183.19        2966.50           2378       35497.00    155555.50
  183.22        2966.75           2381       35704.00    156467.50
  183.25        2967.00           2385       35683.00    156375.00
  183.28        2967.25           2388       35721.00    156542.40
  183.31        2967.50           2392       35879.00    157238.60
  183.34        2967.75           2395       35699.00    156445.50
  183.37        2968.00           2399       34588.00    151551.40
  183.40        2968.25           2402       32840.00    143854.50
  183.43        2968.50           2406       31243.00    136826.00
  183.47        2968.75           2409       29980.00    131269.80
  183.50        2969.00           2413       27781.00    121601.10
  183.53        2969.25           2417       25583.00    111943.10
  183.56        2969.50           2420       23922.00    104648.90
  183.59        2969.75           2424       13964.00     60994.72
  183.62        2970.00           2427       12428.00     54272.69
  183.65        2970.25           2431       11021.00     48117.89
  183.68        2970.50           2434        9928.00     43338.45
  183.71        2970.75           2438        8705.00     37992.38
  183.74        2971.00           2441       13659.00     59659.70
  183.77        2971.25           2445       10837.00     47313.19
  183.80        2971.50           2449        5378.00     23458.99
  183.83        2971.75           2452        4243.00     18504.23
  183.86        2972.00           2456        3024.00     13184.64
  183.89        2972.25           2459        2114.00      9214.74
  183.92        2972.50           2463        1066.00      4644.15
  183.95        2972.75           2466         883.00      3846.19
  183.99        2973.00           2470         257.00      1116.87
  184.02        2973.25           2473         179.00       776.83
  184.05        2973.50           2477         153.00       663.48
  184.08        2973.75           2481         139.00       602.45
  184.11        2974.00           2484         143.00       619.89
  184.14        2974.25           2488         132.00       571.94
  184.17        2974.50           2491         153.00       663.48
  184.20        2974.75           2495         138.00       598.09
  184.23        2975.00           2498         145.00       628.61
  184.26        2975.25           2502         141.00       611.17
  184.29        2975.50           2505         115.00       497.83
  184.32        2975.75           2509         131.00       567.58
  184.35        2976.00           2512         134.00       580.66
  184.38        2976.25           2516         141.00       611.17
  184.41        2976.50           2520          91.00       393.20
  184.44        2976.75           2523          82.00       353.97
  184.47        2977.00           2527          66.00       284.22
  184.51        2977.25           2530          78.00       336.53
  184.54        2977.50           2534          81.00       349.61
  184.57        2977.75           2537          75.00       323.46
  184.60        2978.00           2541          67.00       288.58
  184.63        2978.25           2544          72.00       310.38
  184.66        2978.50           2548         111.00       480.39
  184.69        2978.75           2552          78.00       336.53
  184.72        2979.00           2555          75.00       323.46
  184.75        2979.25           2559          69.00       297.30
  184.78        2979.50           2562          61.00       262.43
  184.81        2979.75           2566          73.00       314.74
  184.84        2980.00           2569          72.00       310.38
  184.87        2980.25           2573          63.00       271.14
  184.90        2980.50           2577         121.00       523.98
  184.93        2980.75           2580         116.00       502.19
  184.96        2981.00           2584          93.00       401.92
  184.99        2981.25           2587          89.00       384.49
  185.02        2981.50           2591          63.00       271.14
  185.06        2981.75           2594          67.00       288.58
  185.09        2982.00           2598          66.00       284.22
  185.12        2982.25           2601          66.00       284.22
  185.15        2982.50           2605          60.00       258.07
  185.18        2982.75           2609          63.00       271.14
  185.21        2983.00           2612          64.00       275.50
  185.24        2983.25           2616          65.00       279.86
  185.27        2983.50           2619          97.00       419.36
  185.30        2983.75           2623          93.00       401.92
  185.33        2984.00           2626          87.00       375.77
HS scan finished at 03:05:33
end
************************************************************
  HS Scan of (1) Internal mercury lamp
************************************************************
Integration time is 0.2294 seconds per sample
dh260918Reading 51.44 .94 3.78pr1000
************************************************************
Dead Time -------------------------  3.4E-08 
Number of Cycles Used -------------  4 
Starting Wavelength (Angstroms) ---  2950 
Final Wavelength (Angstoms) -------  2984 
Wavelength Increment (Angstroms) --  .25 
Filter Wheel #1 Position ---------- (1) Ground quartz diffuser (ND=2.32)
Filter Wheel #2 Position ---------- (1) Neutral Density 0.494



************************************************************
HS scan start time = 18:39:57
Dark Count =  6.5 


Time (GMT)  Wavelength (Ang)  Step Number  Raw Counts  Counts/Second

 1120.85        2950.00           2144          33.00       115.52
 1121.04        2950.25           2147          34.00       119.88
 1121.07        2950.50           2151          37.00       132.96
 1121.10        2950.75           2155          35.00       124.24
 1121.13        2951.00           2158          38.00       137.32
 1121.16        2951.25           2162          39.00       141.67
 1121.20        2951.50           2165          31.00       106.80
 1121.23        2951.75           2169          37.00       132.96
 1121.26        2952.00           2172          34.00       119.88
 1121.29        2952.25           2176          33.00       115.52
 1121.32        2952.50           2179          32.00       111.16
 1121.35        2952.75           2183          31.00       106.80
 1121.38        2953.00           2186          35.00       124.24
 1121.41        2953.25           2190          35.00       124.24
 1121.44        2953.50           2193          36.00       128.60
 1121.47        2953.75           2197          36.00       128.60
 1121.50        2954.00           2200          34.00       119.88
 1121.53        2954.25           2204          41.00       150.39
 1121.56        2954.50           2208          37.00       132.96
 1121.59        2954.75           2211          39.00       141.67
 1121.62        2955.00           2215          36.00       128.60
 1121.65        2955.25           2218          42.00       154.75
 1121.68        2955.50           2222          40.00       146.03
 1121.72        2955.75           2225          42.00       154.75
 1121.75        2956.00           2229          41.00       150.39
 1121.78        2956.25           2232          39.00       141.67
 1121.81        2956.50           2236          45.00       167.83
 1121.84        2956.75           2239          43.00       159.11
 1121.87        2957.00           2243          36.00       128.60
 1121.90        2957.25           2246          44.00       163.47
 1121.93        2957.50           2250          38.00       137.32
 1121.96        2957.75           2254          44.00       163.47
 1121.99        2958.00           2257          37.00       132.96
 1122.02        2958.25           2261          42.00       154.75
 1122.05        2958.50           2264          41.00       150.39
 1122.08        2958.75           2268          42.00       154.75
 1122.11        2959.00           2271          48.00       180.91
 1122.14        2959.25           2275          51.00       193.99
 1122.17        2959.50           2278          43.00       159.11
 1122.20        2959.75           2282          41.00       150.39
 1122.23        2960.00           2285          43.00       159.11
 1122.27        2960.25           2289          49.00       185.27
 1122.30        2960.50           2293          52.00       198.34
 1122.33        2960.75           2296          53.00       202.70
 1122.36        2961.00           2300          66.00       259.37
 1122.39        2961.25           2303          85.00       342.20
 1122.42        2961.50           2307         305.00      1301.28
 1122.45        2961.75           2310         688.00      2971.09
 1122.48        2962.00           2314        1322.00      5735.64
 1122.51        2962.25           2317        1737.00      7545.53
 1122.54        2962.50           2321        2318.00     10079.74
 1122.57        2962.75           2324        2778.00     12086.48
 1122.60        2963.00           2328        3429.00     14926.93
 1122.63        2963.25           2331        3928.00     17104.54
 1122.66        2963.50           2335        4584.00     19967.78
 1122.69        2963.75           2339        5216.00     22726.80
 1122.72        2964.00           2342        5730.00     24971.06
 1122.76        2964.25           2346        6312.00     27512.65
 1122.79        2964.50           2349        6906.00     30107.09
 1122.82        2964.75           2353        7533.00     32846.17
 1122.85        2965.00           2356        7876.00     34344.79
 1122.88        2965.25           2360        8548.00     37281.32
 1122.91        2965.50           2363        8972.00     39134.43
 1122.94        2965.75           2367        9612.00     41932.02
 1122.97        2966.00           2370       10234.00     44651.44
 1123.00        2966.25           2374       10822.00     47222.67
 1123.03        2966.50           2378       10995.00     47979.25
 1123.06        2966.75           2381       11050.00     48219.80
 1123.09        2967.00           2385       11126.00     48552.19
 1123.12        2967.25           2388       11115.00     48504.08
 1123.15        2967.50           2392       10990.00     47957.39
 1123.18        2967.75           2395       10907.00     47594.40
 1123.21        2968.00           2399       10703.00     46702.26
 1123.24        2968.25           2402       10186.00     44441.56
 1123.28        2968.50           2406       10214.00     44563.99
 1123.31        2968.75           2409        9314.00     40629.32
 1123.34        2969.00           2413        8605.00     37530.42
 1123.37        2969.25           2417        7987.00     34829.80
 1123.40        2969.50           2420        7536.00     32859.27
 1123.43        2969.75           2424        6894.00     30054.67
 1123.46        2970.00           2427        6545.00     28530.28
 1123.49        2970.25           2431        5845.00     25473.23
 1123.52        2970.50           2434        5222.00     22752.99
 1123.55        2970.75           2438        4532.00     19740.80
 1123.58        2971.00           2441        4000.00     17418.77
 1123.61        2971.25           2445        3359.00     14621.48
 1123.64        2971.50           2449        2943.00     12806.36
 1123.67        2971.75           2452        2466.00     10725.36
 1123.70        2972.00           2456        1814.00      7881.36
 1123.73        2972.25           2459        1335.00      5792.34
 1123.76        2972.50           2463         733.00      3167.30
 1123.79        2972.75           2466         379.00      1623.89
 1123.84        2973.00           2470         135.00       560.17
 1123.87        2973.25           2473          68.00       268.09
 1123.90        2973.50           2477          53.00       202.70
 1123.93        2973.75           2481          52.00       198.34
 1123.96        2974.00           2484          45.00       167.83
 1123.99        2974.25           2488          45.00       167.83
 1124.02        2974.50           2491          49.00       185.27
 1124.06        2974.75           2495          47.00       176.55
 1124.09        2975.00           2498          42.00       154.75
 1124.12        2975.25           2502          46.00       172.19
 1124.15        2975.50           2505          51.00       193.99
 1124.18        2975.75           2509          40.00       146.03
 1124.21        2976.00           2512          49.00       185.27
 1124.24        2976.25           2516          46.00       172.19
 1124.27        2976.50           2520          46.00       172.19
 1124.30        2976.75           2523          44.00       163.47
 1124.33        2977.00           2527          38.00       137.32
 1124.36        2977.25           2530          45.00       167.83
 1124.39        2977.50           2534          35.00       124.24
 1124.42        2977.75           2537          42.00       154.75
 1124.45        2978.00           2541          43.00       159.11
 1124.48        2978.25           2544          38.00       137.32
 1124.51        2978.50           2548          42.00       154.75
 1124.54        2978.75           2552          36.00       128.60
 1124.58        2979.00           2555          39.00       141.67
 1124.61        2979.25           2559          36.00       128.60
 1124.64        2979.50           2562          40.00       146.03
 1124.67        2979.75           2566          39.00       141.67
 1124.70        2980.00           2569          37.00       132.96
 1124.73        2980.25           2573          38.00       137.32
 1124.76        2980.50           2577          34.00       119.88
 1124.79        2980.75           2580          40.00       146.03
 1124.82        2981.00           2584          37.00       132.96
 1124.85        2981.25           2587          41.00       150.39
 1124.88        2981.50           2591          39.00       141.67
 1124.91        2981.75           2594          38.00       137.32
 1124.94        2982.00           2598          41.00       150.39
 1124.97        2982.25           2601          38.00       137.32
 1125.00        2982.50           2605          33.00       115.52
 1125.03        2982.75           2609          37.00       132.96
 1125.06        2983.00           2612          36.00       128.60
 1125.10        2983.25           2616          32.00       111.16
 1125.13        2983.50           2619          34.00       119.88
 1125.16        2983.75           2623          36.00       128.60
 1125.19        2984.00           2626          41.00       150.39
HS scan finished at 18:45:25
end
