************************************************************
  HS Scan of (1) Internal mercury lamp
************************************************************
Integration time is 0.2294 seconds per sample
dh220917Reading 51.44 .94 2.84pr1000
************************************************************
Dead Time -------------------------  3.4E-08 
Number of Cycles Used -------------  4 
Starting Wavelength (Angstroms) ---  2950 
Final Wavelength (Angstoms) -------  2984 
Wavelength Increment (Angstroms) --  .25 
Filter Wheel #1 Position ---------- (1) Ground quartz diffuser (ND=2.32)
Filter Wheel #2 Position ---------- (1) Neutral Density 0.494



************************************************************
HS scan start time = 02:49:25
Dark Count =  .8 


Time (GMT)  Wavelength (Ang)  Step Number  Raw Counts  Counts/Second

  170.32        2950.00           2144         126.00       545.78
  170.52        2950.25           2147         140.00       606.81
  170.55        2950.50           2151         136.00       589.38
  170.58        2950.75           2155         144.00       624.25
  170.61        2951.00           2158         134.00       580.66
  170.64        2951.25           2162         148.00       641.69
  170.67        2951.50           2165         140.00       606.81
  170.70        2951.75           2169         154.00       667.84
  170.73        2952.00           2172         150.00       650.41
  170.76        2952.25           2176         152.00       659.13
  170.79        2952.50           2179         165.00       715.80
  170.82        2952.75           2183         148.00       641.69
  170.85        2953.00           2186         152.00       659.13
  170.88        2953.25           2190         143.00       619.89
  170.91        2953.50           2193         159.00       689.64
  170.94        2953.75           2197         151.00       654.77
  170.97        2954.00           2200         158.00       685.28
  171.01        2954.25           2204         152.00       659.13
  171.04        2954.50           2208         174.00       755.03
  171.07        2954.75           2211         156.00       676.56
  171.10        2955.00           2215         154.00       667.84
  171.13        2955.25           2218         165.00       715.80
  171.16        2955.50           2222         156.00       676.56
  171.19        2955.75           2225         151.00       654.77
  171.22        2956.00           2229         155.00       672.20
  171.25        2956.25           2232         147.00       637.33
  171.28        2956.50           2236         161.00       698.36
  171.31        2956.75           2239         162.00       702.72
  171.34        2957.00           2243         162.00       702.72
  171.37        2957.25           2246         156.00       676.56
  171.40        2957.50           2250         163.00       707.08
  171.43        2957.75           2254         154.00       667.84
  171.46        2958.00           2257         170.00       737.59
  171.49        2958.25           2261         167.00       724.52
  171.53        2958.50           2264         164.00       711.44
  171.56        2958.75           2268         175.00       759.39
  171.59        2959.00           2271         184.00       798.63
  171.62        2959.25           2275         187.00       811.71
  171.65        2959.50           2278         179.00       776.83
  171.68        2959.75           2282         180.00       781.19
  171.71        2960.00           2285         177.00       768.11
  171.74        2960.25           2289         201.00       872.74
  171.77        2960.50           2293         199.00       864.02
  171.80        2960.75           2296         198.00       859.66
  171.83        2961.00           2300         236.00      1025.32
  171.86        2961.25           2303         417.00      1814.41
  171.89        2961.50           2307        1347.00      5869.52
  171.92        2961.75           2310        2832.00     12346.94
  171.95        2962.00           2314        5537.00     24153.22
  171.98        2962.25           2317        7806.00     34063.85
  172.01        2962.50           2321       10402.00     45410.95
  172.05        2962.75           2324       12380.00     54062.67
  172.08        2963.00           2328       15058.00     65784.30
  172.11        2963.25           2331       16998.00     74281.53
  172.14        2963.50           2335       19939.00     87172.55
  172.17        2963.75           2339       22853.00     99956.38
  172.20        2964.00           2342       24852.00    108732.50
  172.23        2964.25           2346       27547.00    120572.60
  172.26        2964.50           2349       29342.00    128464.00
  172.29        2964.75           2353       31909.00    139756.70
  172.32        2965.00           2356       33694.00    147614.30
  172.35        2965.25           2360       36482.00    159895.70
  172.38        2965.50           2363       38176.00    167362.90
  172.41        2965.75           2367       40185.00    176223.60
  172.44        2966.00           2370       41199.00    180697.90
  172.47        2966.25           2374       43857.00    192432.80
  172.50        2966.50           2378       44434.00    194981.40
  172.53        2966.75           2381       42959.00    188467.10
  172.56        2967.00           2385       43580.00    191209.40
  172.60        2967.25           2388       42511.00    186489.10
  172.63        2967.50           2392       43217.00    189606.40
  172.66        2967.75           2395       42239.00    185288.30
  172.69        2968.00           2399       40302.00    176739.80
  172.72        2968.25           2402       38080.00    166939.60
  172.75        2968.50           2406       36106.00    158238.80
  172.78        2968.75           2409       34431.00    150859.90
  172.81        2969.00           2413       31515.00    138022.80
  172.84        2969.25           2417       29060.00    127223.90
  172.87        2969.50           2420       27606.00    120831.90
  172.90        2969.75           2424       24920.00    109031.20
  172.93        2970.00           2427       23298.00    101909.60
  172.96        2970.25           2431       20794.00     90922.31
  172.99        2970.50           2434       18822.00     82275.18
  173.02        2970.75           2438       16993.00     74259.62
  173.05        2971.00           2441       14667.00     64072.30
  173.08        2971.25           2445       12278.00     53616.40
  173.12        2971.50           2449       10218.00     44606.40
  173.15        2971.75           2452        8419.00     36742.47
  173.18        2972.00           2456        6321.00     27576.85
  173.21        2972.25           2459        4848.00     21145.10
  173.24        2972.50           2463        2760.00     12032.82
  173.27        2972.75           2466        1401.00      6105.02
  173.30        2973.00           2470         386.00      1679.26
  173.33        2973.25           2473         200.00       868.38
  173.36        2973.50           2477         171.00       741.95
  173.39        2973.75           2481         156.00       676.56
  173.42        2974.00           2484         163.00       707.08
  173.45        2974.25           2488         171.00       741.95
  173.48        2974.50           2491         165.00       715.80
  173.51        2974.75           2495         141.00       611.17
  173.54        2975.00           2498         138.00       598.09
  173.57        2975.25           2502         137.00       593.73
  173.60        2975.50           2505         147.00       637.33
  173.64        2975.75           2509         138.00       598.09
  173.67        2976.00           2512         138.00       598.09
  173.70        2976.25           2516         140.00       606.81
  173.73        2976.50           2520         124.00       537.06
  173.76        2976.75           2523         160.00       694.00
  173.79        2977.00           2527         122.00       528.34
  173.82        2977.25           2530         155.00       672.20
  173.85        2977.50           2534         150.00       650.41
  173.88        2977.75           2537         148.00       641.69
  173.91        2978.00           2541         120.00       519.63
  173.94        2978.25           2544         127.00       550.14
  173.97        2978.50           2548         138.00       598.09
  174.00        2978.75           2552         130.00       563.22
  174.03        2979.00           2555         163.00       707.08
  174.06        2979.25           2559         108.00       467.31
  174.09        2979.50           2562         134.00       580.66
  174.12        2979.75           2566         123.00       532.70
  174.16        2980.00           2569         106.00       458.59
  174.19        2980.25           2573         106.00       458.59
  174.22        2980.50           2577         105.00       454.24
  174.25        2980.75           2580         100.00       432.44
  174.28        2981.00           2584          93.00       401.92
  174.31        2981.25           2587         128.00       554.50
  174.34        2981.50           2591         102.00       441.16
  174.37        2981.75           2594          92.00       397.56
  174.40        2982.00           2598         106.00       458.59
  174.43        2982.25           2601         126.00       545.78
  174.46        2982.50           2605          98.00       423.72
  174.49        2982.75           2609         107.00       462.95
  174.52        2983.00           2612         121.00       523.98
  174.55        2983.25           2616          96.00       415.00
  174.58        2983.50           2619          95.00       410.64
  174.61        2983.75           2623         100.00       432.44
  174.65        2984.00           2626         106.00       458.59
HS scan finished at 02:54:52
end
************************************************************
  HS Scan of (1) Internal mercury lamp
************************************************************
Integration time is 0.2294 seconds per sample
dh220917Reading 51.44 .94 3.47pr1000
************************************************************
Dead Time -------------------------  3.4E-08 
Number of Cycles Used -------------  4 
Starting Wavelength (Angstroms) ---  2950 
Final Wavelength (Angstoms) -------  2984 
Wavelength Increment (Angstroms) --  .25 
Filter Wheel #1 Position ---------- (1) Ground quartz diffuser (ND=2.32)
Filter Wheel #2 Position ---------- (1) Neutral Density 0.494



************************************************************
HS scan start time = 19:07:28
Dark Count =  2.8 


Time (GMT)  Wavelength (Ang)  Step Number  Raw Counts  Counts/Second

 1148.36        2950.00           2144          99.00       419.36
 1148.56        2950.25           2147          89.00       375.77
 1148.59        2950.50           2151         102.00       432.44
 1148.62        2950.75           2155          96.00       406.28
 1148.65        2951.00           2158          92.00       388.85
 1148.68        2951.25           2162         107.00       454.24
 1148.71        2951.50           2165          99.00       419.36
 1148.74        2951.75           2169         110.00       467.31
 1148.77        2952.00           2172          98.00       415.00
 1148.80        2952.25           2176          93.00       393.20
 1148.83        2952.50           2179          94.00       397.56
 1148.86        2952.75           2183          92.00       388.85
 1148.89        2953.00           2186          87.00       367.05
 1148.92        2953.25           2190          97.00       410.64
 1148.95        2953.50           2193          87.00       367.05
 1148.98        2953.75           2197         118.00       502.19
 1149.01        2954.00           2200         123.00       523.98
 1149.04        2954.25           2204         106.00       449.88
 1149.08        2954.50           2208         118.00       502.19
 1149.11        2954.75           2211         128.00       545.78
 1149.14        2955.00           2215         106.00       449.88
 1149.17        2955.25           2218         147.00       628.61
 1149.20        2955.50           2222         131.00       558.86
 1149.23        2955.75           2225         116.00       493.47
 1149.26        2956.00           2229         114.00       484.75
 1149.29        2956.25           2232         123.00       523.98
 1149.32        2956.50           2236         150.00       641.69
 1149.35        2956.75           2239         132.00       563.22
 1149.38        2957.00           2243         137.00       585.02
 1149.41        2957.25           2246         117.00       497.83
 1149.44        2957.50           2250         146.00       624.25
 1149.47        2957.75           2254         147.00       628.61
 1149.50        2958.00           2257         123.00       523.98
 1149.53        2958.25           2261         138.00       589.38
 1149.56        2958.50           2264         148.00       632.97
 1149.60        2958.75           2268         133.00       567.58
 1149.63        2959.00           2271         158.00       676.56
 1149.66        2959.25           2275         140.00       598.09
 1149.69        2959.50           2278         173.00       741.95
 1149.72        2959.75           2282         152.00       650.41
 1149.75        2960.00           2285         146.00       624.25
 1149.78        2960.25           2289         166.00       711.44
 1149.81        2960.50           2293         157.00       672.20
 1149.84        2960.75           2296         166.00       711.44
 1149.87        2961.00           2300         179.00       768.11
 1149.90        2961.25           2303         395.00      1709.78
 1149.93        2961.50           2307        1396.00      6074.49
 1149.96        2961.75           2310        2553.00     11121.03
 1149.99        2962.00           2314        5002.00     21808.67
 1150.02        2962.25           2317        5622.00     24515.63
 1150.05        2962.50           2321        7543.00     32906.02
 1150.08        2962.75           2324        8820.00     38486.25
 1150.12        2963.00           2328       10789.00     47094.53
 1150.15        2963.25           2331       12215.00     53332.02
 1150.18        2963.50           2335       13863.00     60543.86
 1150.21        2963.75           2339       16725.00     73076.71
 1150.24        2964.00           2342       17476.00     76367.16
 1150.27        2964.25           2346       19299.00     84357.56
 1150.30        2964.50           2349       20849.00     91154.79
 1150.33        2964.75           2353       23012.00    100645.50
 1150.36        2965.00           2356       24375.00    106629.10
 1150.39        2965.25           2360       26008.00    113801.30
 1150.42        2965.50           2363       27068.00    118458.70
 1150.45        2965.75           2367       29135.00    127544.90
 1150.48        2966.00           2370       30644.00    134181.80
 1150.51        2966.25           2374       32110.00    140632.50
 1150.54        2966.50           2378       32812.00    143722.40
 1150.57        2966.75           2381       33278.00    145773.90
 1150.60        2967.00           2385       33446.00    146513.60
 1150.64        2967.25           2388       33341.00    146051.30
 1150.67        2967.50           2392       33178.00    145333.60
 1150.70        2967.75           2395       36801.00    161292.70
 1150.73        2968.00           2399       32429.00    142036.50
 1150.76        2968.25           2402       31171.00    136500.40
 1150.79        2968.50           2406       29360.00    128534.30
 1150.82        2968.75           2409       27889.00    122067.00
 1150.85        2969.00           2413       26181.00    114561.30
 1150.88        2969.25           2417       24581.00    107533.70
 1150.91        2969.50           2420       23212.00    101523.30
 1150.94        2969.75           2424       20933.00     91523.24
 1150.97        2970.00           2427       19070.00     83353.59
 1151.00        2970.25           2431       17004.00     74299.05
 1151.03        2970.50           2434       15828.00     69147.56
 1151.06        2970.75           2438       13857.00     60517.60
 1151.09        2971.00           2441       12516.00     54648.96
 1151.12        2971.25           2445       10361.00     45222.93
 1151.16        2971.50           2449        8321.00     36305.47
 1151.19        2971.75           2452        6814.00     29721.39
 1151.22        2972.00           2456        4812.00     20979.22
 1151.25        2972.25           2459        3454.00     15052.17
 1151.28        2972.50           2463        1821.00      7928.03
 1151.31        2972.75           2466         888.00      3859.27
 1151.34        2973.00           2470         295.00      1273.81
 1151.37        2973.25           2473         186.00       798.63
 1151.40        2973.50           2477         143.00       611.17
 1151.43        2973.75           2481         152.00       650.41
 1151.46        2974.00           2484         144.00       615.53
 1151.49        2974.25           2488         133.00       567.58
 1151.52        2974.50           2491         144.00       615.53
 1151.55        2974.75           2495         137.00       585.02
 1151.58        2975.00           2498         120.00       510.91
 1151.61        2975.25           2502         121.00       515.27
 1151.64        2975.50           2505         124.00       528.34
 1151.68        2975.75           2509         137.00       585.02
 1151.71        2976.00           2512         129.00       550.14
 1151.74        2976.25           2516         129.00       550.14
 1151.77        2976.50           2520         123.00       523.98
 1151.80        2976.75           2523         125.00       532.70
 1151.83        2977.00           2527         125.00       532.70
 1151.86        2977.25           2530         105.00       445.52
 1151.89        2977.50           2534         106.00       449.88
 1151.92        2977.75           2537         105.00       445.52
 1151.95        2978.00           2541         135.00       576.30
 1151.98        2978.25           2544         100.00       423.72
 1152.01        2978.50           2548         102.00       432.44
 1152.04        2978.75           2552         120.00       510.91
 1152.07        2979.00           2555         106.00       449.88
 1152.10        2979.25           2559         101.00       428.08
 1152.13        2979.50           2562         104.00       441.16
 1152.16        2979.75           2566         102.00       432.44
 1152.20        2980.00           2569         115.00       489.11
 1152.23        2980.25           2573          90.00       380.13
 1152.26        2980.50           2577          91.00       384.49
 1152.29        2980.75           2580          95.00       401.92
 1152.32        2981.00           2584          84.00       353.97
 1152.35        2981.25           2587          98.00       415.00
 1152.38        2981.50           2591          91.00       384.49
 1152.41        2981.75           2594          95.00       401.92
 1152.44        2982.00           2598         103.00       436.80
 1152.47        2982.25           2601          96.00       406.28
 1152.50        2982.50           2605          82.00       345.25
 1152.53        2982.75           2609          94.00       397.56
 1152.56        2983.00           2612          92.00       388.85
 1152.59        2983.25           2616          86.00       362.69
 1152.62        2983.50           2619          91.00       384.49
 1152.65        2983.75           2623          94.00       397.56
 1152.68        2984.00           2626         118.00       502.19
HS scan finished at 19:12:55
end
