************************************************************
  HS Scan of (1) Internal mercury lamp
************************************************************
Integration time is 0.2294 seconds per sample
dh250918Reading 51.44 .94 2.62pr1000
************************************************************
Dead Time -------------------------  3.4E-08 
Number of Cycles Used -------------  4 
Starting Wavelength (Angstroms) ---  2950 
Final Wavelength (Angstoms) -------  2984 
Wavelength Increment (Angstroms) --  .25 
Filter Wheel #1 Position ---------- (1) Ground quartz diffuser (ND=2.32)
Filter Wheel #2 Position ---------- (1) Neutral Density 0.494



************************************************************
HS scan start time = 02:57:21
Dark Count =  .4 


Time (GMT)  Wavelength (Ang)  Step Number  Raw Counts  Counts/Second

  178.26        2950.00           2144          99.00       429.82
  178.45        2950.25           2147         100.00       434.18
  178.48        2950.50           2151         105.00       455.98
  178.51        2950.75           2155         124.00       538.81
  178.54        2951.00           2158         114.00       495.21
  178.57        2951.25           2162         104.00       451.62
  178.60        2951.50           2165         102.00       442.90
  178.63        2951.75           2169         143.00       621.63
  178.66        2952.00           2172         102.00       442.90
  178.69        2952.25           2176         102.00       442.90
  178.72        2952.50           2179         123.00       534.45
  178.75        2952.75           2183         102.00       442.90
  178.79        2953.00           2186         105.00       455.98
  178.82        2953.25           2190         105.00       455.98
  178.85        2953.50           2193         106.00       460.34
  178.88        2953.75           2197          99.00       429.82
  178.91        2954.00           2200         102.00       442.90
  178.94        2954.25           2204          97.00       421.10
  178.97        2954.50           2208         107.00       464.70
  179.00        2954.75           2211         111.00       482.14
  179.03        2955.00           2215         130.00       564.96
  179.06        2955.25           2218         105.00       455.98
  179.09        2955.50           2222         111.00       482.14
  179.12        2955.75           2225         136.00       591.12
  179.15        2956.00           2229         122.00       530.09
  179.18        2956.25           2232         131.00       569.32
  179.21        2956.50           2236         160.00       695.74
  179.24        2956.75           2239         136.00       591.12
  179.27        2957.00           2243         134.00       582.40
  179.31        2957.25           2246         120.00       521.37
  179.34        2957.50           2250         121.00       525.73
  179.37        2957.75           2254         138.00       599.84
  179.40        2958.00           2257         125.00       543.17
  179.43        2958.25           2261         132.00       573.68
  179.46        2958.50           2264         127.00       551.88
  179.49        2958.75           2268         166.00       721.90
  179.52        2959.00           2271         122.00       530.09
  179.55        2959.25           2275         135.00       586.76
  179.58        2959.50           2278         152.00       660.87
  179.61        2959.75           2282         140.00       608.56
  179.64        2960.00           2285         155.00       673.95
  179.68        2960.25           2289         145.00       630.35
  179.71        2960.50           2293         169.00       734.98
  179.74        2960.75           2296         154.00       669.59
  179.77        2961.00           2300         197.00       857.04
  179.80        2961.25           2303         361.00      1572.01
  179.83        2961.50           2307        1355.00      5906.16
  179.86        2961.75           2310        2611.00     11384.53
  179.89        2962.00           2314        4597.00     20051.16
  179.92        2962.25           2317        5929.00     25866.68
  179.95        2962.50           2321        8034.00     35061.83
  179.98        2962.75           2324        9687.00     42286.56
  180.02        2963.00           2328       12097.00     52826.27
  180.05        2963.25           2331       13801.00     60282.98
  180.08        2963.50           2335       15854.00     69271.94
  180.11        2963.75           2339       18136.00     79270.03
  180.14        2964.00           2342       20060.00     87704.91
  180.17        2964.25           2346       22305.00     97553.19
  180.20        2964.50           2349       24004.00    105010.70
  180.23        2964.75           2353       26292.00    115059.50
  180.26        2965.00           2356       27946.00    122328.10
  180.29        2965.25           2360       30035.00    131513.50
  180.32        2965.50           2363       31523.00    138059.80
  180.35        2965.75           2367       33336.00    146039.80
  180.38        2966.00           2370       34917.00    153002.20
  180.41        2966.25           2374       36898.00    161730.90
  180.44        2966.50           2378       37650.00    165045.60
  180.47        2966.75           2381       37891.00    166108.10
  180.50        2967.00           2385       37784.00    165636.40
  180.54        2967.25           2388       37911.00    166196.30
  180.57        2967.50           2392       37937.00    166310.90
  180.60        2967.75           2395       37656.00    165072.10
  180.63        2968.00           2399       36245.00    158853.00
  180.66        2968.25           2402       35021.00    153460.40
  180.69        2968.50           2406       32728.00    143363.20
  180.72        2968.75           2409       31416.00    137589.00
  180.75        2969.00           2413       29554.00    129398.00
  180.78        2969.25           2417       27161.00    118878.00
  180.81        2969.50           2420       25610.00    112063.50
  180.84        2969.75           2424       23509.00    102837.60
  180.87        2970.00           2427       21714.00     94959.99
  180.90        2970.25           2431       19394.00     84784.59
  180.93        2970.50           2434       17657.00     77170.84
  180.96        2970.75           2438       15334.00     66994.62
  180.99        2971.00           2441       13654.00     59639.56
  181.02        2971.25           2445       11775.00     51417.63
  181.06        2971.50           2449        9779.00     42688.77
  181.09        2971.75           2452        8004.00     34930.74
  181.12        2972.00           2456        5719.00     24949.67
  181.15        2972.25           2459        4107.00     17912.39
  181.18        2972.50           2463        2232.00      9731.21
  181.21        2972.75           2466        1179.00      5138.65
  181.24        2973.00           2470         387.00      1685.36
  181.27        2973.25           2473         211.00       918.08
  181.30        2973.50           2477         164.00       713.18
  181.33        2973.75           2481         162.00       704.46
  181.36        2974.00           2484         146.00       634.71
  181.39        2974.25           2488         166.00       721.90
  181.42        2974.50           2491         139.00       604.20
  181.45        2974.75           2495         167.00       726.26
  181.48        2975.00           2498         165.00       717.54
  181.51        2975.25           2502         133.00       578.04
  181.54        2975.50           2505         131.00       569.32
  181.58        2975.75           2509         126.00       547.53
  181.61        2976.00           2512         118.00       512.65
  181.64        2976.25           2516         163.00       708.82
  181.67        2976.50           2520         146.00       634.71
  181.70        2976.75           2523         115.00       499.57
  181.73        2977.00           2527         139.00       604.20
  181.76        2977.25           2530         145.00       630.35
  181.79        2977.50           2534         118.00       512.65
  181.82        2977.75           2537         128.00       556.24
  181.85        2978.00           2541         129.00       560.60
  181.88        2978.25           2544         129.00       560.60
  181.91        2978.50           2548         107.00       464.70
  181.94        2978.75           2552         117.00       508.29
  181.97        2979.00           2555         114.00       495.21
  182.00        2979.25           2559         154.00       669.59
  182.03        2979.50           2562         134.00       582.40
  182.06        2979.75           2566         121.00       525.73
  182.10        2980.00           2569         108.00       469.06
  182.13        2980.25           2573          91.00       394.95
  182.16        2980.50           2577         101.00       438.54
  182.19        2980.75           2580         116.00       503.93
  182.22        2981.00           2584         100.00       434.18
  182.25        2981.25           2587         106.00       460.34
  182.28        2981.50           2591         107.00       464.70
  182.31        2981.75           2594         105.00       455.98
  182.34        2982.00           2598          99.00       429.82
  182.37        2982.25           2601          99.00       429.82
  182.40        2982.50           2605         116.00       503.93
  182.43        2982.75           2609          94.00       408.03
  182.46        2983.00           2612          93.00       403.67
  182.49        2983.25           2616          94.00       408.03
  182.52        2983.50           2619          95.00       412.39
  182.55        2983.75           2623          94.00       408.03
  182.58        2984.00           2626          95.00       412.39
HS scan finished at 03:02:48
end
************************************************************
  HS Scan of (1) Internal mercury lamp
************************************************************
Integration time is 0.2294 seconds per sample
dh250918Reading 51.44 .94 3.41pr1000
************************************************************
Dead Time -------------------------  3.4E-08 
Number of Cycles Used -------------  4 
Starting Wavelength (Angstroms) ---  2950 
Final Wavelength (Angstoms) -------  2984 
Wavelength Increment (Angstroms) --  .25 
Filter Wheel #1 Position ---------- (1) Ground quartz diffuser (ND=2.32)
Filter Wheel #2 Position ---------- (1) Neutral Density 0.494



************************************************************
HS scan start time = 18:37:25
Dark Count =  2.5 


Time (GMT)  Wavelength (Ang)  Step Number  Raw Counts  Counts/Second

 1118.32        2950.00           2144          43.00       176.55
 1118.51        2950.25           2147          46.00       189.63
 1118.54        2950.50           2151          42.00       172.19
 1118.57        2950.75           2155          42.00       172.19
 1118.60        2951.00           2158          38.00       154.75
 1118.63        2951.25           2162          41.00       167.83
 1118.66        2951.50           2165          33.00       132.96
 1118.70        2951.75           2169          42.00       172.19
 1118.73        2952.00           2172          39.00       159.11
 1118.76        2952.25           2176          43.00       176.55
 1118.79        2952.50           2179          39.00       159.11
 1118.82        2952.75           2183          43.00       176.55
 1118.85        2953.00           2186          37.00       150.39
 1118.88        2953.25           2190          43.00       176.55
 1118.91        2953.50           2193          38.00       154.75
 1118.94        2953.75           2197          39.00       159.11
 1118.97        2954.00           2200          59.00       246.30
 1119.00        2954.25           2204          51.00       211.42
 1119.03        2954.50           2208          55.00       228.86
 1119.06        2954.75           2211          56.00       233.22
 1119.09        2955.00           2215          56.00       233.22
 1119.12        2955.25           2218          57.00       237.58
 1119.15        2955.50           2222          54.00       224.50
 1119.18        2955.75           2225          56.00       233.22
 1119.22        2956.00           2229          63.00       263.73
 1119.25        2956.25           2232          45.00       185.27
 1119.28        2956.50           2236          41.00       167.83
 1119.31        2956.75           2239          41.00       167.83
 1119.34        2957.00           2243          45.00       185.27
 1119.37        2957.25           2246          42.00       172.19
 1119.40        2957.50           2250          42.00       172.19
 1119.43        2957.75           2254          44.00       180.91
 1119.46        2958.00           2257          45.00       185.27
 1119.49        2958.25           2261          45.00       185.27
 1119.52        2958.50           2264          41.00       167.83
 1119.55        2958.75           2268          45.00       185.27
 1119.58        2959.00           2271          44.00       180.91
 1119.61        2959.25           2275          49.00       202.70
 1119.64        2959.50           2278          48.00       198.34
 1119.67        2959.75           2282          45.00       185.27
 1119.70        2960.00           2285          46.00       189.63
 1119.74        2960.25           2289          53.00       220.14
 1119.77        2960.50           2293          52.00       215.78
 1119.80        2960.75           2296          62.00       259.37
 1119.83        2961.00           2300          76.00       320.40
 1119.86        2961.25           2303         152.00       651.71
 1119.89        2961.50           2307         469.00      2033.71
 1119.92        2961.75           2310         915.00      3978.31
 1119.95        2962.00           2314        1611.00      7013.44
 1119.98        2962.25           2317        2115.00      9211.69
 1120.01        2962.50           2321        2838.00     12365.70
 1120.04        2962.75           2324        3366.00     14669.48
 1120.08        2963.00           2328        4050.00     17654.45
 1120.11        2963.25           2331        4591.00     20015.80
 1120.14        2963.50           2335        5225.00     22783.56
 1120.17        2963.75           2339        6008.00     26202.50
 1120.20        2964.00           2342        6459.00     28172.14
 1120.23        2964.25           2346        7282.00     31767.07
 1120.26        2964.50           2349        7731.00     33728.72
 1120.29        2964.75           2353        8348.00     36424.77
 1120.32        2965.00           2356        9020.00     39361.71
 1120.35        2965.25           2360        9627.00     42015.08
 1120.38        2965.50           2363       10238.00     44686.42
 1120.42        2965.75           2367       10954.00     47817.44
 1120.45        2966.00           2370       11578.00     50546.69
 1120.48        2966.25           2374       12058.00     52646.47
 1120.51        2966.50           2378       12242.00     53451.46
 1120.54        2966.75           2381       12334.00     53853.97
 1120.57        2967.00           2385       12240.00     53442.71
 1120.60        2967.25           2388       12137.00     52992.08
 1120.63        2967.50           2392       11887.00     51898.39
 1120.66        2967.75           2395       12016.00     52462.72
 1120.69        2968.00           2399       11589.00     50594.81
 1120.72        2968.25           2402       10975.00     47909.28
 1120.75        2968.50           2406       10140.00     44257.92
 1120.78        2968.75           2409       10298.00     44948.77
 1120.81        2969.00           2413        9716.00     42404.17
 1120.84        2969.25           2417        9122.00     39807.55
 1120.87        2969.50           2420        8131.00     35476.51
 1120.90        2969.75           2424        7392.00     32247.63
 1120.93        2970.00           2427        6773.00     29543.61
 1120.97        2970.25           2431        6165.00     26888.13
 1121.00        2970.50           2434        5726.00     24971.06
 1121.03        2970.75           2438        5154.00     22473.57
 1121.06        2971.00           2441        4512.00     19670.95
 1121.09        2971.25           2445        3713.00     16183.71
 1121.12        2971.50           2449        2995.00     13050.69
 1121.15        2971.75           2452        2493.00     10860.59
 1121.18        2972.00           2456        1748.00      7610.95
 1121.21        2972.25           2459        1337.00      5818.50
 1121.24        2972.50           2463         712.00      3093.18
 1121.27        2972.75           2466         346.00      1497.46
 1121.30        2973.00           2470         124.00       529.65
 1121.33        2973.25           2473          65.00       272.45
 1121.36        2973.50           2477          49.00       202.70
 1121.39        2973.75           2481          54.00       224.50
 1121.42        2974.00           2484          55.00       228.86
 1121.45        2974.25           2488          53.00       220.14
 1121.49        2974.50           2491          48.00       198.34
 1121.52        2974.75           2495          49.00       202.70
 1121.55        2975.00           2498          48.00       198.34
 1121.58        2975.25           2502          47.00       193.99
 1121.61        2975.50           2505          55.00       228.86
 1121.64        2975.75           2509          44.00       180.91
 1121.67        2976.00           2512          43.00       176.55
 1121.70        2976.25           2516          47.00       193.99
 1121.73        2976.50           2520          41.00       167.83
 1121.76        2976.75           2523          46.00       189.63
 1121.79        2977.00           2527          48.00       198.34
 1121.82        2977.25           2530          44.00       180.91
 1121.85        2977.50           2534          45.00       185.27
 1121.88        2977.75           2537          42.00       172.19
 1121.91        2978.00           2541          43.00       176.55
 1121.94        2978.25           2544          43.00       176.55
 1121.97        2978.50           2548          37.00       150.39
 1122.01        2978.75           2552          40.00       163.47
 1122.04        2979.00           2555          43.00       176.55
 1122.07        2979.25           2559          41.00       167.83
 1122.10        2979.50           2562          41.00       167.83
 1122.13        2979.75           2566          43.00       176.55
 1122.16        2980.00           2569          39.00       159.11
 1122.19        2980.25           2573          40.00       163.47
 1122.22        2980.50           2577          41.00       167.83
 1122.25        2980.75           2580          38.00       154.75
 1122.28        2981.00           2584          40.00       163.47
 1122.31        2981.25           2587          37.00       150.39
 1122.34        2981.50           2591          34.00       137.32
 1122.37        2981.75           2594          41.00       167.83
 1122.40        2982.00           2598          37.00       150.39
 1122.43        2982.25           2601          36.00       146.03
 1122.46        2982.50           2605          36.00       146.03
 1122.49        2982.75           2609          39.00       159.11
 1122.53        2983.00           2612          42.00       172.19
 1122.56        2983.25           2616          39.00       159.11
 1122.59        2983.50           2619          39.00       159.11
 1122.62        2983.75           2623          37.00       150.39
 1122.65        2984.00           2626          34.00       137.32
HS scan finished at 18:42:52
end
