************************************************************
  HS Scan of (1) Internal mercury lamp
************************************************************
Integration time is 0.2294 seconds per sample
dh240918Reading 51.44 .94 2.66pr1000
************************************************************
Dead Time -------------------------  3.4E-08 
Number of Cycles Used -------------  4 
Starting Wavelength (Angstroms) ---  2950 
Final Wavelength (Angstoms) -------  2984 
Wavelength Increment (Angstroms) --  .25 
Filter Wheel #1 Position ---------- (1) Ground quartz diffuser (ND=2.32)
Filter Wheel #2 Position ---------- (1) Neutral Density 0.494



************************************************************
HS scan start time = 02:54:32
Dark Count =  .4 


Time (GMT)  Wavelength (Ang)  Step Number  Raw Counts  Counts/Second

  175.43        2950.00           2144         116.00       503.93
  175.62        2950.25           2147         100.00       434.18
  175.65        2950.50           2151         116.00       503.93
  175.68        2950.75           2155          94.00       408.03
  175.71        2951.00           2158         103.00       447.26
  175.75        2951.25           2162         120.00       521.37
  175.78        2951.50           2165         139.00       604.20
  175.81        2951.75           2169          96.00       416.75
  175.84        2952.00           2172         157.00       682.67
  175.87        2952.25           2176          98.00       425.46
  175.90        2952.50           2179         106.00       460.34
  175.93        2952.75           2183         123.00       534.45
  175.96        2953.00           2186         123.00       534.45
  175.99        2953.25           2190         103.00       447.26
  176.02        2953.50           2193         102.00       442.90
  176.05        2953.75           2197         128.00       556.24
  176.08        2954.00           2200         104.00       451.62
  176.11        2954.25           2204         105.00       455.98
  176.14        2954.50           2208         108.00       469.06
  176.17        2954.75           2211         102.00       442.90
  176.20        2955.00           2215         106.00       460.34
  176.23        2955.25           2218         127.00       551.88
  176.27        2955.50           2222         105.00       455.98
  176.30        2955.75           2225         130.00       564.96
  176.33        2956.00           2229         123.00       534.45
  176.36        2956.25           2232         110.00       477.78
  176.39        2956.50           2236         123.00       534.45
  176.42        2956.75           2239         122.00       530.09
  176.45        2957.00           2243         115.00       499.57
  176.48        2957.25           2246         119.00       517.01
  176.51        2957.50           2250         135.00       586.76
  176.54        2957.75           2254         127.00       551.88
  176.57        2958.00           2257         119.00       517.01
  176.60        2958.25           2261         181.00       787.29
  176.63        2958.50           2264         134.00       582.40
  176.66        2958.75           2268         117.00       508.29
  176.69        2959.00           2271         148.00       643.43
  176.72        2959.25           2275         156.00       678.31
  176.75        2959.50           2278         133.00       578.04
  176.78        2959.75           2282         161.00       700.10
  176.82        2960.00           2285         141.00       612.92
  176.85        2960.25           2289         156.00       678.31
  176.88        2960.50           2293         140.00       608.56
  176.91        2960.75           2296         163.00       708.82
  176.94        2961.00           2300         193.00       839.61
  176.97        2961.25           2303         381.00      1659.20
  177.00        2961.50           2307        1475.00      6429.48
  177.03        2961.75           2310        2681.00     11689.91
  177.06        2962.00           2314        4608.00     20099.17
  177.09        2962.25           2317        6124.00     26718.25
  177.12        2962.50           2321        7963.00     34751.59
  177.15        2962.75           2324        9462.00     41302.95
  177.18        2963.00           2328       11564.00     50494.64
  177.21        2963.25           2331       13214.00     57713.84
  177.24        2963.50           2335       15651.00     68382.87
  177.27        2963.75           2339       17983.00     78599.49
  177.30        2964.00           2342       19666.00     85977.21
  177.34        2964.25           2346       21571.00     94332.59
  177.37        2964.50           2349       23273.00    101801.60
  177.40        2964.75           2353       25656.00    112265.60
  177.43        2965.00           2356       27321.00    119581.10
  177.46        2965.25           2360       29567.00    129455.20
  177.49        2965.50           2363       30949.00    135534.20
  177.52        2965.75           2367       33158.00    145256.20
  177.55        2966.00           2370       34766.00    152337.10
  177.58        2966.25           2374       36637.00    160580.60
  177.61        2966.50           2378       37720.00    165354.20
  177.64        2966.75           2381       38332.00    168052.50
  177.67        2967.00           2385       38319.00    167995.20
  177.70        2967.25           2388       38143.00    167219.20
  177.73        2967.50           2392       38219.00    167554.30
  177.76        2967.75           2395       37842.00    165892.10
  177.79        2968.00           2399       37245.00    163260.30
  177.82        2968.25           2402       35769.00    156755.70
  177.86        2968.50           2406       33685.00    147576.50
  177.89        2968.75           2409       32153.00    140832.30
  177.92        2969.00           2413       30182.00    132160.10
  177.95        2969.25           2417       27934.00    122275.40
  177.98        2969.50           2420       25981.00    113693.20
  178.01        2969.75           2424       23901.00    104558.50
  178.04        2970.00           2427       21693.00     94867.84
  178.07        2970.25           2431       19419.00     84894.21
  178.10        2970.50           2434       17622.00     77017.46
  178.13        2970.75           2438       15533.00     67866.10
  178.16        2971.00           2441       13564.00     59245.64
  178.19        2971.25           2445       11492.00     50179.70
  178.22        2971.50           2449        9561.00     41735.73
  178.25        2971.75           2452        7881.00     34393.29
  178.28        2972.00           2456        5380.00     23469.46
  178.31        2972.25           2459        3807.00     16603.09
  178.34        2972.50           2463        1974.00      8605.83
  178.38        2972.75           2466         953.00      4153.16
  178.41        2973.00           2470         313.00      1362.75
  178.44        2973.25           2473         202.00       878.84
  178.47        2973.50           2477         170.00       739.34
  178.50        2973.75           2481         172.00       748.06
  178.53        2974.00           2484         155.00       673.95
  178.56        2974.25           2488         142.00       617.28
  178.59        2974.50           2491         139.00       604.20
  178.62        2974.75           2495         137.00       595.48
  178.65        2975.00           2498         153.00       665.23
  178.68        2975.25           2502         165.00       717.54
  178.71        2975.50           2505         148.00       643.43
  178.74        2975.75           2509         145.00       630.35
  178.77        2976.00           2512         128.00       556.24
  178.80        2976.25           2516         129.00       560.60
  178.83        2976.50           2520         144.00       625.99
  178.86        2976.75           2523         135.00       586.76
  178.90        2977.00           2527         117.00       508.29
  178.93        2977.25           2530         133.00       578.04
  178.96        2977.50           2534         113.00       490.85
  178.99        2977.75           2537         105.00       455.98
  179.02        2978.00           2541         144.00       625.99
  179.05        2978.25           2544         108.00       469.06
  179.08        2978.50           2548         111.00       482.14
  179.11        2978.75           2552         144.00       625.99
  179.14        2979.00           2555         116.00       503.93
  179.17        2979.25           2559         114.00       495.21
  179.20        2979.50           2562         106.00       460.34
  179.23        2979.75           2566         141.00       612.92
  179.26        2980.00           2569         105.00       455.98
  179.29        2980.25           2573         101.00       438.54
  179.32        2980.50           2577          98.00       425.46
  179.35        2980.75           2580         125.00       543.17
  179.38        2981.00           2584          97.00       421.10
  179.42        2981.25           2587         104.00       451.62
  179.45        2981.50           2591         132.00       573.68
  179.48        2981.75           2594          97.00       421.10
  179.51        2982.00           2598         105.00       455.98
  179.54        2982.25           2601         100.00       434.18
  179.57        2982.50           2605         116.00       503.93
  179.60        2982.75           2609         103.00       447.26
  179.63        2983.00           2612         101.00       438.54
  179.66        2983.25           2616         117.00       508.29
  179.69        2983.50           2619         121.00       525.73
  179.72        2983.75           2623         109.00       473.42
  179.75        2984.00           2626          98.00       425.46
HS scan finished at 02:59:58
end
************************************************************
  HS Scan of (1) Internal mercury lamp
************************************************************
Integration time is 0.2294 seconds per sample
dh240918Reading 51.44 .94 3.27pr1000
************************************************************
Dead Time -------------------------  3.4E-08 
Number of Cycles Used -------------  4 
Starting Wavelength (Angstroms) ---  2950 
Final Wavelength (Angstoms) -------  2984 
Wavelength Increment (Angstroms) --  .25 
Filter Wheel #1 Position ---------- (1) Ground quartz diffuser (ND=2.32)
Filter Wheel #2 Position ---------- (1) Neutral Density 0.494



************************************************************
HS scan start time = 19:07:27
Dark Count =  1.9 


Time (GMT)  Wavelength (Ang)  Step Number  Raw Counts  Counts/Second

 1148.34        2950.00           2144          65.00       275.07
 1148.53        2950.25           2147          72.00       305.58
 1148.57        2950.50           2151          66.00       279.43
 1148.60        2950.75           2155          72.00       305.58
 1148.63        2951.00           2158          65.00       275.07
 1148.66        2951.25           2162          64.00       270.71
 1148.69        2951.50           2165          71.00       301.22
 1148.72        2951.75           2169          65.00       275.07
 1148.75        2952.00           2172          65.00       275.07
 1148.78        2952.25           2176          67.00       283.79
 1148.81        2952.50           2179          67.00       283.79
 1148.84        2952.75           2183          69.00       292.51
 1148.87        2953.00           2186          58.00       244.55
 1148.90        2953.25           2190          70.00       296.86
 1148.93        2953.50           2193          76.00       323.02
 1148.96        2953.75           2197          77.00       327.38
 1148.99        2954.00           2200          75.00       318.66
 1149.02        2954.25           2204          67.00       283.79
 1149.05        2954.50           2208          70.00       296.86
 1149.08        2954.75           2211          70.00       296.86
 1149.12        2955.00           2215          76.00       323.02
 1149.15        2955.25           2218          71.00       301.22
 1149.18        2955.50           2222          70.00       296.86
 1149.21        2955.75           2225          71.00       301.22
 1149.24        2956.00           2229          69.00       292.51
 1149.27        2956.25           2232          79.00       336.10
 1149.30        2956.50           2236          78.00       331.74
 1149.33        2956.75           2239          83.00       353.54
 1149.36        2957.00           2243          76.00       323.02
 1149.39        2957.25           2246          76.00       323.02
 1149.42        2957.50           2250          77.00       327.38
 1149.45        2957.75           2254          80.00       340.46
 1149.48        2958.00           2257          83.00       353.54
 1149.51        2958.25           2261          87.00       370.97
 1149.54        2958.50           2264          81.00       344.82
 1149.57        2958.75           2268          93.00       397.13
 1149.60        2959.00           2271          95.00       405.85
 1149.64        2959.25           2275          85.00       362.25
 1149.67        2959.50           2278          97.00       414.57
 1149.70        2959.75           2282          98.00       418.92
 1149.73        2960.00           2285          98.00       418.92
 1149.76        2960.25           2289          97.00       414.57
 1149.79        2960.50           2293          99.00       423.28
 1149.82        2960.75           2296         117.00       501.75
 1149.85        2961.00           2300         130.00       558.42
 1149.88        2961.25           2303         212.00       915.90
 1149.91        2961.50           2307         736.00      3200.44
 1149.94        2961.75           2310        1590.00      6924.47
 1149.97        2962.00           2314        2976.00     12970.41
 1150.00        2962.25           2317        3955.00     17242.45
 1150.03        2962.50           2321        5295.00     23091.80
 1150.06        2962.75           2324        6435.00     28069.93
 1150.09        2963.00           2328        8022.00     35002.84
 1150.12        2963.25           2331        9311.00     40636.31
 1150.16        2963.50           2335       10868.00     47443.96
 1150.19        2963.75           2339       12516.00     54652.90
 1150.22        2964.00           2342       13601.00     59401.02
 1150.25        2964.25           2346       15192.00     66366.24
 1150.28        2964.50           2349       16267.00     71074.34
 1150.31        2964.75           2353       18111.00     79153.88
 1150.34        2965.00           2356       19248.00     84137.91
 1150.37        2965.25           2360       20701.00     90509.57
 1150.40        2965.50           2363       14167.00     61878.52
 1150.43        2965.75           2367       14531.00     63472.06
 1150.46        2966.00           2370       14921.00     65179.60
 1150.49        2966.25           2374       26927.00    117843.10
 1150.52        2966.50           2378       26437.00    115690.00
 1150.55        2966.75           2381       26498.00    115958.00
 1150.58        2967.00           2385       26451.00    115751.50
 1150.61        2967.25           2388       26489.00    115918.50
 1150.64        2967.50           2392       26373.00    115408.80
 1150.68        2967.75           2395       21959.00     96028.36
 1150.71        2968.00           2399       16402.00     71665.70
 1150.74        2968.25           2402       15523.00     67815.73
 1150.77        2968.50           2406       13717.00     59908.74
 1150.80        2968.75           2409       22864.00     99999.84
 1150.83        2969.00           2413       20073.00     87755.34
 1150.86        2969.25           2417       18617.00     81371.72
 1150.89        2969.50           2420       17406.00     76064.38
 1150.93        2969.75           2424       15916.00     69536.91
 1150.96        2970.00           2427       14837.00     64811.80
 1150.99        2970.25           2431       13329.00     58210.56
 1151.02        2970.50           2434       12243.00     53458.46
 1151.05        2970.75           2438       10662.00     46543.08
 1151.08        2971.00           2441        9398.00     41016.62
 1151.11        2971.25           2445        7660.00     33421.13
 1151.14        2971.50           2449        6279.00     27388.62
 1151.17        2971.75           2452        5099.00     22236.07
 1151.20        2972.00           2456        3655.00     15933.22
 1151.23        2972.25           2459        2523.00     10994.08
 1151.26        2972.50           2463        1292.00      5624.88
 1151.29        2972.75           2466         665.00      2890.87
 1151.32        2973.00           2470         206.00       889.74
 1151.35        2973.25           2473         136.00       584.58
 1151.39        2973.50           2477         113.00       484.31
 1151.42        2973.75           2481         123.00       527.91
 1151.45        2974.00           2484         106.00       453.80
 1151.48        2974.25           2488          66.00       279.43
 1151.51        2974.50           2491          65.00       275.07
 1151.54        2974.75           2495          69.00       292.51
 1151.57        2975.00           2498          63.00       266.35
 1151.60        2975.25           2502         131.00       562.78
 1151.63        2975.50           2505          89.00       379.69
 1151.66        2975.75           2509          84.00       357.89
 1151.69        2976.00           2512          60.00       253.27
 1151.72        2976.25           2516          63.00       266.35
 1151.75        2976.50           2520          55.00       231.48
 1151.78        2976.75           2523          91.00       388.41
 1151.81        2977.00           2527          80.00       340.46
 1151.84        2977.25           2530          59.00       248.91
 1151.87        2977.50           2534          57.00       240.19
 1151.91        2977.75           2537          59.00       248.91
 1151.94        2978.00           2541          50.00       209.68
 1151.97        2978.25           2544          50.00       209.68
 1152.00        2978.50           2548          52.00       218.40
 1152.03        2978.75           2552          48.00       200.96
 1152.06        2979.00           2555          54.00       227.12
 1152.09        2979.25           2559          53.00       222.76
 1152.12        2979.50           2562          58.00       244.55
 1152.15        2979.75           2566          50.00       209.68
 1152.18        2980.00           2569          39.00       161.73
 1152.21        2980.25           2573          46.00       192.24
 1152.24        2980.50           2577          50.00       209.68
 1152.27        2980.75           2580          45.00       187.88
 1152.30        2981.00           2584          49.00       205.32
 1152.33        2981.25           2587          45.00       187.88
 1152.36        2981.50           2591          53.00       222.76
 1152.39        2981.75           2594          42.00       174.80
 1152.43        2982.00           2598          43.00       179.16
 1152.46        2982.25           2601          48.00       200.96
 1152.49        2982.50           2605          45.00       187.88
 1152.52        2982.75           2609          43.00       179.16
 1152.55        2983.00           2612          47.00       196.60
 1152.58        2983.25           2616          54.00       227.12
 1152.61        2983.50           2619          48.00       200.96
 1152.64        2983.75           2623          49.00       205.32
 1152.67        2984.00           2626          39.00       161.73
HS scan finished at 19:12:54
end
