************************************************************
  HS Scan of (1) Internal mercury lamp
************************************************************
Integration time is 0.2294 seconds per sample
dh190917Reading 51.44 .94 3.21pr1000
************************************************************
Dead Time -------------------------  3.4E-08 
Number of Cycles Used -------------  4 
Starting Wavelength (Angstroms) ---  2950 
Final Wavelength (Angstoms) -------  2984 
Wavelength Increment (Angstroms) --  .25 
Filter Wheel #1 Position ---------- (1) Ground quartz diffuser (ND=2.32)
Filter Wheel #2 Position ---------- (1) Neutral Density 0.494



************************************************************
HS scan start time = 02:40:08
Dark Count =  1.3 


Time (GMT)  Wavelength (Ang)  Step Number  Raw Counts  Counts/Second

  161.03        2950.00           2144         109.00       469.49
  161.22        2950.25           2147         110.00       473.85
  161.25        2950.50           2151         139.00       600.27
  161.28        2950.75           2155         113.00       486.93
  161.31        2951.00           2158         110.00       473.85
  161.34        2951.25           2162         100.00       430.26
  161.38        2951.50           2165         111.00       478.21
  161.41        2951.75           2169         106.00       456.42
  161.44        2952.00           2172         133.00       574.12
  161.47        2952.25           2176         120.00       517.45
  161.50        2952.50           2179         105.00       452.06
  161.53        2952.75           2183          99.00       425.90
  161.56        2953.00           2186         102.00       438.98
  161.59        2953.25           2190         110.00       473.85
  161.62        2953.50           2193         137.00       591.56
  161.65        2953.75           2197         129.00       556.68
  161.68        2954.00           2200          96.00       412.82
  161.71        2954.25           2204          95.00       408.46
  161.74        2954.50           2208         119.00       513.09
  161.77        2954.75           2211         100.00       430.26
  161.80        2955.00           2215         105.00       452.06
  161.83        2955.25           2218         106.00       456.42
  161.86        2955.50           2222         162.00       700.54
  161.90        2955.75           2225         110.00       473.85
  161.93        2956.00           2229         108.00       465.13
  161.96        2956.25           2232         122.00       526.16
  161.99        2956.50           2236         113.00       486.93
  162.02        2956.75           2239         106.00       456.42
  162.05        2957.00           2243         129.00       556.68
  162.08        2957.25           2246         133.00       574.12
  162.11        2957.50           2250         145.00       626.43
  162.14        2957.75           2254         130.00       561.04
  162.17        2958.00           2257         154.00       665.66
  162.20        2958.25           2261         145.00       626.43
  162.23        2958.50           2264         154.00       665.66
  162.26        2958.75           2268         150.00       648.23
  162.29        2959.00           2271         138.00       595.91
  162.32        2959.25           2275         140.00       604.63
  162.35        2959.50           2278         166.00       717.98
  162.38        2959.75           2282         146.00       630.79
  162.42        2960.00           2285         159.00       687.46
  162.45        2960.25           2289         155.00       670.02
  162.48        2960.50           2293         157.00       678.74
  162.51        2960.75           2296         175.00       757.21
  162.54        2961.00           2300         223.00       966.47
  162.57        2961.25           2303         542.00      2357.21
  162.60        2961.50           2307        1797.00      7829.90
  162.63        2961.75           2310        3154.00     13749.67
  162.66        2962.00           2314        5258.00     22932.87
  162.69        2962.25           2317        7039.00     30710.78
  162.72        2962.50           2321        9485.00     41399.56
  162.75        2962.75           2324       11330.00     49467.18
  162.78        2963.00           2328       14009.00     61189.51
  162.81        2963.25           2331       16029.00     70034.50
  162.84        2963.50           2335       18445.00     80620.43
  162.87        2963.75           2339       20805.00     90968.36
  162.90        2964.00           2342       22739.00     99453.87
  162.93        2964.25           2346       25549.00    111791.60
  162.97        2964.50           2349       27371.00    119796.90
  163.00        2964.75           2353       29878.00    130819.00
  163.03        2965.00           2356       31562.00    138227.50
  163.06        2965.25           2360       34125.00    149510.10
  163.09        2965.50           2363       35782.00    156809.00
  163.12        2965.75           2367       38211.00    167515.00
  163.15        2966.00           2370       39907.00    174995.00
  163.18        2966.25           2374       41813.00    183405.60
  163.21        2966.50           2378       43107.00    189118.40
  163.24        2966.75           2381       43450.00    190633.10
  163.27        2967.00           2385       43627.00    191414.80
  163.30        2967.25           2388       43643.00    191485.40
  163.33        2967.50           2392       43714.00    191799.00
  163.36        2967.75           2395       43514.00    190915.70
  163.39        2968.00           2399       42222.00    185211.00
  163.42        2968.25           2402       40741.00    178674.60
  163.45        2968.50           2406       38183.00    167391.60
  163.49        2968.75           2409       36218.00    158730.10
  163.52        2969.00           2413       33880.00    148431.10
  163.55        2969.25           2417       31524.00    138060.20
  163.58        2969.50           2420       29802.00    130484.80
  163.61        2969.75           2424       26997.00    118153.30
  163.64        2970.00           2427       25206.00    110285.00
  163.67        2970.25           2431       22471.00     98277.71
  163.70        2970.50           2434       20498.00     89621.84
  163.73        2970.75           2438       17917.00     78306.29
  163.76        2971.00           2441       15972.00     69784.83
  163.79        2971.25           2445       13219.00     57731.78
  163.82        2971.50           2449       10304.00     44980.25
  163.85        2971.75           2452        8520.00     37181.67
  163.88        2972.00           2456        6263.00     27321.36
  163.91        2972.25           2459        4533.00     19767.86
  163.94        2972.50           2463        2541.00     11075.22
  163.97        2972.75           2466        1224.00      5330.96
  164.01        2973.00           2470         360.00      1563.73
  164.04        2973.25           2473         211.00       914.15
  164.07        2973.50           2477         186.00       805.17
  164.10        2973.75           2481         165.00       713.62
  164.13        2974.00           2484         166.00       717.98
  164.16        2974.25           2488         167.00       722.34
  164.19        2974.50           2491         167.00       722.34
  164.22        2974.75           2495         153.00       661.31
  164.25        2975.00           2498         154.00       665.66
  164.28        2975.25           2502         162.00       700.54
  164.31        2975.50           2505         175.00       757.21
  164.34        2975.75           2509         151.00       652.59
  164.37        2976.00           2512         143.00       617.71
  164.40        2976.25           2516         141.00       608.99
  164.43        2976.50           2520         141.00       608.99
  164.46        2976.75           2523         157.00       678.74
  164.49        2977.00           2527         133.00       574.12
  164.53        2977.25           2530         155.00       670.02
  164.56        2977.50           2534         162.00       700.54
  164.59        2977.75           2537         130.00       561.04
  164.62        2978.00           2541         131.00       565.40
  164.65        2978.25           2544         125.00       539.24
  164.68        2978.50           2548         151.00       652.59
  164.71        2978.75           2552         158.00       683.10
  164.74        2979.00           2555         144.00       622.07
  164.77        2979.25           2559         169.00       731.06
  164.80        2979.50           2562         158.00       683.10
  164.83        2979.75           2566         140.00       604.63
  164.86        2980.00           2569         118.00       508.73
  164.89        2980.25           2573         134.00       578.48
  164.92        2980.50           2577         121.00       521.81
  164.95        2980.75           2580         149.00       643.87
  164.98        2981.00           2584         132.00       569.76
  165.01        2981.25           2587         131.00       565.40
  165.05        2981.50           2591         121.00       521.81
  165.08        2981.75           2594         117.00       504.37
  165.11        2982.00           2598         112.00       482.57
  165.14        2982.25           2601         126.00       543.60
  165.17        2982.50           2605         130.00       561.04
  165.20        2982.75           2609         110.00       473.85
  165.23        2983.00           2612         122.00       526.16
  165.26        2983.25           2616         122.00       526.16
  165.29        2983.50           2619         142.00       613.35
  165.32        2983.75           2623         130.00       561.04
  165.35        2984.00           2626         118.00       508.73
HS scan finished at 02:45:34
end
************************************************************
  HS Scan of (1) Internal mercury lamp
************************************************************
Integration time is 0.2294 seconds per sample
dh190917Reading 51.44 .94 3.47pr1000
************************************************************
Dead Time -------------------------  3.4E-08 
Number of Cycles Used -------------  4 
Starting Wavelength (Angstroms) ---  2950 
Final Wavelength (Angstoms) -------  2984 
Wavelength Increment (Angstroms) --  .25 
Filter Wheel #1 Position ---------- (1) Ground quartz diffuser (ND=2.32)
Filter Wheel #2 Position ---------- (1) Neutral Density 0.494



************************************************************
HS scan start time = 19:07:25
Dark Count =  3 


Time (GMT)  Wavelength (Ang)  Step Number  Raw Counts  Counts/Second

 1148.32        2950.00           2144         197.00       845.71
 1148.51        2950.25           2147         206.00       884.94
 1148.54        2950.50           2151         208.00       893.66
 1148.57        2950.75           2155         213.00       915.46
 1148.60        2951.00           2158         201.00       863.15
 1148.63        2951.25           2162         204.00       876.22
 1148.66        2951.50           2165         204.00       876.22
 1148.69        2951.75           2169         216.00       928.54
 1148.72        2952.00           2172         233.00      1002.65
 1148.75        2952.25           2176         202.00       867.51
 1148.78        2952.50           2179         211.00       906.74
 1148.81        2952.75           2183         205.00       880.58
 1148.85        2953.00           2186         199.00       854.43
 1148.88        2953.25           2190         214.00       919.82
 1148.91        2953.50           2193         211.00       906.74
 1148.94        2953.75           2197         218.00       937.26
 1148.97        2954.00           2200         214.00       919.82
 1149.00        2954.25           2204         219.00       941.62
 1149.03        2954.50           2208         226.00       972.13
 1149.06        2954.75           2211         220.00       945.98
 1149.09        2955.00           2215         211.00       906.74
 1149.12        2955.25           2218         210.00       902.38
 1149.15        2955.50           2222         216.00       928.54
 1149.18        2955.75           2225         228.00       980.85
 1149.21        2956.00           2229         231.00       993.93
 1149.24        2956.25           2232         231.00       993.93
 1149.27        2956.50           2236         242.00      1041.89
 1149.30        2956.75           2239         245.00      1054.96
 1149.33        2957.00           2243         238.00      1024.45
 1149.37        2957.25           2246         256.00      1102.92
 1149.40        2957.50           2250         233.00      1002.65
 1149.43        2957.75           2254         250.00      1076.76
 1149.46        2958.00           2257         257.00      1107.28
 1149.49        2958.25           2261         251.00      1081.12
 1149.52        2958.50           2264         254.00      1094.20
 1149.55        2958.75           2268         255.00      1098.56
 1149.58        2959.00           2271         274.00      1181.39
 1149.61        2959.25           2275         270.00      1163.95
 1149.64        2959.50           2278         286.00      1233.70
 1149.67        2959.75           2282         283.00      1220.63
 1149.70        2960.00           2285         272.00      1172.67
 1149.73        2960.25           2289         284.00      1224.99
 1149.76        2960.50           2293         281.00      1211.91
 1149.79        2960.75           2296         287.00      1238.06
 1149.82        2961.00           2300         352.00      1521.44
 1149.85        2961.25           2303         666.00      2890.43
 1149.88        2961.50           2307        2401.00     10457.07
 1149.92        2961.75           2310        4741.00     20668.40
 1149.95        2962.00           2314        8722.00     38057.06
 1149.98        2962.25           2317       12157.00     53077.39
 1150.01        2962.50           2321       16779.00     73312.43
 1150.04        2962.75           2324       20232.00     88447.80
 1150.07        2963.00           2328       24595.00    107594.30
 1150.10        2963.25           2331       28243.00    123622.30
 1150.13        2963.50           2335       32843.00    143858.00
 1150.16        2963.75           2339       37537.00    164536.00
 1150.19        2964.00           2342       40702.00    178495.00
 1150.22        2964.25           2346       45451.00    199465.00
 1150.25        2964.50           2349       48712.00    213881.90
 1150.28        2964.75           2353       53349.00    234406.50
 1150.31        2965.00           2356       57362.00    252192.50
 1150.34        2965.25           2360       61526.00    270670.50
 1150.37        2965.50           2363       64703.00    284784.30
 1150.40        2965.75           2367       68915.00    303517.10
 1150.44        2966.00           2370       72705.00    320393.60
 1150.47        2966.25           2374       76332.00    336562.60
 1150.50        2966.50           2378       78211.00    344946.10
 1150.53        2966.75           2381       78392.00    345754.00
 1150.56        2967.00           2385       78334.00    345495.10
 1150.59        2967.25           2388       77981.00    343919.70
 1150.62        2967.50           2392       78515.00    346302.90
 1150.65        2967.75           2395       77546.00    341978.50
 1150.68        2968.00           2399       74494.00    328366.70
 1150.71        2968.25           2402       72020.00    317342.00
 1150.74        2968.50           2406       67544.00    297417.00
 1150.77        2968.75           2409       64328.00    283117.60
 1150.80        2969.00           2413       60048.00    264109.00
 1150.83        2969.25           2417       55950.00    245931.90
 1150.86        2969.50           2420       52660.00    231355.00
 1150.89        2969.75           2424       47905.00    210312.80
 1150.92        2970.00           2427       44314.00    194441.60
 1150.96        2970.25           2431       39035.00    171141.20
 1150.99        2970.50           2434       35471.00    155431.30
 1151.02        2970.75           2438       30972.00    135624.00
 1151.05        2971.00           2441       27622.00    120892.60
 1151.08        2971.25           2445       22934.00    100302.20
 1151.11        2971.50           2449       18298.00     79968.66
 1151.14        2971.75           2452       14723.00     64307.85
 1151.17        2972.00           2456       10592.00     46232.16
 1151.20        2972.25           2459        7544.00     32909.51
 1151.23        2972.50           2463        3717.00     16198.98
 1151.26        2972.75           2466        1667.00      7255.50
 1151.29        2973.00           2470         558.00      2419.55
 1151.32        2973.25           2473         374.00      1617.35
 1151.35        2973.50           2477         301.00      1299.10
 1151.38        2973.75           2481         292.00      1259.86
 1151.41        2974.00           2484         284.00      1224.99
 1151.44        2974.25           2488         258.00      1111.64
 1151.48        2974.50           2491         263.00      1133.44
 1151.51        2974.75           2495         312.00      1347.05
 1151.54        2975.00           2498         276.00      1190.11
 1151.57        2975.25           2502         270.00      1163.95
 1151.60        2975.50           2505         270.00      1163.95
 1151.63        2975.75           2509         250.00      1076.76
 1151.66        2976.00           2512         223.00       959.05
 1151.69        2976.25           2516         250.00      1076.76
 1151.72        2976.50           2520         241.00      1037.53
 1151.75        2976.75           2523         234.00      1007.01
 1151.78        2977.00           2527         218.00       937.26
 1151.81        2977.25           2530         209.00       898.02
 1151.84        2977.50           2534         218.00       937.26
 1151.87        2977.75           2537         201.00       863.15
 1151.90        2978.00           2541         213.00       915.46
 1151.93        2978.25           2544         213.00       915.46
 1151.97        2978.50           2548         202.00       867.51
 1152.00        2978.75           2552         211.00       906.74
 1152.03        2979.00           2555         194.00       832.63
 1152.06        2979.25           2559         193.00       828.27
 1152.09        2979.50           2562         200.00       858.79
 1152.12        2979.75           2566         195.00       836.99
 1152.15        2980.00           2569         193.00       828.27
 1152.18        2980.25           2573         196.00       841.35
 1152.21        2980.50           2577         200.00       858.79
 1152.24        2980.75           2580         188.00       806.47
 1152.27        2981.00           2584         193.00       828.27
 1152.30        2981.25           2587         190.00       815.19
 1152.33        2981.50           2591         185.00       793.40
 1152.36        2981.75           2594         178.00       762.88
 1152.39        2982.00           2598         195.00       836.99
 1152.42        2982.25           2601         181.00       775.96
 1152.45        2982.50           2605         188.00       806.47
 1152.49        2982.75           2609         172.00       736.72
 1152.52        2983.00           2612         184.00       789.04
 1152.55        2983.25           2616         181.00       775.96
 1152.58        2983.50           2619         173.00       741.08
 1152.61        2983.75           2623         171.00       732.36
 1152.64        2984.00           2626         173.00       741.08
HS scan finished at 19:12:52
end
