************************************************************
  HS Scan of (1) Internal mercury lamp
************************************************************
Integration time is 0.2294 seconds per sample
dh260917Reading 51.44 .94 3.6pr1000
************************************************************
Dead Time -------------------------  3.4E-08 
Number of Cycles Used -------------  4 
Starting Wavelength (Angstroms) ---  2950 
Final Wavelength (Angstoms) -------  2984 
Wavelength Increment (Angstroms) --  .25 
Filter Wheel #1 Position ---------- (1) Ground quartz diffuser (ND=2.32)
Filter Wheel #2 Position ---------- (1) Neutral Density 0.494



************************************************************
HS scan start time = 03:00:43
Dark Count =  3.4 


Time (GMT)  Wavelength (Ang)  Step Number  Raw Counts  Counts/Second

  181.61        2950.00           2144          87.00       364.43
  181.81        2950.25           2147          91.00       381.87
  181.84        2950.50           2151          84.00       351.36
  181.87        2950.75           2155         108.00       455.98
  181.90        2951.00           2158          89.00       373.15
  181.93        2951.25           2162          88.00       368.79
  181.96        2951.50           2165          93.00       390.59
  181.99        2951.75           2169          87.00       364.43
  182.02        2952.00           2172          85.00       355.71
  182.05        2952.25           2176          88.00       368.79
  182.08        2952.50           2179          86.00       360.07
  182.11        2952.75           2183          88.00       368.79
  182.14        2953.00           2186          87.00       364.43
  182.17        2953.25           2190          97.00       408.03
  182.20        2953.50           2193          86.00       360.07
  182.24        2953.75           2197          89.00       373.15
  182.27        2954.00           2200          88.00       368.79
  182.30        2954.25           2204          90.00       377.51
  182.33        2954.50           2208          83.00       347.00
  182.36        2954.75           2211          95.00       399.31
  182.39        2955.00           2215          84.00       351.36
  182.42        2955.25           2218          94.00       394.95
  182.45        2955.50           2222          90.00       377.51
  182.48        2955.75           2225          98.00       412.39
  182.51        2956.00           2229          97.00       408.03
  182.54        2956.25           2232         101.00       425.46
  182.57        2956.50           2236         123.00       521.37
  182.60        2956.75           2239          90.00       377.51
  182.63        2957.00           2243         105.00       442.90
  182.66        2957.25           2246         100.00       421.10
  182.69        2957.50           2250          91.00       381.87
  182.72        2957.75           2254          99.00       416.75
  182.76        2958.00           2257         103.00       434.18
  182.79        2958.25           2261         122.00       517.01
  182.82        2958.50           2264         143.00       608.56
  182.85        2958.75           2268         100.00       421.10
  182.88        2959.00           2271         100.00       421.10
  182.91        2959.25           2275         125.00       530.09
  182.94        2959.50           2278         171.00       730.62
  182.97        2959.75           2282         119.00       503.93
  183.00        2960.00           2285         132.00       560.60
  183.03        2960.25           2289         111.00       469.06
  183.06        2960.50           2293         130.00       551.88
  183.09        2960.75           2296         125.00       530.09
  183.12        2961.00           2300         142.00       604.20
  183.15        2961.25           2303         251.00      1079.38
  183.18        2961.50           2307        1102.00      4789.79
  183.21        2961.75           2310        2247.00      9783.55
  183.24        2962.00           2314        3860.00     16821.30
  183.27        2962.25           2317        5077.00     22133.48
  183.31        2962.50           2321        6635.00     28936.92
  183.34        2962.75           2324        8051.00     35123.00
  183.37        2963.00           2328        9794.00     42741.23
  183.40        2963.25           2331       11069.00     48316.45
  183.43        2963.50           2335       12883.00     56252.21
  183.46        2963.75           2339       14662.00     64039.03
  183.49        2964.00           2342       16670.00     72833.15
  183.52        2964.25           2346       18648.00     81501.03
  183.55        2964.50           2349       19803.00     86564.78
  183.58        2964.75           2353       21389.00     93520.96
  183.61        2965.00           2356       22836.00     99870.37
  183.64        2965.25           2360       24642.00    107798.90
  183.67        2965.50           2363       25632.00    112147.00
  183.70        2965.75           2367       27817.00    121747.90
  183.73        2966.00           2370       29745.00    130224.80
  183.76        2966.25           2374       31348.00    137276.60
  183.80        2966.50           2378       32282.00    141386.90
  183.83        2966.75           2381       32844.00    143860.60
  183.86        2967.00           2385       33205.00    145449.90
  183.89        2967.25           2388       33131.00    145124.10
  183.92        2967.50           2392       32944.00    144300.90
  183.95        2967.75           2395       32751.00    143451.20
  183.98        2968.00           2399       31869.00    139569.20
  184.01        2968.25           2402       30709.00    134465.10
  184.04        2968.50           2406       28854.00    126306.70
  184.07        2968.75           2409       27554.00    120592.00
  184.10        2969.00           2413       25846.00    113087.00
  184.13        2969.25           2417       23698.00    103654.10
  184.16        2969.50           2420       22270.00     97386.44
  184.19        2969.75           2424       20082.00     87788.24
  184.22        2970.00           2427       18590.00     81246.80
  184.25        2970.25           2431       17056.00     74524.25
  184.28        2970.50           2434       15591.00     68106.96
  184.31        2970.75           2438       13303.00     58090.21
  184.35        2971.00           2441       12028.00     52511.28
  184.38        2971.25           2445       10064.00     43921.69
  184.41        2971.50           2449        8134.00     35485.68
  184.44        2971.75           2452        6751.00     29443.59
  184.47        2972.00           2456        4868.00     21221.06
  184.50        2972.25           2459        3550.00     15468.47
  184.53        2972.50           2463        1884.00      8200.19
  184.56        2972.75           2466         848.00      3682.24
  184.59        2973.00           2470         270.00      1162.21
  184.62        2973.25           2473         155.00       660.87
  184.65        2973.50           2477         147.00       625.99
  184.68        2973.75           2481         136.00       578.04
  184.71        2974.00           2484         162.00       691.39
  184.74        2974.25           2488         141.00       599.84
  184.77        2974.50           2491         132.00       560.60
  184.80        2974.75           2495         174.00       743.70
  184.84        2975.00           2498         134.00       569.32
  184.87        2975.25           2502         133.00       564.96
  184.90        2975.50           2505         119.00       503.93
  184.93        2975.75           2509         140.00       595.48
  184.96        2976.00           2512         141.00       599.84
  184.99        2976.25           2516         131.00       556.24
  185.02        2976.50           2520         123.00       521.37
  185.05        2976.75           2523         125.00       530.09
  185.08        2977.00           2527         114.00       482.14
  185.11        2977.25           2530         119.00       503.93
  185.14        2977.50           2534         129.00       547.53
  185.17        2977.75           2537         124.00       525.73
  185.20        2978.00           2541         107.00       451.62
  185.23        2978.25           2544          98.00       412.39
  185.26        2978.50           2548         100.00       421.10
  185.29        2978.75           2552          89.00       373.15
  185.32        2979.00           2555         118.00       499.57
  185.36        2979.25           2559          93.00       390.59
  185.39        2979.50           2562          92.00       386.23
  185.42        2979.75           2566          97.00       408.03
  185.45        2980.00           2569          96.00       403.67
  185.48        2980.25           2573          92.00       386.23
  185.51        2980.50           2577          93.00       390.59
  185.54        2980.75           2580          91.00       381.87
  185.57        2981.00           2584          96.00       403.67
  185.60        2981.25           2587          99.00       416.75
  185.63        2981.50           2591          91.00       381.87
  185.66        2981.75           2594          85.00       355.71
  185.69        2982.00           2598          81.00       338.28
  185.72        2982.25           2601          88.00       368.79
  185.75        2982.50           2605          88.00       368.79
  185.78        2982.75           2609          75.00       312.12
  185.81        2983.00           2612          91.00       381.87
  185.84        2983.25           2616          82.00       342.64
  185.88        2983.50           2619          93.00       390.59
  185.91        2983.75           2623          85.00       355.71
  185.94        2984.00           2626          80.00       333.92
HS scan finished at 03:06:10
end
************************************************************
  HS Scan of (1) Internal mercury lamp
************************************************************
Integration time is 0.2294 seconds per sample
dh260917Reading 51.44 .94 3.64pr1000
************************************************************
Dead Time -------------------------  3.4E-08 
Number of Cycles Used -------------  4 
Starting Wavelength (Angstroms) ---  2950 
Final Wavelength (Angstoms) -------  2984 
Wavelength Increment (Angstroms) --  .25 
Filter Wheel #1 Position ---------- (1) Ground quartz diffuser (ND=2.32)
Filter Wheel #2 Position ---------- (1) Neutral Density 0.494



************************************************************
HS scan start time = 18:37:24
Dark Count =  4.4 


Time (GMT)  Wavelength (Ang)  Step Number  Raw Counts  Counts/Second

 1118.31        2950.00           2144          62.00       251.09
 1118.50        2950.25           2147          73.00       299.04
 1118.53        2950.50           2151          55.00       220.58
 1118.56        2950.75           2155          72.00       294.68
 1118.59        2951.00           2158          61.00       246.73
 1118.62        2951.25           2162          75.00       307.76
 1118.65        2951.50           2165          62.00       251.09
 1118.68        2951.75           2169          71.00       290.33
 1118.71        2952.00           2172          63.00       255.45
 1118.74        2952.25           2176          53.00       211.86
 1118.77        2952.50           2179          73.00       299.04
 1118.81        2952.75           2183          75.00       307.76
 1118.84        2953.00           2186          65.00       264.17
 1118.87        2953.25           2190          64.00       259.81
 1118.90        2953.50           2193          59.00       238.01
 1118.93        2953.75           2197          65.00       264.17
 1118.96        2954.00           2200          62.00       251.09
 1118.99        2954.25           2204          64.00       259.81
 1119.02        2954.50           2208          66.00       268.53
 1119.05        2954.75           2211          65.00       264.17
 1119.09        2955.00           2215          67.00       272.89
 1119.12        2955.25           2218          64.00       259.81
 1119.15        2955.50           2222          61.00       246.73
 1119.18        2955.75           2225          64.00       259.81
 1119.21        2956.00           2229          63.00       255.45
 1119.24        2956.25           2232          59.00       238.01
 1119.27        2956.50           2236          72.00       294.68
 1119.30        2956.75           2239          70.00       285.97
 1119.33        2957.00           2243          66.00       268.53
 1119.36        2957.25           2246          73.00       299.04
 1119.39        2957.50           2250          70.00       285.97
 1119.42        2957.75           2254          76.00       312.12
 1119.45        2958.00           2257          82.00       338.28
 1119.48        2958.25           2261          75.00       307.76
 1119.52        2958.50           2264          73.00       299.04
 1119.55        2958.75           2268          73.00       299.04
 1119.58        2959.00           2271          73.00       299.04
 1119.61        2959.25           2275          74.00       303.40
 1119.64        2959.50           2278          75.00       307.76
 1119.67        2959.75           2282          81.00       333.92
 1119.70        2960.00           2285          84.00       347.00
 1119.73        2960.25           2289          83.00       342.64
 1119.76        2960.50           2293          87.00       360.07
 1119.79        2960.75           2296          95.00       394.95
 1119.82        2961.00           2300          99.00       412.39
 1119.85        2961.25           2303         164.00       695.74
 1119.88        2961.50           2307         579.00      2505.01
 1119.91        2961.75           2310        1393.00      6054.43
 1119.94        2962.00           2314        2639.00     11489.23
 1119.97        2962.25           2317        3595.00     15660.47
 1120.00        2962.50           2321        4916.00     21426.24
 1120.04        2962.75           2324        5814.00     25347.03
 1120.07        2963.00           2328        7078.00     30867.60
 1120.10        2963.25           2331        8014.00     34956.96
 1120.13        2963.50           2335        9446.00     41215.52
 1120.16        2963.75           2339       10667.00     46554.01
 1120.19        2964.00           2342       11656.00     50879.57
 1120.22        2964.25           2346       12956.00     56567.28
 1120.25        2964.50           2349       14005.00     61158.43
 1120.28        2964.75           2353       15266.00     66679.33
 1120.31        2965.00           2356       16318.00     71286.79
 1120.34        2965.25           2360       17310.00     75632.78
 1120.37        2965.50           2363       18235.00     79686.40
 1120.40        2965.75           2367       19401.00     84797.74
 1120.43        2966.00           2370       20451.00     89402.11
 1120.46        2966.25           2374       21603.00     94455.42
 1120.49        2966.50           2378       21981.00     96113.93
 1120.52        2966.75           2381       22062.00     96469.34
 1120.56        2967.00           2385       22182.00     96995.90
 1120.59        2967.25           2388       22124.00     96741.39
 1120.62        2967.50           2392       21996.00     96179.74
 1120.65        2967.75           2395       21873.00     95640.05
 1120.68        2968.00           2399       21146.00     92450.57
 1120.71        2968.25           2402       20314.00     88801.28
 1120.74        2968.50           2406       19039.00     83210.66
 1120.77        2968.75           2409       18189.00     79484.79
 1120.80        2969.00           2413       16793.00     73367.61
 1120.83        2969.25           2417       15640.00     68317.18
 1120.87        2969.50           2420       14631.00     63898.92
 1120.90        2969.75           2424       13316.00     58142.73
 1120.93        2970.00           2427       12303.00     53710.03
 1120.96        2970.25           2431       11083.00     48373.30
 1120.99        2970.50           2434       10208.00     44546.93
 1121.02        2970.75           2438        9021.00     39357.78
 1121.05        2971.00           2441        8273.00     36088.72
 1121.08        2971.25           2445        6671.00     29089.79
 1121.11        2971.50           2449        5274.00     22989.19
 1121.14        2971.75           2452        4198.00     18292.11
 1121.17        2972.00           2456        3159.00     13757.96
 1121.20        2972.25           2459        2388.00     10394.26
 1121.23        2972.50           2463        1273.00      5531.12
 1121.26        2972.75           2466         558.00      2413.45
 1121.30        2973.00           2470         157.00       665.23
 1121.33        2973.25           2473         117.00       490.85
 1121.36        2973.50           2477         122.00       512.65
 1121.39        2973.75           2481          92.00       381.87
 1121.42        2974.00           2484          93.00       386.23
 1121.45        2974.25           2488          91.00       377.51
 1121.48        2974.50           2491          88.00       364.43
 1121.51        2974.75           2495          82.00       338.28
 1121.54        2975.00           2498          74.00       303.40
 1121.57        2975.25           2502          80.00       329.56
 1121.60        2975.50           2505          82.00       338.28
 1121.63        2975.75           2509          77.00       316.48
 1121.66        2976.00           2512          71.00       290.33
 1121.69        2976.25           2516          80.00       329.56
 1121.72        2976.50           2520          74.00       303.40
 1121.75        2976.75           2523          74.00       303.40
 1121.79        2977.00           2527          70.00       285.97
 1121.82        2977.25           2530          71.00       290.33
 1121.85        2977.50           2534          68.00       277.25
 1121.88        2977.75           2537          73.00       299.04
 1121.91        2978.00           2541          65.00       264.17
 1121.94        2978.25           2544          70.00       285.97
 1121.97        2978.50           2548          63.00       255.45
 1122.00        2978.75           2552          70.00       285.97
 1122.03        2979.00           2555          66.00       268.53
 1122.06        2979.25           2559          67.00       272.89
 1122.09        2979.50           2562          62.00       251.09
 1122.12        2979.75           2566          70.00       285.97
 1122.15        2980.00           2569          65.00       264.17
 1122.18        2980.25           2573          52.00       207.50
 1122.21        2980.50           2577          69.00       281.61
 1122.24        2980.75           2580          64.00       259.81
 1122.27        2981.00           2584          65.00       264.17
 1122.30        2981.25           2587          64.00       259.81
 1122.34        2981.50           2591          63.00       255.45
 1122.37        2981.75           2594          66.00       268.53
 1122.40        2982.00           2598          65.00       264.17
 1122.43        2982.25           2601          65.00       264.17
 1122.46        2982.50           2605          58.00       233.65
 1122.49        2982.75           2609          63.00       255.45
 1122.52        2983.00           2612          68.00       277.25
 1122.55        2983.25           2616          58.00       233.65
 1122.58        2983.50           2619          61.00       246.73
 1122.61        2983.75           2623          57.00       229.30
 1122.64        2984.00           2626          56.00       224.94
HS scan finished at 18:42:52
end
