************************************************************
  HS Scan of (1) Internal mercury lamp
************************************************************
Integration time is 0.2294 seconds per sample
dh170917Reading 51.44 .94 2.9pr1000
************************************************************
Dead Time -------------------------  3.4E-08 
Number of Cycles Used -------------  4 
Starting Wavelength (Angstroms) ---  2950 
Final Wavelength (Angstoms) -------  2984 
Wavelength Increment (Angstroms) --  .25 
Filter Wheel #1 Position ---------- (1) Ground quartz diffuser (ND=2.32)
Filter Wheel #2 Position ---------- (1) Neutral Density 0.494



************************************************************
HS scan start time = 02:33:25
Dark Count =  .6 


Time (GMT)  Wavelength (Ang)  Step Number  Raw Counts  Counts/Second

  154.31        2950.00           2144         152.00       660.00
  154.50        2950.25           2147         144.00       625.12
  154.53        2950.50           2151         117.00       507.42
  154.56        2950.75           2155         123.00       533.58
  154.60        2951.00           2158         143.00       620.76
  154.63        2951.25           2162         126.00       546.65
  154.66        2951.50           2165         134.00       581.53
  154.69        2951.75           2169         140.00       607.68
  154.72        2952.00           2172         136.00       590.25
  154.75        2952.25           2176         131.00       568.45
  154.78        2952.50           2179         128.00       555.37
  154.81        2952.75           2183         118.00       511.78
  154.84        2953.00           2186         142.00       616.40
  154.87        2953.25           2190         133.00       577.17
  154.90        2953.50           2193         133.00       577.17
  154.93        2953.75           2197         152.00       660.00
  154.96        2954.00           2200         131.00       568.45
  154.99        2954.25           2204         149.00       646.92
  155.02        2954.50           2208         152.00       660.00
  155.05        2954.75           2211         148.00       642.56
  155.08        2955.00           2215         132.00       572.81
  155.12        2955.25           2218         135.00       585.89
  155.15        2955.50           2222         130.00       564.09
  155.18        2955.75           2225         149.00       646.92
  155.21        2956.00           2229         156.00       677.43
  155.24        2956.25           2232         150.00       651.28
  155.27        2956.50           2236         137.00       594.61
  155.30        2956.75           2239         133.00       577.17
  155.33        2957.00           2243         144.00       625.12
  155.36        2957.25           2246         137.00       594.61
  155.39        2957.50           2250         148.00       642.56
  155.42        2957.75           2254         133.00       577.17
  155.46        2958.00           2257         145.00       629.48
  155.50        2958.25           2261         142.00       616.40
  155.53        2958.50           2264         153.00       664.36
  155.56        2958.75           2268         152.00       660.00
  155.59        2959.00           2271         155.00       673.08
  155.62        2959.25           2275         154.00       668.72
  155.65        2959.50           2278         136.00       590.25
  155.68        2959.75           2282         160.00       694.87
  155.71        2960.00           2285         146.00       633.84
  155.74        2960.25           2289         169.00       734.11
  155.77        2960.50           2293         163.00       707.95
  155.80        2960.75           2296         163.00       707.95
  155.83        2961.00           2300         206.00       895.41
  155.86        2961.25           2303         418.00      1819.64
  155.90        2961.50           2307        1629.00      7100.23
  155.93        2961.75           2310        2869.00     12509.24
  155.96        2962.00           2314        4911.00     21421.00
  155.99        2962.25           2317        6361.00     27752.42
  156.02        2962.50           2321        8449.00     36874.45
  156.05        2962.75           2324        9958.00     43470.48
  156.08        2963.00           2328       12153.00     53070.39
  156.11        2963.25           2331       13801.00     60282.11
  156.14        2963.50           2335       16249.00     71001.19
  156.17        2963.75           2339       18526.00     80978.54
  156.20        2964.00           2342       20361.00     89024.06
  156.23        2964.25           2346       22295.00     97508.44
  156.26        2964.50           2349       24094.00    105405.00
  156.29        2964.75           2353       25988.00    113723.10
  156.32        2965.00           2356       27258.00    119303.40
  156.35        2965.25           2360       30546.00    133760.40
  156.38        2965.50           2363       31503.00    137970.90
  156.43        2965.75           2367       34330.00    150415.90
  156.46        2966.00           2370       35150.00    154027.70
  156.49        2966.25           2374       36826.00    161412.60
  156.52        2966.50           2378       38009.00    166627.50
  156.55        2966.75           2381       38085.00    166962.60
  156.58        2967.00           2385       37791.00    165666.40
  156.61        2967.25           2388       37763.00    165542.90
  156.64        2967.50           2392       37672.00    165141.70
  156.67        2967.75           2395       38364.00    168192.70
  156.71        2968.00           2399       37570.00    164692.10
  156.74        2968.25           2402       35296.00    154670.90
  156.77        2968.50           2406       34066.00    149253.30
  156.80        2968.75           2409       31916.00    139788.40
  156.83        2969.00           2413       29579.00    129507.10
  156.86        2969.25           2417       27465.00    120213.10
  156.89        2969.50           2420       25713.00    112515.10
  156.92        2969.75           2424       23700.00    103675.20
  156.95        2970.00           2427       21832.00     95476.83
  156.98        2970.25           2431       19359.00     84630.27
  157.01        2970.50           2434       17606.00     76946.48
  157.04        2970.75           2438       15319.00     66928.06
  157.07        2971.00           2441       13470.00     58833.36
  157.10        2971.25           2445       11345.00     49535.85
  157.13        2971.50           2449        9244.00     40349.13
  157.16        2971.75           2452        7671.00     33474.87
  157.19        2972.00           2456        5550.00     24210.86
  157.23        2972.25           2459        3798.00     16562.94
  157.26        2972.50           2463        1943.00      8469.75
  157.29        2972.75           2466         878.00      3825.26
  157.32        2973.00           2470         293.00      1274.68
  157.35        2973.25           2473         188.00       816.94
  157.38        2973.50           2477         170.00       738.47
  157.41        2973.75           2481         148.00       642.56
  157.44        2974.00           2484         162.00       703.59
  157.47        2974.25           2488         146.00       633.84
  157.50        2974.50           2491         142.00       616.40
  157.53        2974.75           2495         167.00       725.39
  157.56        2975.00           2498         143.00       620.76
  157.59        2975.25           2502         151.00       655.64
  157.62        2975.50           2505         144.00       625.12
  157.65        2975.75           2509         164.00       712.31
  157.68        2976.00           2512         150.00       651.28
  157.71        2976.25           2516         130.00       564.09
  157.75        2976.50           2520         144.00       625.12
  157.78        2976.75           2523         112.00       485.62
  157.81        2977.00           2527         127.00       551.01
  157.84        2977.25           2530         129.00       559.73
  157.87        2977.50           2534         113.00       489.98
  157.90        2977.75           2537         119.00       516.14
  157.93        2978.00           2541         148.00       642.56
  157.96        2978.25           2544         132.00       572.81
  157.99        2978.50           2548         138.00       598.97
  158.02        2978.75           2552         108.00       468.19
  158.05        2979.00           2555         110.00       476.90
  158.08        2979.25           2559          98.00       424.59
  158.11        2979.50           2562         144.00       625.12
  158.14        2979.75           2566         120.00       520.50
  158.17        2980.00           2569         107.00       463.83
  158.20        2980.25           2573         114.00       494.34
  158.23        2980.50           2577         108.00       468.19
  158.27        2980.75           2580          94.00       407.15
  158.30        2981.00           2584         109.00       472.54
  158.33        2981.25           2587          94.00       407.15
  158.36        2981.50           2591         100.00       433.31
  158.39        2981.75           2594         112.00       485.62
  158.42        2982.00           2598         100.00       433.31
  158.45        2982.25           2601         106.00       459.47
  158.48        2982.50           2605          96.00       415.87
  158.51        2982.75           2609         106.00       459.47
  158.54        2983.00           2612          95.00       411.51
  158.57        2983.25           2616         112.00       485.62
  158.60        2983.50           2619          93.00       402.80
  158.63        2983.75           2623         110.00       476.90
  158.66        2984.00           2626         136.00       590.25
HS scan finished at 02:38:53
end
************************************************************
  HS Scan of (1) Internal mercury lamp
************************************************************
Integration time is 0.2294 seconds per sample
dh170917Reading 51.44 .94 3.33pr1000
************************************************************
Dead Time -------------------------  3.4E-08 
Number of Cycles Used -------------  4 
Starting Wavelength (Angstroms) ---  2950 
Final Wavelength (Angstoms) -------  2984 
Wavelength Increment (Angstroms) --  .25 
Filter Wheel #1 Position ---------- (1) Ground quartz diffuser (ND=2.32)
Filter Wheel #2 Position ---------- (1) Neutral Density 0.494



************************************************************
HS scan start time = 19:07:26
Dark Count =  2 


Time (GMT)  Wavelength (Ang)  Step Number  Raw Counts  Counts/Second

 1148.32        2950.00           2144         173.00       745.44
 1148.52        2950.25           2147         138.00       592.86
 1148.55        2950.50           2151         125.00       536.19
 1148.58        2950.75           2155         143.00       614.66
 1148.61        2951.00           2158         146.00       627.74
 1148.64        2951.25           2162         135.00       579.78
 1148.67        2951.50           2165         149.00       640.82
 1148.70        2951.75           2169         140.00       601.58
 1148.73        2952.00           2172         132.00       566.71
 1148.76        2952.25           2176         156.00       671.33
 1148.79        2952.50           2179         128.00       549.27
 1148.82        2952.75           2183         125.00       536.19
 1148.85        2953.00           2186         143.00       614.66
 1148.88        2953.25           2190         137.00       588.50
 1148.92        2953.50           2193         120.00       514.39
 1148.95        2953.75           2197         160.00       688.77
 1148.98        2954.00           2200         160.00       688.77
 1149.01        2954.25           2204         130.00       557.99
 1149.04        2954.50           2208         126.00       540.55
 1149.07        2954.75           2211         151.00       649.53
 1149.10        2955.00           2215         142.00       610.30
 1149.13        2955.25           2218         157.00       675.69
 1149.16        2955.50           2222         135.00       579.78
 1149.19        2955.75           2225         136.00       584.14
 1149.22        2956.00           2229         140.00       601.58
 1149.25        2956.25           2232         142.00       610.30
 1149.28        2956.50           2236         172.00       741.08
 1149.31        2956.75           2239         140.00       601.58
 1149.34        2957.00           2243         142.00       610.30
 1149.37        2957.25           2246         149.00       640.82
 1149.40        2957.50           2250         169.00       728.00
 1149.44        2957.75           2254         159.00       684.41
 1149.47        2958.00           2257         167.00       719.29
 1149.50        2958.25           2261         147.00       632.10
 1149.53        2958.50           2264         145.00       623.38
 1149.56        2958.75           2268         152.00       653.89
 1149.59        2959.00           2271         149.00       640.82
 1149.62        2959.25           2275         151.00       649.53
 1149.65        2959.50           2278         154.00       662.61
 1149.68        2959.75           2282         168.00       723.64
 1149.71        2960.00           2285         166.00       714.93
 1149.74        2960.25           2289         163.00       701.85
 1149.77        2960.50           2293         177.00       762.88
 1149.80        2960.75           2296         181.00       780.32
 1149.83        2961.00           2300         199.00       858.79
 1149.86        2961.25           2303         321.00      1390.65
 1149.89        2961.50           2307        1215.00      5288.66
 1149.92        2961.75           2310        2555.00     11133.25
 1149.96        2962.00           2314        4808.00     20965.25
 1149.99        2962.25           2317        6420.00     28003.98
 1150.02        2962.50           2321        8825.00     38511.60
 1150.05        2962.75           2324       10756.00     46953.71
 1150.08        2963.00           2328       13733.00     59978.34
 1150.11        2963.25           2331       15931.00     69602.18
 1150.14        2963.50           2335       18428.00     80542.85
 1150.17        2963.75           2339       20851.00     91167.07
 1150.20        2964.00           2342       22828.00     99841.40
 1150.23        2964.25           2346       25455.00    111375.60
 1150.26        2964.50           2349       27266.00    119332.40
 1150.29        2964.75           2353       29611.00    129641.70
 1150.32        2965.00           2356       31303.00    137084.70
 1150.35        2965.25           2360       33476.00    146649.20
 1150.38        2965.50           2363       35277.00    154581.00
 1150.41        2965.75           2367       37422.00    164033.50
 1150.44        2966.00           2370       38912.00    170603.10
 1150.48        2966.25           2374       40233.00    176430.10
 1150.51        2966.50           2378       41268.00    180997.10
 1150.54        2966.75           2381       41357.00    181389.90
 1150.57        2967.00           2385       41030.00    179946.80
 1150.60        2967.25           2388       40261.00    176553.60
 1150.63        2967.50           2392       39501.00    173200.90
 1150.66        2967.75           2395       39045.00    171189.70
 1150.69        2968.00           2399       37206.00    163081.40
 1150.72        2968.25           2402       35129.00    153929.10
 1150.75        2968.50           2406       32931.00    144249.80
 1150.78        2968.75           2409       31161.00    136459.90
 1150.81        2969.00           2413       28858.00    126330.50
 1150.84        2969.25           2417       26766.00    117135.20
 1150.87        2969.50           2420       24836.00    108657.00
 1150.90        2969.75           2424       22926.00    100271.50
 1150.93        2970.00           2427       21248.00     92908.56
 1150.96        2970.25           2431       18853.00     82405.81
 1151.00        2970.50           2434       17162.00     74994.82
 1151.03        2970.75           2438       14516.00     63405.95
 1151.06        2971.00           2441       12661.00     55286.91
 1151.09        2971.25           2445       10811.00     47194.24
 1151.12        2971.50           2449        9008.00     39311.45
 1151.15        2971.75           2452        7629.00     33285.25
 1151.18        2972.00           2456        5391.00     23510.51
 1151.21        2972.25           2459        3794.00     16539.38
 1151.24        2972.50           2463        1893.00      8245.56
 1151.27        2972.75           2466         881.00      3832.23
 1151.30        2973.00           2470         281.00      1216.27
 1151.33        2973.25           2473         179.00       771.60
 1151.36        2973.50           2477         161.00       693.13
 1151.39        2973.75           2481         143.00       614.66
 1151.42        2974.00           2484         149.00       640.82
 1151.45        2974.25           2488         146.00       627.74
 1151.48        2974.50           2491         168.00       723.64
 1151.52        2974.75           2495         145.00       623.38
 1151.55        2975.00           2498         139.00       597.22
 1151.58        2975.25           2502         115.00       492.60
 1151.61        2975.50           2505         123.00       527.47
 1151.64        2975.75           2509         139.00       597.22
 1151.67        2976.00           2512         121.00       518.75
 1151.70        2976.25           2516         125.00       536.19
 1151.73        2976.50           2520         102.00       435.93
 1151.76        2976.75           2523         126.00       540.55
 1151.79        2977.00           2527         126.00       540.55
 1151.82        2977.25           2530         110.00       470.80
 1151.85        2977.50           2534         122.00       523.11
 1151.88        2977.75           2537         125.00       536.19
 1151.91        2978.00           2541         114.00       488.24
 1151.94        2978.25           2544         105.00       449.00
 1151.97        2978.50           2548         140.00       601.58
 1152.00        2978.75           2552         111.00       475.16
 1152.04        2979.00           2555         121.00       518.75
 1152.07        2979.25           2559         138.00       592.86
 1152.10        2979.50           2562         125.00       536.19
 1152.13        2979.75           2566          99.00       422.85
 1152.16        2980.00           2569          92.00       392.33
 1152.19        2980.25           2573         109.00       466.44
 1152.22        2980.50           2577          90.00       383.61
 1152.25        2980.75           2580          91.00       387.97
 1152.28        2981.00           2584         111.00       475.16
 1152.31        2981.25           2587          95.00       405.41
 1152.34        2981.50           2591          90.00       383.61
 1152.37        2981.75           2594         108.00       462.08
 1152.40        2982.00           2598          89.00       379.26
 1152.43        2982.25           2601         115.00       492.60
 1152.46        2982.50           2605          98.00       418.49
 1152.49        2982.75           2609          85.00       361.82
 1152.52        2983.00           2612          98.00       418.49
 1152.55        2983.25           2616          93.00       396.69
 1152.59        2983.50           2619          81.00       344.38
 1152.62        2983.75           2623         106.00       453.36
 1152.65        2984.00           2626          89.00       379.26
HS scan finished at 19:12:52
end
