************************************************************
  HS Scan of (1) Internal mercury lamp
************************************************************
Integration time is 0.2294 seconds per sample
dh210917Reading 51.44 .94 3.41pr1000
************************************************************
Dead Time -------------------------  3.4E-08 
Number of Cycles Used -------------  4 
Starting Wavelength (Angstroms) ---  2950 
Final Wavelength (Angstoms) -------  2984 
Wavelength Increment (Angstroms) --  .25 
Filter Wheel #1 Position ---------- (1) Ground quartz diffuser (ND=2.32)
Filter Wheel #2 Position ---------- (1) Neutral Density 0.494



************************************************************
HS scan start time = 02:46:23
Dark Count =  2 


Time (GMT)  Wavelength (Ang)  Step Number  Raw Counts  Counts/Second

  167.28        2950.00           2144          93.00       396.69
  167.48        2950.25           2147          87.00       370.54
  167.51        2950.50           2151          88.00       374.90
  167.54        2950.75           2155          90.00       383.61
  167.57        2951.00           2158          96.00       409.77
  167.60        2951.25           2162          98.00       418.49
  167.63        2951.50           2165          87.00       370.54
  167.66        2951.75           2169          91.00       387.97
  167.69        2952.00           2172          91.00       387.97
  167.72        2952.25           2176          95.00       405.41
  167.75        2952.50           2179          92.00       392.33
  167.78        2952.75           2183          91.00       387.97
  167.81        2953.00           2186          95.00       405.41
  167.84        2953.25           2190         103.00       440.29
  167.87        2953.50           2193         100.00       427.21
  167.90        2953.75           2197          95.00       405.41
  167.94        2954.00           2200          92.00       392.33
  167.97        2954.25           2204          91.00       387.97
  168.00        2954.50           2208         104.00       444.64
  168.03        2954.75           2211         142.00       610.30
  168.06        2955.00           2215         105.00       449.00
  168.09        2955.25           2218         101.00       431.57
  168.12        2955.50           2222          94.00       401.05
  168.15        2955.75           2225         120.00       514.39
  168.18        2956.00           2229         102.00       435.93
  168.21        2956.25           2232         113.00       483.88
  168.24        2956.50           2236         102.00       435.93
  168.27        2956.75           2239         114.00       488.24
  168.30        2957.00           2243         117.00       501.32
  168.33        2957.25           2246         118.00       505.68
  168.36        2957.50           2250         137.00       588.50
  168.39        2957.75           2254          99.00       422.85
  168.42        2958.00           2257         126.00       540.55
  168.46        2958.25           2261         111.00       475.16
  168.49        2958.50           2264         154.00       662.61
  168.52        2958.75           2268         110.00       470.80
  168.55        2959.00           2271         117.00       501.32
  168.58        2959.25           2275         138.00       592.86
  168.61        2959.50           2278         127.00       544.91
  168.64        2959.75           2282         120.00       514.39
  168.67        2960.00           2285         120.00       514.39
  168.70        2960.25           2289         136.00       584.14
  168.73        2960.50           2293         142.00       610.30
  168.76        2960.75           2296         138.00       592.86
  168.79        2961.00           2300         172.00       741.08
  168.82        2961.25           2303         324.00      1403.73
  168.85        2961.50           2307        1266.00      5511.06
  168.88        2961.75           2310        2319.00     10103.73
  168.91        2962.00           2314        4216.00     18381.15
  168.94        2962.25           2317        5455.00     23789.94
  168.98        2962.50           2321        7307.00     31878.48
  169.01        2962.75           2324        8880.00     38751.99
  169.04        2963.00           2328       10959.00     47841.49
  169.07        2963.25           2331       12511.00     54630.59
  169.10        2963.50           2335       14650.00     63992.61
  169.13        2963.75           2339       16543.00     72282.91
  169.16        2964.00           2342       18147.00     79311.23
  169.19        2964.25           2346       20083.00     87798.76
  169.22        2964.50           2349       21552.00     94242.21
  169.25        2964.75           2353       23418.00    102431.10
  169.28        2965.00           2356       24793.00    108468.20
  169.31        2965.25           2360       26759.00    117104.40
  169.34        2965.50           2363       28063.00    122835.40
  169.37        2965.75           2367       30066.00    131642.80
  169.40        2966.00           2370       31062.00    136024.30
  169.43        2966.25           2374       32829.00    143800.80
  169.46        2966.50           2378       34026.00    149071.00
  169.49        2966.75           2381       33987.00    148899.30
  169.53        2967.00           2385       34372.00    150594.80
  169.56        2967.25           2388       34314.00    150339.30
  169.59        2967.50           2392       34302.00    150286.40
  169.62        2967.75           2395       33981.00    148872.80
  169.65        2968.00           2399       33573.00    147076.30
  169.68        2968.25           2402       32390.00    141868.40
  169.71        2968.50           2406       30463.00    133389.10
  169.74        2968.75           2409       29250.00    128054.10
  169.77        2969.00           2413       27488.00    120308.00
  169.80        2969.25           2417       25271.00    110567.50
  169.83        2969.50           2420       23793.00    104077.30
  169.86        2969.75           2424       21626.00     94566.87
  169.89        2970.00           2427       20072.00     87750.52
  169.92        2970.25           2431       17844.00     77983.31
  169.95        2970.50           2434       16177.00     70679.68
  169.98        2970.75           2438       14036.00     61304.64
  170.01        2971.00           2441       12475.00     54473.08
  170.05        2971.25           2445       10600.00     46271.53
  170.08        2971.50           2449        8622.00     37624.39
  170.11        2971.75           2452        7001.00     30541.73
  170.14        2972.00           2456        5014.00     21864.55
  170.17        2972.25           2459        3620.00     15780.04
  170.20        2972.50           2463        1959.00      8533.43
  170.23        2972.75           2466        1039.00      4521.18
  170.26        2973.00           2470         316.00      1368.85
  170.29        2973.25           2473         187.00       806.47
  170.32        2973.50           2477         152.00       653.89
  170.35        2973.75           2481         138.00       592.86
  170.38        2974.00           2484         156.00       671.33
  170.41        2974.25           2488         125.00       536.19
  170.44        2974.50           2491         146.00       627.74
  170.47        2974.75           2495         144.00       619.02
  170.50        2975.00           2498         134.00       575.43
  170.53        2975.25           2502         128.00       549.27
  170.57        2975.50           2505         142.00       610.30
  170.60        2975.75           2509         151.00       649.53
  170.63        2976.00           2512         140.00       601.58
  170.66        2976.25           2516         126.00       540.55
  170.69        2976.50           2520         147.00       632.10
  170.72        2976.75           2523         130.00       557.99
  170.75        2977.00           2527         110.00       470.80
  170.78        2977.25           2530         110.00       470.80
  170.81        2977.50           2534         104.00       444.64
  170.84        2977.75           2537         101.00       431.57
  170.87        2978.00           2541         137.00       588.50
  170.90        2978.25           2544         147.00       632.10
  170.93        2978.50           2548         112.00       479.52
  170.96        2978.75           2552          95.00       405.41
  170.99        2979.00           2555          98.00       418.49
  171.02        2979.25           2559         100.00       427.21
  171.05        2979.50           2562         117.00       501.32
  171.09        2979.75           2566         112.00       479.52
  171.12        2980.00           2569          93.00       396.69
  171.15        2980.25           2573          92.00       392.33
  171.18        2980.50           2577          92.00       392.33
  171.21        2980.75           2580         111.00       475.16
  171.24        2981.00           2584          86.00       366.18
  171.27        2981.25           2587          87.00       370.54
  171.30        2981.50           2591          94.00       401.05
  171.33        2981.75           2594         109.00       466.44
  171.36        2982.00           2598          84.00       357.46
  171.39        2982.25           2601          97.00       414.13
  171.42        2982.50           2605          95.00       405.41
  171.45        2982.75           2609          84.00       357.46
  171.48        2983.00           2612          91.00       387.97
  171.51        2983.25           2616          88.00       374.90
  171.54        2983.50           2619          93.00       396.69
  171.57        2983.75           2623          93.00       396.69
  171.61        2984.00           2626          83.00       353.10
HS scan finished at 02:51:50
end
************************************************************
  HS Scan of (1) Internal mercury lamp
************************************************************
Integration time is 0.2294 seconds per sample
dh210917Reading 51.44 .94 3.35pr1000
************************************************************
Dead Time -------------------------  3.4E-08 
Number of Cycles Used -------------  4 
Starting Wavelength (Angstroms) ---  2950 
Final Wavelength (Angstoms) -------  2984 
Wavelength Increment (Angstroms) --  .25 
Filter Wheel #1 Position ---------- (1) Ground quartz diffuser (ND=2.32)
Filter Wheel #2 Position ---------- (1) Neutral Density 0.494



************************************************************
HS scan start time = 19:07:25
Dark Count =  2.3 


Time (GMT)  Wavelength (Ang)  Step Number  Raw Counts  Counts/Second

 1148.31        2950.00           2144         136.00       582.84
 1148.50        2950.25           2147         140.00       600.27
 1148.53        2950.50           2151         112.00       478.21
 1148.56        2950.75           2155         139.00       595.91
 1148.59        2951.00           2158         128.00       547.96
 1148.62        2951.25           2162         136.00       582.84
 1148.65        2951.50           2165         167.00       717.98
 1148.69        2951.75           2169         124.00       530.52
 1148.72        2952.00           2172         120.00       513.09
 1148.75        2952.25           2176         122.00       521.81
 1148.78        2952.50           2179         132.00       565.40
 1148.81        2952.75           2183         131.00       561.04
 1148.84        2953.00           2186         122.00       521.81
 1148.87        2953.25           2190         139.00       595.91
 1148.90        2953.50           2193         106.00       452.06
 1148.93        2953.75           2197         134.00       574.12
 1148.96        2954.00           2200         119.00       508.73
 1148.99        2954.25           2204         115.00       491.29
 1149.02        2954.50           2208         169.00       726.70
 1149.05        2954.75           2211         123.00       526.16
 1149.08        2955.00           2215         133.00       569.76
 1149.11        2955.25           2218         132.00       565.40
 1149.14        2955.50           2222         120.00       513.09
 1149.17        2955.75           2225         146.00       626.43
 1149.21        2956.00           2229         163.00       700.54
 1149.24        2956.25           2232         124.00       530.52
 1149.27        2956.50           2236         134.00       574.12
 1149.30        2956.75           2239         132.00       565.40
 1149.33        2957.00           2243         129.00       552.32
 1149.36        2957.25           2246         141.00       604.63
 1149.39        2957.50           2250         144.00       617.71
 1149.42        2957.75           2254         145.00       622.07
 1149.45        2958.00           2257         132.00       565.40
 1149.48        2958.25           2261         133.00       569.76
 1149.51        2958.50           2264         146.00       626.43
 1149.54        2958.75           2268         117.00       500.01
 1149.57        2959.00           2271         124.00       530.52
 1149.60        2959.25           2275         157.00       674.38
 1149.63        2959.50           2278         148.00       635.15
 1149.66        2959.75           2282         124.00       530.52
 1149.69        2960.00           2285         140.00       600.27
 1149.73        2960.25           2289         137.00       587.20
 1149.76        2960.50           2293         151.00       648.23
 1149.79        2960.75           2296         172.00       739.77
 1149.82        2961.00           2300         178.00       765.93
 1149.85        2961.25           2303         323.00      1398.06
 1149.88        2961.50           2307        1141.00      4964.66
 1149.91        2961.75           2310        2353.00     10250.74
 1149.94        2962.00           2314        4399.00     19178.59
 1149.97        2962.25           2317        5889.00     25683.71
 1150.00        2962.50           2321        7814.00     34092.24
 1150.03        2962.75           2324        9043.00     39463.12
 1150.06        2963.00           2328       11076.00     48351.88
 1150.09        2963.25           2331       12769.00     55758.18
 1150.12        2963.50           2335       15105.00     65983.53
 1150.15        2963.75           2339       17153.00     74954.07
 1150.18        2964.00           2342       18814.00     82233.53
 1150.21        2964.25           2346       20711.00     90551.68
 1150.25        2964.50           2349       22182.00     97005.12
 1150.28        2964.75           2353       24028.00    105107.70
 1150.31        2965.00           2356       25799.00    112885.40
 1150.34        2965.25           2360       28213.00    123493.50
 1150.37        2965.50           2363       29322.00    128369.40
 1150.40        2965.75           2367       31168.00    136489.40
 1150.43        2966.00           2370       32454.00    142148.80
 1150.46        2966.25           2374       34440.00    150892.90
 1150.49        2966.50           2378       35218.00    154319.80
 1150.52        2966.75           2381       35189.00    154192.00
 1150.55        2967.00           2385       39349.00    172529.10
 1150.58        2967.25           2388       35498.00    155553.30
 1150.61        2967.50           2392       35100.00    153800.00
 1150.64        2967.75           2395       40471.00    177478.80
 1150.67        2968.00           2399       38888.00    170496.00
 1150.70        2968.25           2402       36683.00    160774.90
 1150.73        2968.50           2406       30454.00    133348.20
 1150.77        2968.75           2409       31133.00    136335.40
 1150.80        2969.00           2413       28749.00    125849.90
 1150.83        2969.25           2417       29446.00    128914.70
 1150.86        2969.50           2420       27479.00    120267.20
 1150.89        2969.75           2424       22132.00     96785.71
 1150.92        2970.00           2427       23664.00    103509.70
 1150.95        2970.25           2431       18532.00     80997.38
 1150.98        2970.50           2434       19312.00     84416.74
 1151.01        2970.75           2438       14688.00     64157.68
 1151.04        2971.00           2441       14475.00     63225.14
 1151.07        2971.25           2445       10942.00     47765.83
 1151.10        2971.50           2449        9410.00     41067.33
 1151.13        2971.75           2452        7749.00     33808.24
 1151.16        2972.00           2456        5706.00     24884.60
 1151.19        2972.25           2459        4167.00     18165.97
 1151.22        2972.50           2463        2232.00      9722.92
 1151.25        2972.75           2466        1191.00      5182.69
 1151.28        2973.00           2470         365.00      1581.17
 1151.32        2973.25           2473         203.00       874.92
 1151.35        2973.50           2477         173.00       744.13
 1151.38        2973.75           2481         143.00       613.35
 1151.41        2974.00           2484         150.00       643.87
 1151.44        2974.25           2488         139.00       595.91
 1151.47        2974.50           2491         151.00       648.23
 1151.50        2974.75           2495         132.00       565.40
 1151.53        2975.00           2498         130.00       556.68
 1151.56        2975.25           2502         135.00       578.48
 1151.59        2975.50           2505         125.00       534.88
 1151.62        2975.75           2509         140.00       600.27
 1151.65        2976.00           2512         150.00       643.87
 1151.68        2976.25           2516         130.00       556.68
 1151.71        2976.50           2520         130.00       556.68
 1151.74        2976.75           2523         113.00       482.57
 1151.77        2977.00           2527         151.00       648.23
 1151.80        2977.25           2530         136.00       582.84
 1151.84        2977.50           2534         107.00       456.42
 1151.87        2977.75           2537         148.00       635.15
 1151.90        2978.00           2541         124.00       530.52
 1151.93        2978.25           2544         162.00       696.18
 1151.96        2978.50           2548         107.00       456.42
 1151.99        2978.75           2552         145.00       622.07
 1152.02        2979.00           2555         107.00       456.42
 1152.05        2979.25           2559         123.00       526.16
 1152.08        2979.50           2562         140.00       600.27
 1152.11        2979.75           2566         136.00       582.84
 1152.14        2980.00           2569         101.00       430.26
 1152.17        2980.25           2573         107.00       456.42
 1152.20        2980.50           2577         102.00       434.62
 1152.23        2980.75           2580         119.00       508.73
 1152.26        2981.00           2584         113.00       482.57
 1152.29        2981.25           2587         101.00       430.26
 1152.32        2981.50           2591          97.00       412.82
 1152.36        2981.75           2594         143.00       613.35
 1152.39        2982.00           2598         100.00       425.90
 1152.42        2982.25           2601         119.00       508.73
 1152.45        2982.50           2605         134.00       574.12
 1152.48        2982.75           2609          97.00       412.82
 1152.51        2983.00           2612         102.00       434.62
 1152.54        2983.25           2616         113.00       482.57
 1152.57        2983.50           2619          94.00       399.74
 1152.60        2983.75           2623         114.00       486.93
 1152.63        2984.00           2626          91.00       386.67
HS scan finished at 19:12:51
end
