************************************************************
  HS Scan of (1) Internal mercury lamp
************************************************************
Integration time is 0.2294 seconds per sample
dh180917Reading 51.44 .94 3.01pr1000
************************************************************
Dead Time -------------------------  3.4E-08 
Number of Cycles Used -------------  4 
Starting Wavelength (Angstroms) ---  2950 
Final Wavelength (Angstoms) -------  2984 
Wavelength Increment (Angstroms) --  .25 
Filter Wheel #1 Position ---------- (1) Ground quartz diffuser (ND=2.32)
Filter Wheel #2 Position ---------- (1) Neutral Density 0.494



************************************************************
HS scan start time = 02:36:50
Dark Count =  .7 


Time (GMT)  Wavelength (Ang)  Step Number  Raw Counts  Counts/Second

  157.74        2950.00           2144         104.00       450.31
  157.93        2950.25           2147         107.00       463.39
  157.96        2950.50           2151          91.00       393.64
  157.99        2950.75           2155          98.00       424.16
  158.02        2951.00           2158         126.00       546.22
  158.05        2951.25           2162         119.00       515.70
  158.08        2951.50           2165          97.00       419.80
  158.11        2951.75           2169          97.00       419.80
  158.15        2952.00           2172          96.00       415.44
  158.18        2952.25           2176         121.00       524.42
  158.21        2952.50           2179          98.00       424.16
  158.24        2952.75           2183          91.00       393.64
  158.27        2953.00           2186         102.00       441.59
  158.30        2953.25           2190         101.00       437.23
  158.33        2953.50           2193         111.00       480.83
  158.36        2953.75           2197          97.00       419.80
  158.39        2954.00           2200         102.00       441.59
  158.42        2954.25           2204         104.00       450.31
  158.45        2954.50           2208         102.00       441.59
  158.48        2954.75           2211         108.00       467.75
  158.51        2955.00           2215          95.00       411.08
  158.54        2955.25           2218         106.00       459.03
  158.57        2955.50           2222         115.00       498.26
  158.61        2955.75           2225         107.00       463.39
  158.64        2956.00           2229         146.00       633.41
  158.67        2956.25           2232         126.00       546.22
  158.70        2956.50           2236         131.00       568.01
  158.73        2956.75           2239         109.00       472.11
  158.76        2957.00           2243         140.00       607.25
  158.79        2957.25           2246         113.00       489.55
  158.83        2957.50           2250         140.00       607.25
  158.86        2957.75           2254         158.00       685.72
  158.89        2958.00           2257         158.00       685.72
  158.92        2958.25           2261         109.00       472.11
  158.95        2958.50           2264         172.00       746.75
  158.98        2958.75           2268         148.00       642.12
  159.01        2959.00           2271         145.00       629.05
  159.04        2959.25           2275         149.00       646.48
  159.07        2959.50           2278         123.00       533.14
  159.10        2959.75           2282         148.00       642.12
  159.13        2960.00           2285         148.00       642.12
  159.16        2960.25           2289         150.00       650.84
  159.19        2960.50           2293         143.00       620.33
  159.22        2960.75           2296         136.00       589.81
  159.25        2961.00           2300         170.00       738.03
  159.28        2961.25           2303         325.00      1413.76
  159.31        2961.50           2307        1274.00      5551.62
  159.35        2961.75           2310        2470.00     10768.11
  159.38        2962.00           2314        4185.00     18251.51
  159.41        2962.25           2317        5559.00     24249.72
  159.44        2962.50           2321        7555.00     32967.62
  159.47        2962.75           2324        9077.00     39618.72
  159.50        2963.00           2328       11274.00     49224.86
  159.53        2963.25           2331       12989.00     56727.88
  159.56        2963.50           2335       14920.00     65180.48
  159.59        2963.75           2339       17028.00     74413.41
  159.62        2964.00           2342       18922.00     82713.98
  159.65        2964.25           2346       21174.00     92589.62
  159.68        2964.50           2349       22769.00     99588.16
  159.71        2964.75           2353       24832.00    108645.10
  159.74        2965.00           2356       26391.00    115493.20
  159.77        2965.25           2360       28533.00    124907.30
  159.80        2965.50           2363       30463.00    133394.80
  159.83        2965.75           2367       32177.00    140936.60
  159.87        2966.00           2370       33203.00    145453.00
  159.90        2966.25           2374       34862.00    152758.70
  159.93        2966.50           2378       35773.00    156772.00
  159.96        2966.75           2381       36041.00    157952.80
  159.99        2967.00           2385       36094.00    158186.30
  160.02        2967.25           2388       36187.00    158596.10
  160.05        2967.50           2392       36014.00    157833.80
  160.08        2967.75           2395       35829.00    157018.70
  160.11        2968.00           2399       34874.00    152811.50
  160.14        2968.25           2402       33391.00    146280.70
  160.17        2968.50           2406       31302.00    137086.00
  160.20        2968.75           2409       30126.00    131912.50
  160.23        2969.00           2413       28048.00    122775.20
  160.26        2969.25           2417       26156.00    114460.70
  160.29        2969.50           2420       24562.00    107459.50
  160.32        2969.75           2424       22548.00     98618.26
  160.35        2970.00           2427       20885.00     91321.92
  160.39        2970.25           2431       18535.00     81017.55
  160.43        2970.50           2434       16931.00     73988.43
  160.46        2970.75           2438       14890.00     65049.11
  160.49        2971.00           2441       13217.00     57725.65
  160.52        2971.25           2445       11371.00     49649.13
  160.55        2971.50           2449        9402.00     41039.35
  160.58        2971.75           2452        7816.00     34107.97
  160.61        2972.00           2456        5656.00     24673.26
  160.64        2972.25           2459        4150.00     18098.75
  160.67        2972.50           2463        2445.00     10659.05
  160.70        2972.75           2466        1342.00      5848.16
  160.73        2973.00           2470         378.00      1644.82
  160.77        2973.25           2473         193.00       838.30
  160.80        2973.50           2477         161.00       698.80
  160.83        2973.75           2481         157.00       681.36
  160.86        2974.00           2484         149.00       646.48
  160.89        2974.25           2488         156.00       677.00
  160.92        2974.50           2491         142.00       615.97
  160.95        2974.75           2495         139.00       602.89
  160.98        2975.00           2498         124.00       537.50
  161.01        2975.25           2502         142.00       615.97
  161.04        2975.50           2505         129.00       559.30
  161.07        2975.75           2509         129.00       559.30
  161.10        2976.00           2512         141.00       611.61
  161.13        2976.25           2516         144.00       624.69
  161.16        2976.50           2520         106.00       459.03
  161.19        2976.75           2523         146.00       633.41
  161.22        2977.00           2527         118.00       511.34
  161.25        2977.25           2530         112.00       485.19
  161.29        2977.50           2534         113.00       489.55
  161.32        2977.75           2537         117.00       506.98
  161.35        2978.00           2541         130.00       563.66
  161.38        2978.25           2544         102.00       441.59
  161.41        2978.50           2548         105.00       454.67
  161.44        2978.75           2552         105.00       454.67
  161.47        2979.00           2555         122.00       528.78
  161.50        2979.25           2559         109.00       472.11
  161.53        2979.50           2562         117.00       506.98
  161.56        2979.75           2566         101.00       437.23
  161.59        2980.00           2569          95.00       411.08
  161.62        2980.25           2573         128.00       554.94
  161.65        2980.50           2577         106.00       459.03
  161.68        2980.75           2580         117.00       506.98
  161.71        2981.00           2584         100.00       432.87
  161.74        2981.25           2587          93.00       402.36
  161.77        2981.50           2591         100.00       432.87
  161.80        2981.75           2594         136.00       589.81
  161.84        2982.00           2598          94.00       406.72
  161.87        2982.25           2601          83.00       358.77
  161.90        2982.50           2605          95.00       411.08
  161.93        2982.75           2609          99.00       428.52
  161.96        2983.00           2612          86.00       371.84
  161.99        2983.25           2616          87.00       376.20
  162.02        2983.50           2619          94.00       406.72
  162.05        2983.75           2623          94.00       406.72
  162.08        2984.00           2626          85.00       367.49
HS scan finished at 02:42:18
end
************************************************************
  HS Scan of (1) Internal mercury lamp
************************************************************
Integration time is 0.2294 seconds per sample
dh180917Reading 51.44 .94 3.37pr1000
************************************************************
Dead Time -------------------------  3.4E-08 
Number of Cycles Used -------------  4 
Starting Wavelength (Angstroms) ---  2950 
Final Wavelength (Angstoms) -------  2984 
Wavelength Increment (Angstroms) --  .25 
Filter Wheel #1 Position ---------- (1) Ground quartz diffuser (ND=2.32)
Filter Wheel #2 Position ---------- (1) Neutral Density 0.494



************************************************************
HS scan start time = 19:07:26
Dark Count =  2.6 


Time (GMT)  Wavelength (Ang)  Step Number  Raw Counts  Counts/Second

 1148.33        2950.00           2144         174.00       747.19
 1148.52        2950.25           2147         166.00       712.31
 1148.55        2950.50           2151         157.00       673.08
 1148.58        2950.75           2155         176.00       755.90
 1148.61        2951.00           2158         159.00       681.79
 1148.64        2951.25           2162         164.00       703.59
 1148.68        2951.50           2165         166.00       712.31
 1148.71        2951.75           2169         176.00       755.90
 1148.74        2952.00           2172         165.00       707.95
 1148.77        2952.25           2176         175.00       751.54
 1148.80        2952.50           2179         188.00       808.22
 1148.83        2952.75           2183         172.00       738.47
 1148.86        2953.00           2186         178.00       764.62
 1148.89        2953.25           2190         169.00       725.39
 1148.92        2953.50           2193         167.00       716.67
 1148.95        2953.75           2197         169.00       725.39
 1148.98        2954.00           2200         184.00       790.78
 1149.01        2954.25           2204         183.00       786.42
 1149.04        2954.50           2208         184.00       790.78
 1149.07        2954.75           2211         186.00       799.50
 1149.10        2955.00           2215         188.00       808.22
 1149.13        2955.25           2218         188.00       808.22
 1149.16        2955.50           2222         190.00       816.94
 1149.20        2955.75           2225         208.00       895.41
 1149.23        2956.00           2229         197.00       847.45
 1149.26        2956.25           2232         182.00       782.06
 1149.29        2956.50           2236         195.00       838.73
 1149.32        2956.75           2239         189.00       812.58
 1149.35        2957.00           2243         206.00       886.69
 1149.38        2957.25           2246         192.00       825.66
 1149.41        2957.50           2250         195.00       838.73
 1149.44        2957.75           2254         204.00       877.97
 1149.47        2958.00           2257         201.00       864.89
 1149.50        2958.25           2261         203.00       873.61
 1149.53        2958.50           2264         190.00       816.94
 1149.56        2958.75           2268         232.00      1000.03
 1149.59        2959.00           2271         206.00       886.69
 1149.62        2959.25           2275         238.00      1026.19
 1149.65        2959.50           2278         244.00      1052.35
 1149.68        2959.75           2282         236.00      1017.47
 1149.72        2960.00           2285         242.00      1043.63
 1149.75        2960.25           2289         260.00      1122.10
 1149.78        2960.50           2293         261.00      1126.46
 1149.81        2960.75           2296         290.00      1252.89
 1149.84        2961.00           2300         344.00      1488.31
 1149.87        2961.25           2303         686.00      2979.38
 1149.90        2961.50           2307        2363.00     10293.05
 1149.93        2961.75           2310        4515.00     19683.61
 1149.96        2962.00           2314        7781.00     33946.75
 1149.99        2962.25           2317       10748.00     46916.11
 1150.02        2962.50           2321       14851.00     64870.04
 1150.06        2962.75           2324       17571.00     76784.33
 1150.10        2963.00           2328       21124.00     92361.96
 1150.13        2963.25           2331       23898.00    104535.70
 1150.16        2963.50           2335       27481.00    120274.60
 1150.19        2963.75           2339       31603.00    138402.20
 1150.22        2964.00           2342       34912.00    152970.50
 1150.25        2964.25           2346       38457.00    168594.00
 1150.28        2964.50           2349       41176.00    180588.40
 1150.31        2964.75           2353       44929.00    197160.30
 1150.34        2965.00           2356       47573.00    208846.50
 1150.37        2965.25           2360       50828.00    223246.10
 1150.40        2965.50           2363       53383.00    234558.90
 1150.43        2965.75           2367       57231.00    251613.30
 1150.46        2966.00           2370       60119.00    264426.00
 1150.50        2966.25           2374       63019.00    277303.20
 1150.53        2966.50           2378       64339.00    283168.30
 1150.56        2966.75           2381       64490.00    283839.40
 1150.59        2967.00           2385       64711.00    284821.60
 1150.62        2967.25           2388       64421.00    283532.70
 1150.65        2967.50           2392       64307.00    283026.10
 1150.68        2967.75           2395       64053.00    281897.30
 1150.71        2968.00           2399       61856.00    272137.60
 1150.74        2968.25           2402       59888.00    263400.70
 1150.77        2968.50           2406       56538.00    248540.40
 1150.80        2968.75           2409       54031.00    237429.50
 1150.83        2969.00           2413       50235.00    220621.70
 1150.86        2969.25           2417       46366.00    203510.50
 1150.89        2969.50           2420       43965.00    192901.90
 1150.92        2969.75           2424       40197.00    176268.60
 1150.95        2970.00           2427       37253.00    163285.90
 1150.98        2970.25           2431       33173.00    145312.50
 1151.01        2970.50           2434       30594.00    133962.80
 1151.05        2970.75           2438       26726.00    116956.80
 1151.08        2971.00           2441       23658.00    103482.00
 1151.11        2971.25           2445       19804.00     86572.68
 1151.14        2971.50           2449       15857.00     69275.46
 1151.17        2971.75           2452       13182.00     57564.17
 1151.20        2972.00           2456        9883.00     43133.83
 1151.23        2972.25           2459        7416.00     32352.04
 1151.26        2972.50           2463        3933.00     17143.38
 1151.29        2972.75           2466        1840.00      8011.77
 1151.32        2973.00           2470         528.00      2290.50
 1151.35        2973.25           2473         319.00      1379.31
 1151.38        2973.50           2477         270.00      1165.70
 1151.41        2973.75           2481         251.00      1082.86
 1151.44        2974.00           2484         269.00      1161.34
 1151.47        2974.25           2488         229.00       986.96
 1151.50        2974.50           2491         249.00      1074.15
 1151.53        2974.75           2495         222.00       956.44
 1151.57        2975.00           2498         219.00       943.36
 1151.60        2975.25           2502         202.00       869.25
 1151.63        2975.50           2505         216.00       930.28
 1151.66        2975.75           2509         206.00       886.69
 1151.69        2976.00           2512         202.00       869.25
 1151.72        2976.25           2516         208.00       895.41
 1151.75        2976.50           2520         201.00       864.89
 1151.78        2976.75           2523         191.00       821.30
 1151.81        2977.00           2527         206.00       886.69
 1151.84        2977.25           2530         197.00       847.45
 1151.87        2977.50           2534         202.00       869.25
 1151.90        2977.75           2537         196.00       843.09
 1151.93        2978.00           2541         187.00       803.86
 1151.96        2978.25           2544         183.00       786.42
 1151.99        2978.50           2548         166.00       712.31
 1152.02        2978.75           2552         186.00       799.50
 1152.05        2979.00           2555         176.00       755.90
 1152.09        2979.25           2559         170.00       729.75
 1152.12        2979.50           2562         187.00       803.86
 1152.15        2979.75           2566         170.00       729.75
 1152.18        2980.00           2569         177.00       760.26
 1152.21        2980.25           2573         178.00       764.62
 1152.24        2980.50           2577         166.00       712.31
 1152.27        2980.75           2580         175.00       751.54
 1152.30        2981.00           2584         161.00       690.51
 1152.33        2981.25           2587         170.00       729.75
 1152.36        2981.50           2591         169.00       725.39
 1152.39        2981.75           2594         169.00       725.39
 1152.42        2982.00           2598         168.00       721.03
 1152.45        2982.25           2601         161.00       690.51
 1152.48        2982.50           2605         152.00       651.28
 1152.51        2982.75           2609         164.00       703.59
 1152.54        2983.00           2612         143.00       612.04
 1152.57        2983.25           2616         159.00       681.79
 1152.61        2983.50           2619         151.00       646.92
 1152.64        2983.75           2623         154.00       660.00
 1152.67        2984.00           2626         155.00       664.36
HS scan finished at 19:12:53
end
