************************************************************
  HS Scan of (1) Internal mercury lamp
************************************************************
Integration time is 0.2294 seconds per sample
dh180918Reading 51.44 .94 3.52pr1000
************************************************************
Dead Time -------------------------  3.4E-08 
Number of Cycles Used -------------  4 
Starting Wavelength (Angstroms) ---  2950 
Final Wavelength (Angstoms) -------  2984 
Wavelength Increment (Angstroms) --  .25 
Filter Wheel #1 Position ---------- (1) Ground quartz diffuser (ND=2.32)
Filter Wheel #2 Position ---------- (1) Neutral Density 0.494



************************************************************
HS scan start time = 02:37:14
Dark Count =  2.2 


Time (GMT)  Wavelength (Ang)  Step Number  Raw Counts  Counts/Second

  158.13        2950.00           2144          54.00       225.81
  158.33        2950.25           2147          59.00       247.60
  158.36        2950.50           2151          57.00       238.89
  158.39        2950.75           2155          52.00       217.09
  158.42        2951.00           2158          60.00       251.96
  158.45        2951.25           2162          60.00       251.96
  158.48        2951.50           2165          56.00       234.53
  158.51        2951.75           2169          57.00       238.89
  158.54        2952.00           2172          62.00       260.68
  158.57        2952.25           2176          57.00       238.89
  158.60        2952.50           2179          50.00       208.37
  158.63        2952.75           2183          57.00       238.89
  158.66        2953.00           2186          59.00       247.60
  158.69        2953.25           2190          61.00       256.32
  158.72        2953.50           2193          64.00       269.40
  158.75        2953.75           2197          67.00       282.48
  158.79        2954.00           2200          65.00       273.76
  158.82        2954.25           2204          55.00       230.17
  158.85        2954.50           2208          66.00       278.12
  158.88        2954.75           2211          66.00       278.12
  158.91        2955.00           2215          69.00       291.20
  158.94        2955.25           2218          60.00       251.96
  158.97        2955.50           2222          57.00       238.89
  159.00        2955.75           2225          61.00       256.32
  159.03        2956.00           2229          62.00       260.68
  159.06        2956.25           2232          68.00       286.84
  159.09        2956.50           2236          61.00       256.32
  159.12        2956.75           2239          67.00       282.48
  159.15        2957.00           2243          67.00       282.48
  159.18        2957.25           2246          73.00       308.63
  159.21        2957.50           2250          62.00       260.68
  159.24        2957.75           2254          68.00       286.84
  159.27        2958.00           2257          70.00       295.56
  159.31        2958.25           2261          68.00       286.84
  159.34        2958.50           2264          75.00       317.35
  159.37        2958.75           2268          66.00       278.12
  159.40        2959.00           2271          69.00       291.20
  159.43        2959.25           2275          77.00       326.07
  159.46        2959.50           2278          79.00       334.79
  159.49        2959.75           2282          76.00       321.71
  159.52        2960.00           2285          68.00       286.84
  159.55        2960.25           2289          83.00       352.23
  159.58        2960.50           2293          84.00       356.59
  159.61        2960.75           2296          85.00       360.95
  159.64        2961.00           2300         110.00       469.93
  159.67        2961.25           2303         231.00       997.42
  159.70        2961.50           2307         854.00      3713.63
  159.73        2961.75           2310        1544.00      6722.55
  159.76        2962.00           2314        2516.00     10962.24
  159.79        2962.25           2317        3319.00     14465.70
  159.83        2962.50           2321        4470.00     19488.93
  159.86        2962.75           2324        5453.00     23780.34
  159.89        2963.00           2328        6676.00     29121.24
  159.92        2963.25           2331        7602.00     33166.41
  159.95        2963.50           2335        8903.00     38851.63
  159.98        2963.75           2339       10174.00     44407.89
  160.01        2964.00           2342       10999.00     48015.55
  160.04        2964.25           2346       12190.00     53225.26
  160.07        2964.50           2349       13038.00     56935.75
  160.10        2964.75           2353       14389.00     62849.07
  160.13        2965.00           2356       15093.00     65931.41
  160.16        2965.25           2360       16220.00     70867.16
  160.19        2965.50           2363       17180.00     75072.81
  160.22        2965.75           2367       18301.00     79985.32
  160.25        2966.00           2370       18778.00     82076.16
  160.28        2966.25           2374       19826.00     86670.90
  160.31        2966.50           2378       20236.00     88468.84
  160.35        2966.75           2381       20532.00     89767.03
  160.38        2967.00           2385       20553.00     89859.12
  160.41        2967.25           2388       20258.00     88565.34
  160.44        2967.50           2392       20280.00     88661.82
  160.48        2967.75           2395       19878.00     86898.92
  160.51        2968.00           2399       19522.00     85337.93
  160.54        2968.25           2402       18834.00     82321.65
  160.57        2968.50           2406       17622.00     77009.58
  160.60        2968.75           2409       16539.00     72264.53
  160.63        2969.00           2413       15417.00     67350.21
  160.66        2969.25           2417       15340.00     67013.03
  160.69        2969.50           2420       14466.00     63186.17
  160.72        2969.75           2424       13222.00     57740.98
  160.75        2970.00           2427       12178.00     53172.77
  160.78        2970.25           2431       10767.00     47000.95
  160.81        2970.50           2434        9651.00     42121.31
  160.84        2970.75           2438        8302.00     36225.06
  160.87        2971.00           2441        7432.00     32423.69
  160.90        2971.25           2445        6272.00     27356.73
  160.94        2971.50           2449        4737.00     20654.43
  160.97        2971.75           2452        3808.00     16599.60
  161.00        2972.00           2456        2755.00     12004.90
  161.03        2972.25           2459        1913.00      8331.92
  161.06        2972.50           2463        1064.00      4629.33
  161.09        2972.75           2466         519.00      2253.01
  161.12        2973.00           2470         179.00       770.73
  161.15        2973.25           2473         124.00       530.96
  161.18        2973.50           2477          88.00       374.02
  161.21        2973.75           2481          86.00       365.31
  161.24        2974.00           2484          85.00       360.95
  161.27        2974.25           2488          76.00       321.71
  161.30        2974.50           2491          84.00       356.59
  161.33        2974.75           2495          77.00       326.07
  161.36        2975.00           2498          80.00       339.15
  161.39        2975.25           2502          75.00       317.35
  161.42        2975.50           2505          93.00       395.82
  161.46        2975.75           2509          68.00       286.84
  161.49        2976.00           2512          83.00       352.23
  161.52        2976.25           2516          78.00       330.43
  161.55        2976.50           2520          74.00       312.99
  161.58        2976.75           2523          69.00       291.20
  161.61        2977.00           2527          77.00       326.07
  161.64        2977.25           2530          69.00       291.20
  161.67        2977.50           2534          64.00       269.40
  161.70        2977.75           2537          62.00       260.68
  161.73        2978.00           2541          71.00       299.92
  161.76        2978.25           2544          67.00       282.48
  161.79        2978.50           2548          63.00       265.04
  161.82        2978.75           2552          64.00       269.40
  161.85        2979.00           2555          69.00       291.20
  161.88        2979.25           2559          64.00       269.40
  161.91        2979.50           2562          62.00       260.68
  161.94        2979.75           2566          62.00       260.68
  161.97        2980.00           2569          66.00       278.12
  162.01        2980.25           2573          66.00       278.12
  162.04        2980.50           2577          62.00       260.68
  162.07        2980.75           2580          62.00       260.68
  162.10        2981.00           2584          56.00       234.53
  162.13        2981.25           2587          63.00       265.04
  162.16        2981.50           2591          57.00       238.89
  162.19        2981.75           2594          58.00       243.25
  162.22        2982.00           2598          57.00       238.89
  162.25        2982.25           2601          60.00       251.96
  162.28        2982.50           2605          60.00       251.96
  162.31        2982.75           2609          57.00       238.89
  162.34        2983.00           2612          65.00       273.76
  162.37        2983.25           2616          56.00       234.53
  162.40        2983.50           2619          53.00       221.45
  162.43        2983.75           2623          60.00       251.96
  162.46        2984.00           2626          60.00       251.96
HS scan finished at 02:42:41
end
************************************************************
  HS Scan of (1) Internal mercury lamp
************************************************************
Integration time is 0.2294 seconds per sample
dh180918Reading 51.44 .94 3.66pr1000
************************************************************
Dead Time -------------------------  3.4E-08 
Number of Cycles Used -------------  4 
Starting Wavelength (Angstroms) ---  2950 
Final Wavelength (Angstoms) -------  2984 
Wavelength Increment (Angstroms) --  .25 
Filter Wheel #1 Position ---------- (1) Ground quartz diffuser (ND=2.32)
Filter Wheel #2 Position ---------- (1) Neutral Density 0.494



************************************************************
HS scan start time = 19:07:25
Dark Count =  3.8 


Time (GMT)  Wavelength (Ang)  Step Number  Raw Counts  Counts/Second

 1148.32        2950.00           2144          51.00       205.76
 1148.51        2950.25           2147          58.00       236.27
 1148.54        2950.50           2151          42.00       166.52
 1148.57        2950.75           2155          49.00       197.04
 1148.60        2951.00           2158          56.00       227.55
 1148.63        2951.25           2162          56.00       227.55
 1148.66        2951.50           2165          49.00       197.04
 1148.69        2951.75           2169          53.00       214.47
 1148.73        2952.00           2172          58.00       236.27
 1148.76        2952.25           2176          52.00       210.11
 1148.79        2952.50           2179          55.00       223.19
 1148.82        2952.75           2183          53.00       214.47
 1148.85        2953.00           2186          61.00       249.35
 1148.88        2953.25           2190          55.00       223.19
 1148.91        2953.50           2193          59.00       240.63
 1148.94        2953.75           2197          55.00       223.19
 1148.97        2954.00           2200          52.00       210.11
 1149.00        2954.25           2204          55.00       223.19
 1149.03        2954.50           2208          55.00       223.19
 1149.06        2954.75           2211          54.00       218.83
 1149.09        2955.00           2215          55.00       223.19
 1149.12        2955.25           2218          56.00       227.55
 1149.15        2955.50           2222          53.00       214.47
 1149.18        2955.75           2225          67.00       275.50
 1149.21        2956.00           2229          61.00       249.35
 1149.25        2956.25           2232          66.00       271.14
 1149.29        2956.50           2236          61.00       249.35
 1149.32        2956.75           2239          70.00       288.58
 1149.35        2957.00           2243          59.00       240.63
 1149.38        2957.25           2246          59.00       240.63
 1149.41        2957.50           2250          77.00       319.10
 1149.44        2957.75           2254          68.00       279.86
 1149.47        2958.00           2257          62.00       253.71
 1149.50        2958.25           2261          66.00       271.14
 1149.53        2958.50           2264          63.00       258.07
 1149.56        2958.75           2268          60.00       244.99
 1149.59        2959.00           2271          64.00       262.43
 1149.62        2959.25           2275          72.00       297.30
 1149.65        2959.50           2278          61.00       249.35
 1149.68        2959.75           2282          70.00       288.58
 1149.71        2960.00           2285          73.00       301.66
 1149.75        2960.25           2289          74.00       306.02
 1149.78        2960.50           2293          73.00       301.66
 1149.81        2960.75           2296          89.00       371.41
 1149.84        2961.00           2300         124.00       523.98
 1149.87        2961.25           2303         271.00      1164.82
 1149.90        2961.50           2307         778.00      3375.28
 1149.93        2961.75           2310        1462.00      6357.96
 1149.96        2962.00           2314        2527.00     11003.24
 1149.99        2962.25           2317        3234.00     14087.83
 1150.02        2962.50           2321        4149.00     18080.86
 1150.05        2962.75           2324        5011.00     21843.60
 1150.08        2963.00           2328        6010.00     26205.56
 1150.11        2963.25           2331        7174.00     31289.59
 1150.14        2963.50           2335        8429.00     36773.07
 1150.17        2963.75           2339        9711.00     42376.62
 1150.20        2964.00           2342       10694.00     46674.71
 1150.23        2964.25           2346       11997.00     52373.92
 1150.27        2964.50           2349       12903.00     56337.98
 1150.30        2964.75           2353       13903.00     60714.57
 1150.33        2965.00           2356       14759.00     64461.97
 1150.36        2965.25           2360       15820.00     69108.15
 1150.39        2965.50           2363       16714.00     73024.15
 1150.42        2965.75           2367       17799.00     77778.21
 1150.45        2966.00           2370       18649.00     81503.66
 1150.48        2966.25           2374       19391.00     84756.53
 1150.51        2966.50           2378       19599.00     85668.52
 1150.54        2966.75           2381       19691.00     86071.91
 1150.57        2967.00           2385       19704.00     86128.92
 1150.60        2967.25           2388       19723.00     86212.22
 1150.63        2967.50           2392       19586.00     85611.52
 1150.66        2967.75           2395       19434.00     84945.06
 1150.69        2968.00           2399       18437.00     80574.40
 1150.72        2968.25           2402       17751.00     77567.86
 1150.75        2968.50           2406       16791.00     73361.49
 1150.79        2968.75           2409       15921.00     69550.50
 1150.82        2969.00           2413       14797.00     64628.35
 1150.85        2969.25           2417       13726.00     59939.82
 1150.88        2969.50           2420       12722.00     55545.96
 1150.91        2969.75           2424       11569.00     50501.64
 1150.94        2970.00           2427       10711.00     46749.05
 1150.97        2970.25           2431        9639.00     42061.86
 1151.00        2970.50           2434        8698.00     37948.67
 1151.03        2970.75           2438        7703.00     33600.70
 1151.06        2971.00           2441        6483.00     28271.28
 1151.09        2971.25           2445        5593.00     24384.64
 1151.12        2971.50           2449        4439.00     19346.64
 1151.15        2971.75           2452        3628.00     15807.10
 1151.18        2972.00           2456        2586.00     11260.63
 1151.21        2972.25           2459        1727.00      7513.69
 1151.24        2972.50           2463         840.00      3645.61
 1151.27        2972.75           2466         412.00      1779.53
 1151.31        2973.00           2470         144.00       611.17
 1151.34        2973.25           2473          82.00       340.89
 1151.37        2973.50           2477          82.00       340.89
 1151.40        2973.75           2481          79.00       327.82
 1151.43        2974.00           2484          79.00       327.82
 1151.46        2974.25           2488          69.00       284.22
 1151.49        2974.50           2491          72.00       297.30
 1151.52        2974.75           2495          64.00       262.43
 1151.55        2975.00           2498          69.00       284.22
 1151.58        2975.25           2502          73.00       301.66
 1151.61        2975.50           2505          64.00       262.43
 1151.64        2975.75           2509          72.00       297.30
 1151.67        2976.00           2512          66.00       271.14
 1151.70        2976.25           2516          64.00       262.43
 1151.73        2976.50           2520          71.00       292.94
 1151.76        2976.75           2523          70.00       288.58
 1151.79        2977.00           2527          55.00       223.19
 1151.83        2977.25           2530          60.00       244.99
 1151.86        2977.50           2534          65.00       266.79
 1151.89        2977.75           2537          62.00       253.71
 1151.92        2978.00           2541          67.00       275.50
 1151.95        2978.25           2544          63.00       258.07
 1151.98        2978.50           2548          61.00       249.35
 1152.01        2978.75           2552          65.00       266.79
 1152.04        2979.00           2555          60.00       244.99
 1152.07        2979.25           2559          65.00       266.79
 1152.10        2979.50           2562          60.00       244.99
 1152.13        2979.75           2566          57.00       231.91
 1152.16        2980.00           2569          61.00       249.35
 1152.19        2980.25           2573          53.00       214.47
 1152.22        2980.50           2577          46.00       183.96
 1152.25        2980.75           2580          53.00       214.47
 1152.28        2981.00           2584          58.00       236.27
 1152.31        2981.25           2587          58.00       236.27
 1152.35        2981.50           2591          53.00       214.47
 1152.38        2981.75           2594          47.00       188.32
 1152.41        2982.00           2598          57.00       231.91
 1152.44        2982.25           2601          63.00       258.07
 1152.47        2982.50           2605          53.00       214.47
 1152.50        2982.75           2609          52.00       210.11
 1152.53        2983.00           2612          53.00       214.47
 1152.56        2983.25           2616          55.00       223.19
 1152.59        2983.50           2619          50.00       201.40
 1152.62        2983.75           2623          47.00       188.32
 1152.65        2984.00           2626          56.00       227.55
HS scan finished at 19:12:52
end
