************************************************************
  HS Scan of (1) Internal mercury lamp
************************************************************
Integration time is 0.2294 seconds per sample
dh210918Reading 51.44 .94 3.21pr1000
************************************************************
Dead Time -------------------------  3.4E-08 
Number of Cycles Used -------------  4 
Starting Wavelength (Angstroms) ---  2950 
Final Wavelength (Angstoms) -------  2984 
Wavelength Increment (Angstroms) --  .25 
Filter Wheel #1 Position ---------- (1) Ground quartz diffuser (ND=2.32)
Filter Wheel #2 Position ---------- (1) Neutral Density 0.494



************************************************************
HS scan start time = 02:45:39
Dark Count =  1.3 


Time (GMT)  Wavelength (Ang)  Step Number  Raw Counts  Counts/Second

  166.54        2950.00           2144          84.00       360.51
  166.74        2950.25           2147          79.00       338.71
  166.77        2950.50           2151          82.00       351.79
  166.80        2950.75           2155          81.00       347.43
  166.83        2951.00           2158          87.00       373.59
  166.86        2951.25           2162          85.00       364.87
  166.89        2951.50           2165          83.00       356.15
  166.92        2951.75           2169          85.00       364.87
  166.95        2952.00           2172          85.00       364.87
  166.98        2952.25           2176          92.00       395.38
  167.01        2952.50           2179          88.00       377.95
  167.04        2952.75           2183          83.00       356.15
  167.07        2953.00           2186          81.00       347.43
  167.10        2953.25           2190          83.00       356.15
  167.13        2953.50           2193         100.00       430.26
  167.16        2953.75           2197          85.00       364.87
  167.19        2954.00           2200          89.00       382.31
  167.22        2954.25           2204          83.00       356.15
  167.25        2954.50           2208          88.00       377.95
  167.29        2954.75           2211          91.00       391.03
  167.32        2955.00           2215          95.00       408.46
  167.35        2955.25           2218          94.00       404.10
  167.38        2955.50           2222          95.00       408.46
  167.41        2955.75           2225         103.00       443.34
  167.44        2956.00           2229         111.00       478.21
  167.47        2956.25           2232          99.00       425.90
  167.50        2956.50           2236         114.00       491.29
  167.53        2956.75           2239         100.00       430.26
  167.56        2957.00           2243         110.00       473.85
  167.59        2957.25           2246         105.00       452.06
  167.62        2957.50           2250         103.00       443.34
  167.65        2957.75           2254          99.00       425.90
  167.68        2958.00           2257         126.00       543.60
  167.71        2958.25           2261         107.00       460.77
  167.74        2958.50           2264         113.00       486.93
  167.77        2958.75           2268         125.00       539.24
  167.81        2959.00           2271         108.00       465.13
  167.84        2959.25           2275         103.00       443.34
  167.87        2959.50           2278         117.00       504.37
  167.90        2959.75           2282         118.00       508.73
  167.93        2960.00           2285         155.00       670.02
  167.96        2960.25           2289          94.00       404.10
  168.00        2960.50           2293          88.00       377.95
  168.03        2960.75           2296          93.00       399.74
  168.06        2961.00           2300         131.00       565.40
  168.09        2961.25           2303         252.00      1092.89
  168.12        2961.50           2307         732.00      3185.61
  168.15        2961.75           2310        1352.00      5889.15
  168.18        2962.00           2314        2370.00     10329.26
  168.21        2962.25           2317        3224.00     14055.10
  168.24        2962.50           2321        4544.00     19815.88
  168.27        2962.75           2324        5545.00     24185.97
  168.30        2963.00           2328        6679.00     29138.27
  168.33        2963.25           2331        7361.00     32117.44
  168.36        2963.50           2335        8243.00     35971.17
  168.39        2963.75           2339        9658.00     42155.85
  168.42        2964.00           2342       10708.00     46746.87
  168.45        2964.25           2346       11960.00     52222.99
  168.48        2964.50           2349       12765.00     55745.05
  168.52        2964.75           2353       13978.00     61053.81
  168.55        2965.00           2356       14520.00     63426.53
  168.58        2965.25           2360       15504.00     67735.16
  168.61        2965.50           2363       18095.00     79086.40
  168.64        2965.75           2367       19324.00     84473.74
  168.67        2966.00           2370       19844.00     86753.78
  168.70        2966.25           2374       20679.00     90415.71
  168.73        2966.50           2378       20867.00     91240.31
  168.76        2966.75           2381       20539.00     89801.68
  168.79        2967.00           2385       19557.00     85495.33
  168.82        2967.25           2388       21785.00     95267.55
  168.85        2967.50           2392       21669.00     94758.59
  168.88        2967.75           2395       21495.00     93995.21
  168.91        2968.00           2399       20913.00     91442.09
  168.94        2968.25           2402       20045.00     87635.18
  168.97        2968.50           2406       18770.00     82045.03
  169.00        2968.75           2409       17926.00     78345.73
  169.04        2969.00           2413       16733.00     73118.34
  169.07        2969.25           2417       15321.00     66933.76
  169.10        2969.50           2420       14261.00     62292.65
  169.13        2969.75           2424       12901.00     56340.17
  169.16        2970.00           2427       11239.00     49069.16
  169.19        2970.25           2431       11156.00     48706.14
  169.22        2970.50           2434       10230.00     44656.68
  169.25        2970.75           2438        8607.00     37561.90
  169.28        2971.00           2441        7603.00     33174.72
  169.31        2971.25           2445        6369.00     27784.30
  169.34        2971.50           2449        5040.00     21981.11
  169.37        2971.75           2452        4416.00     19257.16
  169.40        2972.00           2456        3242.00     14133.64
  169.43        2972.25           2459        2371.00     10333.62
  169.46        2972.50           2463        1275.00      5553.36
  169.49        2972.75           2466         606.00      2636.24
  169.52        2973.00           2470         187.00       809.53
  169.56        2973.25           2473         136.00       587.20
  169.59        2973.50           2477          94.00       404.10
  169.62        2973.75           2481          86.00       369.23
  169.65        2974.00           2484          90.00       386.67
  169.68        2974.25           2488          83.00       356.15
  169.71        2974.50           2491          82.00       351.79
  169.74        2974.75           2495          84.00       360.51
  169.77        2975.00           2498          79.00       338.71
  169.80        2975.25           2502          76.00       325.64
  169.83        2975.50           2505          78.00       334.35
  169.86        2975.75           2509          74.00       316.92
  169.89        2976.00           2512          78.00       334.35
  169.92        2976.25           2516          76.00       325.64
  169.95        2976.50           2520          79.00       338.71
  169.98        2976.75           2523          76.00       325.64
  170.01        2977.00           2527          83.00       356.15
  170.04        2977.25           2530          67.00       286.40
  170.08        2977.50           2534          70.00       299.48
  170.11        2977.75           2537          69.00       295.12
  170.14        2978.00           2541          68.00       290.76
  170.17        2978.25           2544          72.00       308.20
  170.20        2978.50           2548          71.00       303.84
  170.23        2978.75           2552          69.00       295.12
  170.26        2979.00           2555          69.00       295.12
  170.29        2979.25           2559          74.00       316.92
  170.32        2979.50           2562          69.00       295.12
  170.35        2979.75           2566          71.00       303.84
  170.38        2980.00           2569          64.00       273.32
  170.41        2980.25           2573          71.00       303.84
  170.44        2980.50           2577          64.00       273.32
  170.47        2980.75           2580          64.00       273.32
  170.50        2981.00           2584          65.00       277.68
  170.53        2981.25           2587          60.00       255.89
  170.56        2981.50           2591          89.00       382.31
  170.60        2981.75           2594          97.00       417.18
  170.63        2982.00           2598          92.00       395.38
  170.66        2982.25           2601          91.00       391.03
  170.69        2982.50           2605         100.00       430.26
  170.72        2982.75           2609          92.00       395.38
  170.75        2983.00           2612         100.00       430.26
  170.78        2983.25           2616          90.00       386.67
  170.81        2983.50           2619          85.00       364.87
  170.84        2983.75           2623          75.00       321.28
  170.87        2984.00           2626          62.00       264.61
HS scan finished at 02:51:06
end
************************************************************
  HS Scan of (1) Internal mercury lamp
************************************************************
Integration time is 0.2294 seconds per sample
dh210918Reading 51.44 .94 3.31pr1000
************************************************************
Dead Time -------------------------  3.4E-08 
Number of Cycles Used -------------  4 
Starting Wavelength (Angstroms) ---  2950 
Final Wavelength (Angstoms) -------  2984 
Wavelength Increment (Angstroms) --  .25 
Filter Wheel #1 Position ---------- (1) Ground quartz diffuser (ND=2.32)
Filter Wheel #2 Position ---------- (1) Neutral Density 0.494



************************************************************
HS scan start time = 19:07:29
Dark Count =  1.6 


Time (GMT)  Wavelength (Ang)  Step Number  Raw Counts  Counts/Second

 1148.39        2950.00           2144          61.00       258.94
 1148.58        2950.25           2147          69.00       293.81
 1148.61        2950.50           2151          68.00       289.45
 1148.64        2950.75           2155          73.00       311.25
 1148.67        2951.00           2158          69.00       293.81
 1148.70        2951.25           2162          65.00       276.38
 1148.73        2951.50           2165          71.00       302.53
 1148.76        2951.75           2169          71.00       302.53
 1148.80        2952.00           2172          69.00       293.81
 1148.83        2952.25           2176          63.00       267.66
 1148.86        2952.50           2179          71.00       302.53
 1148.89        2952.75           2183          75.00       319.97
 1148.92        2953.00           2186          70.00       298.17
 1148.95        2953.25           2190          69.00       293.81
 1148.98        2953.50           2193          70.00       298.17
 1149.01        2953.75           2197          82.00       350.48
 1149.04        2954.00           2200          74.00       315.61
 1149.07        2954.25           2204          82.00       350.48
 1149.10        2954.50           2208          70.00       298.17
 1149.13        2954.75           2211          74.00       315.61
 1149.16        2955.00           2215          74.00       315.61
 1149.19        2955.25           2218          86.00       367.92
 1149.22        2955.50           2222          64.00       272.02
 1149.25        2955.75           2225          72.00       306.89
 1149.28        2956.00           2229          80.00       341.77
 1149.32        2956.25           2232          76.00       324.33
 1149.35        2956.50           2236          80.00       341.77
 1149.38        2956.75           2239          77.00       328.69
 1149.41        2957.00           2243          80.00       341.77
 1149.44        2957.25           2246          76.00       324.33
 1149.47        2957.50           2250          76.00       324.33
 1149.50        2957.75           2254          86.00       367.92
 1149.53        2958.00           2257          91.00       389.72
 1149.56        2958.25           2261          90.00       385.36
 1149.59        2958.50           2264          90.00       385.36
 1149.62        2958.75           2268          87.00       372.28
 1149.65        2959.00           2271          92.00       394.08
 1149.68        2959.25           2275          94.00       402.80
 1149.71        2959.50           2278          95.00       407.15
 1149.74        2959.75           2282         100.00       428.95
 1149.77        2960.00           2285         111.00       476.90
 1149.80        2960.25           2289          93.00       398.44
 1149.83        2960.50           2293         129.00       555.37
 1149.87        2960.75           2296         133.00       572.81
 1149.90        2961.00           2300         154.00       664.36
 1149.93        2961.25           2303         303.00      1313.92
 1149.96        2961.50           2307        1091.00      4749.68
 1149.99        2961.75           2310        2058.00      8966.99
 1150.02        2962.00           2314        3495.00     15236.31
 1150.05        2962.25           2317        4546.00     19823.30
 1150.08        2962.50           2321        6199.00     27040.54
 1150.11        2962.75           2324        7299.00     31845.27
 1150.14        2963.00           2328        8899.00     38836.78
 1150.17        2963.25           2331       10192.00     44489.22
 1150.20        2963.50           2335       11747.00     51289.89
 1150.23        2963.75           2339       13527.00     59078.45
 1150.26        2964.00           2342       14698.00     64204.53
 1150.29        2964.25           2346       16482.00     72017.46
 1150.32        2964.50           2349       17638.00     77082.32
 1150.35        2964.75           2353       19201.00     83933.16
 1150.39        2965.00           2356       20471.00     89502.12
 1150.42        2965.25           2360       22064.00     96490.41
 1150.45        2965.50           2363       23111.00    101085.30
 1150.48        2965.75           2367       24664.00    107903.40
 1150.51        2966.00           2370       25633.00    112159.20
 1150.54        2966.25           2374       26887.00    117668.60
 1150.57        2966.50           2378       27912.00    122173.40
 1150.60        2966.75           2381       28147.00    123206.40
 1150.63        2967.00           2385       28245.00    123637.20
 1150.66        2967.25           2388       28260.00    123703.20
 1150.69        2967.50           2392       27914.00    122182.20
 1150.72        2967.75           2395       27659.00    121061.40
 1150.75        2968.00           2399       26875.00    117615.90
 1150.78        2968.25           2402       25810.00    112936.80
 1150.81        2968.50           2406       24287.00    106248.00
 1150.84        2968.75           2409       23286.00    101853.40
 1150.87        2969.00           2413       21539.00     94186.93
 1150.91        2969.25           2417       19791.00     86520.06
 1150.94        2969.50           2420       18606.00     81324.82
 1150.97        2969.75           2424       16901.00     73853.05
 1151.00        2970.00           2427       15661.00     68421.41
 1151.03        2970.25           2431       14115.00     61652.20
 1151.06        2970.50           2434       12627.00     55139.90
 1151.09        2970.75           2438       10977.00     47921.96
 1151.12        2971.00           2441        9843.00     42963.33
 1151.15        2971.25           2445        8044.00     35100.28
 1151.18        2971.50           2449        4845.00     21128.51
 1151.21        2971.75           2452        3496.00     15240.68
 1151.24        2972.00           2456        2479.00     10803.44
 1151.27        2972.25           2459        1786.00      7780.61
 1151.30        2972.50           2463         881.00      3833.98
 1151.33        2972.75           2466         412.00      1789.12
 1151.36        2973.00           2470         134.00       577.17
 1151.39        2973.25           2473          86.00       367.92
 1151.43        2973.50           2477          79.00       337.41
 1151.46        2973.75           2481         126.00       542.29
 1151.49        2974.00           2484         111.00       476.90
 1151.52        2974.25           2488          98.00       420.23
 1151.55        2974.50           2491         105.00       450.75
 1151.58        2974.75           2495          92.00       394.08
 1151.61        2975.00           2498          96.00       411.51
 1151.64        2975.25           2502          95.00       407.15
 1151.67        2975.50           2505          88.00       376.64
 1151.70        2975.75           2509          88.00       376.64
 1151.73        2976.00           2512          91.00       389.72
 1151.76        2976.25           2516          82.00       350.48
 1151.79        2976.50           2520          89.00       381.00
 1151.82        2976.75           2523          64.00       272.02
 1151.85        2977.00           2527          58.00       245.86
 1151.88        2977.25           2530          57.00       241.50
 1151.91        2977.50           2534          61.00       258.94
 1151.95        2977.75           2537          54.00       228.42
 1151.98        2978.00           2541          60.00       254.58
 1152.01        2978.25           2544          58.00       245.86
 1152.04        2978.50           2548          47.00       197.91
 1152.07        2978.75           2552          50.00       210.99
 1152.10        2979.00           2555          49.00       206.63
 1152.13        2979.25           2559          51.00       215.35
 1152.16        2979.50           2562          78.00       333.05
 1152.19        2979.75           2566          73.00       311.25
 1152.22        2980.00           2569          55.00       232.78
 1152.25        2980.25           2573          56.00       237.14
 1152.28        2980.50           2577          52.00       219.71
 1152.31        2980.75           2580          54.00       228.42
 1152.34        2981.00           2584          52.00       219.71
 1152.37        2981.25           2587          51.00       215.35
 1152.40        2981.50           2591          53.00       224.06
 1152.43        2981.75           2594          50.00       210.99
 1152.46        2982.00           2598          51.00       215.35
 1152.50        2982.25           2601          48.00       202.27
 1152.53        2982.50           2605          49.00       206.63
 1152.56        2982.75           2609          50.00       210.99
 1152.59        2983.00           2612          52.00       219.71
 1152.62        2983.25           2616          47.00       197.91
 1152.65        2983.50           2619          46.00       193.55
 1152.68        2983.75           2623          49.00       206.63
 1152.71        2984.00           2626          44.00       184.83
HS scan finished at 19:12:56
end
