************************************************************
  HS Scan of (1) Internal mercury lamp
************************************************************
Integration time is 0.2294 seconds per sample
dh240917Reading 51.44 .94 3.13pr1000
************************************************************
Dead Time -------------------------  3.4E-08 
Number of Cycles Used -------------  4 
Starting Wavelength (Angstroms) ---  2950 
Final Wavelength (Angstoms) -------  2984 
Wavelength Increment (Angstroms) --  .25 
Filter Wheel #1 Position ---------- (1) Ground quartz diffuser (ND=2.32)
Filter Wheel #2 Position ---------- (1) Neutral Density 0.494



************************************************************
HS scan start time = 02:55:13
Dark Count =  1.1 


Time (GMT)  Wavelength (Ang)  Step Number  Raw Counts  Counts/Second

  176.12        2950.00           2144         115.00       496.52
  176.31        2950.25           2147         118.00       509.60
  176.34        2950.50           2151         108.00       466.01
  176.37        2950.75           2155         127.00       548.83
  176.40        2951.00           2158         157.00       679.61
  176.43        2951.25           2162         141.00       609.86
  176.47        2951.50           2165         115.00       496.52
  176.50        2951.75           2169         100.00       431.13
  176.53        2952.00           2172         138.00       596.79
  176.56        2952.25           2176         105.00       452.93
  176.59        2952.50           2179         162.00       701.41
  176.62        2952.75           2183         136.00       588.07
  176.65        2953.00           2186         124.00       535.76
  176.68        2953.25           2190         133.00       574.99
  176.71        2953.50           2193         133.00       574.99
  176.74        2953.75           2197         150.00       649.10
  176.77        2954.00           2200         117.00       505.24
  176.80        2954.25           2204          95.00       409.33
  176.83        2954.50           2208          99.00       426.77
  176.86        2954.75           2211         141.00       609.86
  176.89        2955.00           2215         142.00       614.22
  176.92        2955.25           2218         118.00       509.60
  176.95        2955.50           2222         131.00       566.27
  176.99        2955.75           2225         105.00       452.93
  177.02        2956.00           2229         132.00       570.63
  177.05        2956.25           2232         101.00       435.49
  177.08        2956.50           2236         124.00       535.76
  177.11        2956.75           2239         110.00       474.72
  177.14        2957.00           2243         158.00       683.97
  177.17        2957.25           2246         102.00       439.85
  177.20        2957.50           2250         139.00       601.15
  177.23        2957.75           2254         143.00       618.58
  177.26        2958.00           2257         135.00       583.71
  177.29        2958.25           2261         128.00       553.19
  177.32        2958.50           2264         178.00       771.16
  177.35        2958.75           2268         149.00       644.74
  177.38        2959.00           2271         145.00       627.30
  177.41        2959.25           2275         156.00       675.26
  177.44        2959.50           2278         134.00       579.35
  177.47        2959.75           2282         152.00       657.82
  177.50        2960.00           2285         122.00       527.04
  177.54        2960.25           2289         157.00       679.61
  177.57        2960.50           2293         150.00       649.10
  177.60        2960.75           2296         167.00       723.21
  177.63        2961.00           2300         192.00       832.19
  177.66        2961.25           2303         279.00      1211.47
  177.69        2961.50           2307        1133.00      4935.00
  177.72        2961.75           2310        2292.00      9989.88
  177.75        2962.00           2314        4351.00     18974.31
  177.78        2962.25           2317        6079.00     26518.67
  177.81        2962.50           2321        8250.00     36002.63
  177.84        2962.75           2324       10014.00     43713.14
  177.87        2963.00           2328       12310.00     53755.10
  177.90        2963.25           2331       13958.00     60967.14
  177.93        2963.50           2335       16150.00     70565.35
  177.96        2963.75           2339       18523.00     80963.21
  177.99        2964.00           2342       20426.00     89306.94
  178.02        2964.25           2346       22977.00    100499.30
  178.06        2964.50           2349       24835.00    108656.60
  178.09        2964.75           2353       27169.00    118910.00
  178.12        2965.00           2356       28746.00    125842.00
  178.15        2965.25           2360       30863.00    135152.80
  178.18        2965.50           2363       32763.00    143514.20
  178.21        2965.75           2367       34845.00    152682.00
  178.24        2966.00           2370       36657.00    160665.60
  178.27        2966.25           2374       38469.00    168653.50
  178.30        2966.50           2378       39774.00    174409.10
  178.33        2966.75           2381       40222.00    176385.50
  178.36        2967.00           2385       40200.00    176288.40
  178.39        2967.25           2388       40122.00    175944.30
  178.42        2967.50           2392       40318.00    176809.10
  178.45        2967.75           2395       39775.00    174413.50
  178.48        2968.00           2399       38284.00    167837.80
  178.51        2968.25           2402       36695.00    160833.10
  178.54        2968.50           2406       34870.00    152792.10
  178.58        2968.75           2409       33191.00    145398.40
  178.61        2969.00           2413       31060.00    136019.50
  178.64        2969.25           2417       28859.00    126338.80
  178.67        2969.50           2420       26883.00    117653.20
  178.70        2969.75           2424       24587.00    107567.50
  178.73        2970.00           2427       22739.00     99454.74
  178.76        2970.25           2431       20252.00     88543.84
  178.79        2970.50           2434       18461.00     80691.44
  178.82        2970.75           2438       15978.00     69811.98
  178.85        2971.00           2441       14181.00     61943.32
  178.88        2971.25           2445       11873.00     51843.27
  178.91        2971.50           2449        9552.00     41693.33
  178.94        2971.75           2452        7860.00     34298.47
  178.97        2972.00           2456        5732.00     25003.37
  179.00        2972.25           2459        4037.00     17603.82
  179.03        2972.50           2463        2209.00      9627.82
  179.06        2972.75           2466         995.00      4333.25
  179.10        2973.00           2470         292.00      1268.15
  179.13        2973.25           2473         196.00       849.63
  179.16        2973.50           2477         168.00       727.57
  179.19        2973.75           2481         166.00       718.85
  179.22        2974.00           2484         168.00       727.57
  179.25        2974.25           2488         158.00       683.97
  179.28        2974.50           2491         169.00       731.93
  179.31        2974.75           2495         151.00       653.46
  179.34        2975.00           2498         148.00       640.38
  179.37        2975.25           2502         173.00       749.37
  179.40        2975.50           2505         171.00       740.65
  179.43        2975.75           2509         144.00       622.94
  179.46        2976.00           2512         138.00       596.79
  179.49        2976.25           2516         142.00       614.22
  179.52        2976.50           2520         146.00       631.66
  179.55        2976.75           2523         122.00       527.04
  179.58        2977.00           2527         157.00       679.61
  179.62        2977.25           2530         143.00       618.58
  179.65        2977.50           2534         128.00       553.19
  179.68        2977.75           2537         161.00       697.05
  179.71        2978.00           2541         122.00       527.04
  179.74        2978.25           2544         132.00       570.63
  179.77        2978.50           2548         121.00       522.68
  179.80        2978.75           2552         122.00       527.04
  179.83        2979.00           2555         152.00       657.82
  179.86        2979.25           2559         140.00       605.51
  179.89        2979.50           2562         126.00       544.47
  179.92        2979.75           2566         127.00       548.83
  179.95        2980.00           2569         112.00       483.44
  179.98        2980.25           2573         127.00       548.83
  180.01        2980.50           2577         151.00       653.46
  180.04        2980.75           2580         108.00       466.01
  180.07        2981.00           2584         134.00       579.35
  180.10        2981.25           2587         165.00       714.49
  180.13        2981.50           2591         114.00       492.16
  180.17        2981.75           2594         102.00       439.85
  180.20        2982.00           2598         111.00       479.08
  180.23        2982.25           2601         108.00       466.01
  180.26        2982.50           2605         148.00       640.38
  180.29        2982.75           2609         120.00       518.32
  180.32        2983.00           2612         124.00       535.76
  180.35        2983.25           2616         106.00       457.29
  180.38        2983.50           2619         113.00       487.80
  180.41        2983.75           2623         124.00       535.76
  180.44        2984.00           2626         109.00       470.37
HS scan finished at 03:00:40
end
************************************************************
  HS Scan of (1) Internal mercury lamp
************************************************************
Integration time is 0.2294 seconds per sample
dh240917Reading 51.44 .94 3.64pr1000
************************************************************
Dead Time -------------------------  3.4E-08 
Number of Cycles Used -------------  4 
Starting Wavelength (Angstroms) ---  2950 
Final Wavelength (Angstoms) -------  2984 
Wavelength Increment (Angstroms) --  .25 
Filter Wheel #1 Position ---------- (1) Ground quartz diffuser (ND=2.32)
Filter Wheel #2 Position ---------- (1) Neutral Density 0.494



************************************************************
HS scan start time = 19:07:27
Dark Count =  4.1 


Time (GMT)  Wavelength (Ang)  Step Number  Raw Counts  Counts/Second

 1148.35        2950.00           2144          93.00       387.54
 1148.54        2950.25           2147          88.00       365.74
 1148.58        2950.50           2151          85.00       352.66
 1148.61        2950.75           2155          92.00       383.18
 1148.64        2951.00           2158          90.00       374.46
 1148.67        2951.25           2162          85.00       352.66
 1148.70        2951.50           2165          82.00       339.59
 1148.73        2951.75           2169          90.00       374.46
 1148.76        2952.00           2172          90.00       374.46
 1148.79        2952.25           2176          83.00       343.94
 1148.82        2952.50           2179          90.00       374.46
 1148.85        2952.75           2183          88.00       365.74
 1148.88        2953.00           2186          90.00       374.46
 1148.91        2953.25           2190          97.00       404.98
 1148.94        2953.50           2193         104.00       435.49
 1148.97        2953.75           2197          91.00       378.82
 1149.00        2954.00           2200         100.00       418.05
 1149.03        2954.25           2204          96.00       400.62
 1149.06        2954.50           2208          95.00       396.26
 1149.10        2954.75           2211         110.00       461.65
 1149.13        2955.00           2215          96.00       400.62
 1149.16        2955.25           2218          95.00       396.26
 1149.19        2955.50           2222         100.00       418.05
 1149.22        2955.75           2225         106.00       444.21
 1149.25        2956.00           2229         104.00       435.49
 1149.28        2956.25           2232          98.00       409.33
 1149.31        2956.50           2236         102.00       426.77
 1149.34        2956.75           2239         101.00       422.41
 1149.37        2957.00           2243         107.00       448.57
 1149.40        2957.25           2246          99.00       413.69
 1149.43        2957.50           2250         110.00       461.65
 1149.46        2957.75           2254         125.00       527.04
 1149.49        2958.00           2257         100.00       418.05
 1149.52        2958.25           2261         102.00       426.77
 1149.55        2958.50           2264         140.00       592.43
 1149.58        2958.75           2268         112.00       470.37
 1149.62        2959.00           2271         100.00       418.05
 1149.65        2959.25           2275         131.00       553.19
 1149.68        2959.50           2278         153.00       649.10
 1149.71        2959.75           2282         116.00       487.80
 1149.74        2960.00           2285         135.00       570.63
 1149.77        2960.25           2289         140.00       592.43
 1149.80        2960.50           2293         131.00       553.19
 1149.83        2960.75           2296         129.00       544.47
 1149.86        2961.00           2300         173.00       736.29
 1149.89        2961.25           2303         338.00      1455.61
 1149.92        2961.50           2307        1235.00      5366.72
 1149.95        2961.75           2310        2269.00      9876.46
 1149.98        2962.00           2314        4037.00     17590.73
 1150.01        2962.25           2317        5408.00     23575.56
 1150.04        2962.50           2321        7345.00     32035.31
 1150.07        2962.75           2324        8774.00     38279.52
 1150.10        2963.00           2328       10775.00     47027.63
 1150.14        2963.25           2331       11992.00     52350.73
 1150.17        2963.50           2335       13837.00     60424.37
 1150.20        2963.75           2339       15661.00     68410.46
 1150.23        2964.00           2342       17496.00     76449.11
 1150.26        2964.25           2346       19254.00     84154.56
 1150.29        2964.50           2349       20764.00     90776.26
 1150.32        2964.75           2353       22582.00     98752.56
 1150.35        2965.00           2356       23810.00    104142.70
 1150.38        2965.25           2360       25608.00    112038.50
 1150.41        2965.50           2363       26861.00    117543.40
 1150.44        2965.75           2367       29027.00    127064.30
 1150.47        2966.00           2370       30377.00    133001.60
 1150.50        2966.25           2374       31923.00    139803.80
 1150.53        2966.50           2378       32641.00    142963.90
 1150.56        2966.75           2381       32661.00    143052.00
 1150.59        2967.00           2385       32784.00    143593.40
 1150.62        2967.25           2388       32642.00    142968.40
 1150.66        2967.50           2392       32601.00    142787.90
 1150.69        2967.75           2395       32414.00    141964.80
 1150.72        2968.00           2399       31447.00    137709.10
 1150.75        2968.25           2402       30307.00    132693.60
 1150.78        2968.50           2406       28646.00    125389.10
 1150.81        2968.75           2409       27077.00    118492.60
 1150.84        2969.00           2413       25476.00    111458.60
 1150.87        2969.25           2417       23713.00    103716.90
 1150.90        2969.50           2420       22162.00     96909.46
 1150.93        2969.75           2424       20186.00     88241.24
 1150.96        2970.00           2427       18760.00     81988.93
 1150.99        2970.25           2431       16761.00     73228.75
 1151.02        2970.50           2434       15585.00     68077.62
 1151.05        2970.75           2438       13652.00     59614.61
 1151.08        2971.00           2441       12110.00     52866.96
 1151.11        2971.25           2445       10345.00     45147.28
 1151.14        2971.50           2449        8167.00     35626.83
 1151.18        2971.75           2452        6707.00     29248.34
 1151.21        2972.00           2456        4924.00     21462.48
 1151.24        2972.25           2459        3675.00     16010.89
 1151.27        2972.50           2463        1969.00      8567.88
 1151.30        2972.75           2466         955.00      4145.75
 1151.33        2973.00           2470         279.00      1198.39
 1151.36        2973.25           2473         173.00       736.29
 1151.39        2973.50           2477         161.00       683.97
 1151.43        2973.75           2481         134.00       566.27
 1151.46        2974.00           2484         139.00       588.07
 1151.49        2974.25           2488         157.00       666.54
 1151.52        2974.50           2491         140.00       592.43
 1151.55        2974.75           2495         154.00       653.46
 1151.58        2975.00           2498         132.00       557.55
 1151.61        2975.25           2502         133.00       561.91
 1151.64        2975.50           2505         135.00       570.63
 1151.67        2975.75           2509         130.00       548.83
 1151.70        2976.00           2512         111.00       466.01
 1151.73        2976.25           2516         127.00       535.76
 1151.76        2976.50           2520         105.00       439.85
 1151.79        2976.75           2523         100.00       418.05
 1151.82        2977.00           2527         107.00       448.57
 1151.85        2977.25           2530         101.00       422.41
 1151.89        2977.50           2534         113.00       474.72
 1151.92        2977.75           2537         104.00       435.49
 1151.95        2978.00           2541          96.00       400.62
 1151.98        2978.25           2544         106.00       444.21
 1152.01        2978.50           2548         100.00       418.05
 1152.04        2978.75           2552         103.00       431.13
 1152.07        2979.00           2555          92.00       383.18
 1152.10        2979.25           2559         103.00       431.13
 1152.13        2979.50           2562          98.00       409.33
 1152.16        2979.75           2566         110.00       461.65
 1152.19        2980.00           2569          93.00       387.54
 1152.22        2980.25           2573          91.00       378.82
 1152.25        2980.50           2577         116.00       487.80
 1152.28        2980.75           2580          86.00       357.02
 1152.31        2981.00           2584          94.00       391.90
 1152.34        2981.25           2587         112.00       470.37
 1152.37        2981.50           2591          87.00       361.38
 1152.41        2981.75           2594          97.00       404.98
 1152.44        2982.00           2598          93.00       387.54
 1152.47        2982.25           2601          91.00       378.82
 1152.50        2982.50           2605          96.00       400.62
 1152.53        2982.75           2609          84.00       348.30
 1152.56        2983.00           2612          92.00       383.18
 1152.59        2983.25           2616          86.00       357.02
 1152.62        2983.50           2619          94.00       391.90
 1152.65        2983.75           2623          82.00       339.59
 1152.68        2984.00           2626          85.00       352.66
HS scan finished at 19:12:54
end
