************************************************************
  HS Scan of (1) Internal mercury lamp
************************************************************
Integration time is 0.2294 seconds per sample
dh200917Reading 51.44 .94 3.09pr1000
************************************************************
Dead Time -------------------------  3.4E-08 
Number of Cycles Used -------------  4 
Starting Wavelength (Angstroms) ---  2950 
Final Wavelength (Angstoms) -------  2984 
Wavelength Increment (Angstroms) --  .25 
Filter Wheel #1 Position ---------- (1) Ground quartz diffuser (ND=2.32)
Filter Wheel #2 Position ---------- (1) Neutral Density 0.494



************************************************************
HS scan start time = 02:43:17
Dark Count =  1.2 


Time (GMT)  Wavelength (Ang)  Step Number  Raw Counts  Counts/Second

  164.18        2950.00           2144         178.00       770.73
  164.37        2950.25           2147         168.00       727.13
  164.40        2950.50           2151         168.00       727.13
  164.43        2950.75           2155         177.00       766.37
  164.46        2951.00           2158         169.00       731.49
  164.49        2951.25           2162         182.00       788.16
  164.53        2951.50           2165         171.00       740.21
  164.56        2951.75           2169         171.00       740.21
  164.59        2952.00           2172         185.00       801.24
  164.62        2952.25           2176         166.00       718.41
  164.65        2952.50           2179         179.00       775.09
  164.68        2952.75           2183         167.00       722.77
  164.71        2953.00           2186         186.00       805.60
  164.74        2953.25           2190         170.00       735.85
  164.77        2953.50           2193         173.00       748.93
  164.80        2953.75           2197         174.00       753.29
  164.83        2954.00           2200         183.00       792.52
  164.86        2954.25           2204         191.00       827.40
  164.89        2954.50           2208         177.00       766.37
  164.92        2954.75           2211         188.00       814.32
  164.95        2955.00           2215         189.00       818.68
  164.98        2955.25           2218         170.00       735.85
  165.01        2955.50           2222         191.00       827.40
  165.05        2955.75           2225         202.00       875.35
  165.08        2956.00           2229         191.00       827.40
  165.11        2956.25           2232         183.00       792.52
  165.14        2956.50           2236         196.00       849.20
  165.17        2956.75           2239         213.00       923.31
  165.20        2957.00           2243         200.00       866.63
  165.23        2957.25           2246         199.00       862.27
  165.26        2957.50           2250         198.00       857.92
  165.29        2957.75           2254         189.00       818.68
  165.32        2958.00           2257         208.00       901.51
  165.35        2958.25           2261         218.00       945.10
  165.38        2958.50           2264         204.00       884.07
  165.41        2958.75           2268         219.00       949.46
  165.44        2959.00           2271         215.00       932.03
  165.47        2959.25           2275         231.00      1001.78
  165.50        2959.50           2278         236.00      1023.58
  165.53        2959.75           2282         223.00       966.90
  165.57        2960.00           2285         238.00      1032.29
  165.60        2960.25           2289         254.00      1102.05
  165.63        2960.50           2293         235.00      1019.22
  165.66        2960.75           2296         261.00      1132.56
  165.69        2961.00           2300         262.00      1136.92
  165.72        2961.25           2303         370.00      1607.76
  165.75        2961.50           2307        1018.00      4433.10
  165.78        2961.75           2310        2478.00     10800.83
  165.81        2962.00           2314        5578.00     24330.49
  165.84        2962.25           2317        8170.00     35652.61
  165.87        2962.50           2321       11684.00     51016.05
  165.90        2962.75           2324       14377.00     62800.91
  165.93        2963.00           2328       18078.00     79012.33
  165.96        2963.25           2331       20865.00     91231.99
  165.99        2963.50           2335       24612.00    107676.80
  166.02        2963.75           2339       28231.00    123577.40
  166.05        2964.00           2342       31068.00    136054.30
  166.09        2964.25           2346       34715.00    152109.00
  166.12        2964.50           2349       37665.00    165108.20
  166.15        2964.75           2353       41769.00    183211.80
  166.18        2965.00           2356       44670.00    196022.30
  166.21        2965.25           2360       48439.00    212682.40
  166.24        2965.50           2363       50954.00    223810.00
  166.27        2965.75           2367       54519.00    239597.80
  166.30        2966.00           2370       57291.00    251885.60
  166.33        2966.25           2374       61097.00    268773.60
  166.36        2966.50           2378       63070.00    277536.00
  166.39        2966.75           2381       63608.00    279926.20
  166.42        2967.00           2385       63998.00    281659.10
  166.45        2967.25           2388       63917.00    281299.20
  166.48        2967.50           2392       63786.00    280717.10
  166.51        2967.75           2395       63589.00    279841.80
  166.54        2968.00           2399       62268.00    273973.60
  166.57        2968.25           2402       59790.00    262972.00
  166.61        2968.50           2406       56597.00    248808.20
  166.64        2968.75           2409       53573.00    235406.70
  166.67        2969.00           2413       50216.00    220543.80
  166.70        2969.25           2417       47190.00    207159.30
  166.73        2969.50           2420       44344.00    194582.10
  166.76        2969.75           2424       40525.00    177721.90
  166.79        2970.00           2427       37542.00    164566.00
  166.82        2970.25           2431       33484.00    146687.90
  166.85        2970.50           2434       30721.00    134527.60
  166.88        2970.75           2438       26828.00    117411.10
  166.91        2971.00           2441       23982.00    104910.60
  166.94        2971.25           2445       20274.00     88639.89
  166.97        2971.50           2449       16281.00     71138.73
  167.00        2971.75           2452       13956.00     60957.94
  167.03        2972.00           2456       10305.00     44985.06
  167.06        2972.25           2459        7709.00     33638.28
  167.09        2972.50           2463        4504.00     19641.71
  167.12        2972.75           2466        2485.00     10831.36
  167.16        2973.00           2470         768.00      3343.01
  167.19        2973.25           2473         344.00      1494.41
  167.22        2973.50           2477         255.00      1106.41
  167.25        2973.75           2481         238.00      1032.29
  167.28        2974.00           2484         252.00      1093.33
  167.31        2974.25           2488         235.00      1019.22
  167.34        2974.50           2491         234.00      1014.86
  167.37        2974.75           2495         231.00      1001.78
  167.40        2975.00           2498         218.00       945.10
  167.43        2975.25           2502         246.00      1067.17
  167.46        2975.50           2505         245.00      1062.81
  167.49        2975.75           2509         220.00       953.82
  167.52        2976.00           2512         211.00       914.59
  167.55        2976.25           2516         199.00       862.27
  167.58        2976.50           2520         203.00       879.71
  167.61        2976.75           2523         208.00       901.51
  167.64        2977.00           2527         200.00       866.63
  167.68        2977.25           2530         200.00       866.63
  167.71        2977.50           2534         196.00       849.20
  167.74        2977.75           2537         203.00       879.71
  167.77        2978.00           2541         190.00       823.04
  167.80        2978.25           2544         183.00       792.52
  167.83        2978.50           2548         179.00       775.09
  167.86        2978.75           2552         179.00       775.09
  167.89        2979.00           2555         174.00       753.29
  167.92        2979.25           2559         175.00       757.65
  167.95        2979.50           2562         178.00       770.73
  167.98        2979.75           2566         170.00       735.85
  168.01        2980.00           2569         174.00       753.29
  168.04        2980.25           2573         168.00       727.13
  168.07        2980.50           2577         180.00       779.45
  168.10        2980.75           2580         169.00       731.49
  168.13        2981.00           2584         170.00       735.85
  168.16        2981.25           2587         179.00       775.09
  168.20        2981.50           2591         168.00       727.13
  168.23        2981.75           2594         163.00       705.34
  168.26        2982.00           2598         164.00       709.69
  168.29        2982.25           2601         163.00       705.34
  168.32        2982.50           2605         149.00       644.30
  168.35        2982.75           2609         163.00       705.34
  168.38        2983.00           2612         158.00       683.54
  168.41        2983.25           2616         161.00       696.62
  168.44        2983.50           2619         152.00       657.38
  168.47        2983.75           2623         145.00       626.87
  168.50        2984.00           2626         162.00       700.98
HS scan finished at 02:48:43
end
************************************************************
  HS Scan of (1) Internal mercury lamp
************************************************************
Integration time is 0.2294 seconds per sample
dh200917Reading 51.44 .94 3.49pr1000
************************************************************
Dead Time -------------------------  3.4E-08 
Number of Cycles Used -------------  4 
Starting Wavelength (Angstroms) ---  2950 
Final Wavelength (Angstoms) -------  2984 
Wavelength Increment (Angstroms) --  .25 
Filter Wheel #1 Position ---------- (1) Ground quartz diffuser (ND=2.32)
Filter Wheel #2 Position ---------- (1) Neutral Density 0.494



************************************************************
HS scan start time = 19:07:28
Dark Count =  2.8 


Time (GMT)  Wavelength (Ang)  Step Number  Raw Counts  Counts/Second

 1148.37        2950.00           2144         128.00       545.78
 1148.56        2950.25           2147         100.00       423.72
 1148.59        2950.50           2151         110.00       467.31
 1148.62        2950.75           2155         105.00       445.52
 1148.65        2951.00           2158         164.00       702.72
 1148.68        2951.25           2162         126.00       537.06
 1148.71        2951.50           2165         115.00       489.11
 1148.74        2951.75           2169         112.00       476.03
 1148.77        2952.00           2172         145.00       619.89
 1148.80        2952.25           2176         104.00       441.16
 1148.83        2952.50           2179         112.00       476.03
 1148.87        2952.75           2183         110.00       467.31
 1148.90        2953.00           2186         108.00       458.59
 1148.93        2953.25           2190         108.00       458.59
 1148.96        2953.50           2193         109.00       462.95
 1148.99        2953.75           2197         123.00       523.98
 1149.02        2954.00           2200         111.00       471.67
 1149.05        2954.25           2204         126.00       537.06
 1149.08        2954.50           2208         120.00       510.91
 1149.11        2954.75           2211         129.00       550.14
 1149.14        2955.00           2215         116.00       493.47
 1149.17        2955.25           2218         129.00       550.14
 1149.20        2955.50           2222         108.00       458.59
 1149.23        2955.75           2225         122.00       519.63
 1149.26        2956.00           2229         135.00       576.30
 1149.29        2956.25           2232         129.00       550.14
 1149.32        2956.50           2236         108.00       458.59
 1149.35        2956.75           2239         115.00       489.11
 1149.38        2957.00           2243         110.00       467.31
 1149.42        2957.25           2246         117.00       497.83
 1149.45        2957.50           2250         127.00       541.42
 1149.48        2957.75           2254         119.00       506.55
 1149.51        2958.00           2257         146.00       624.25
 1149.54        2958.25           2261         152.00       650.41
 1149.57        2958.50           2264         133.00       567.58
 1149.60        2958.75           2268         131.00       558.86
 1149.63        2959.00           2271         130.00       554.50
 1149.66        2959.25           2275         138.00       589.38
 1149.69        2959.50           2278         137.00       585.02
 1149.72        2959.75           2282         138.00       589.38
 1149.75        2960.00           2285         178.00       763.75
 1149.78        2960.25           2289         136.00       580.66
 1149.81        2960.50           2293         155.00       663.48
 1149.84        2960.75           2296         150.00       641.69
 1149.87        2961.00           2300         183.00       785.55
 1149.90        2961.25           2303         374.00      1618.22
 1149.94        2961.50           2307        1377.00      5991.63
 1149.97        2961.75           2310        2465.00     10737.14
 1150.00        2962.00           2314        4258.00     18560.97
 1150.03        2962.25           2317        5624.00     24524.37
 1150.06        2962.50           2321        7875.00     34356.59
 1150.09        2962.75           2324        9048.00     39482.79
 1150.12        2963.00           2328       11372.00     49644.32
 1150.15        2963.25           2331       14826.00     64759.71
 1150.18        2963.50           2335       17066.00     74570.69
 1150.21        2963.75           2339       16904.00     73860.93
 1150.24        2964.00           2342       21264.00     92975.22
 1150.27        2964.25           2346       22517.00     98473.00
 1150.30        2964.50           2349       25765.00    112733.80
 1150.33        2964.75           2353       24627.00    107735.70
 1150.36        2965.00           2356       29353.00    128503.60
 1150.39        2965.25           2360       31744.00    139021.80
 1150.42        2965.50           2363       32262.00    141301.50
 1150.46        2965.75           2367       35809.00    156921.30
 1150.49        2966.00           2370       37350.00    163712.60
 1150.52        2966.25           2374       38065.00    166864.70
 1150.55        2966.50           2378       40317.00    176797.10
 1150.58        2966.75           2381       40598.00    178037.00
 1150.61        2967.00           2385       40708.00    178522.40
 1150.64        2967.25           2388       40613.00    178103.10
 1150.67        2967.50           2392       40507.00    177635.40
 1150.70        2967.75           2395       40544.00    177798.70
 1150.73        2968.00           2399       39574.00    173519.40
 1150.76        2968.25           2402       37964.00    166419.40
 1150.79        2968.50           2406       32006.00    140174.80
 1150.82        2968.75           2409       34318.00    150353.40
 1150.85        2969.00           2413       32027.00    140267.20
 1150.88        2969.25           2417       26649.00    116617.50
 1150.91        2969.50           2420       25130.00    109944.70
 1150.94        2969.75           2424       25482.00    111490.70
 1150.98        2970.00           2427       23851.00    104328.40
 1151.01        2970.25           2431       21243.00     92883.09
 1151.04        2970.50           2434       19284.00     84291.80
 1151.07        2970.75           2438       15732.00     68727.11
 1151.10        2971.00           2441       14935.00     65236.96
 1151.13        2971.25           2445       11171.00     48765.18
 1151.16        2971.50           2449       10121.00     44173.53
 1151.19        2971.75           2452        8210.00     35820.42
 1151.22        2972.00           2456        5710.00     24899.89
 1151.25        2972.25           2459        3558.00     15505.99
 1151.28        2972.50           2463        2263.00      9855.96
 1151.31        2972.75           2466        1183.00      5145.63
 1151.34        2973.00           2470         337.00      1456.92
 1151.37        2973.25           2473         233.00      1003.52
 1151.40        2973.50           2477         167.00       715.80
 1151.43        2973.75           2481         167.00       715.80
 1151.46        2974.00           2484         161.00       689.64
 1151.50        2974.25           2488         164.00       702.72
 1151.53        2974.50           2491         159.00       680.92
 1151.56        2974.75           2495         153.00       654.77
 1151.59        2975.00           2498         150.00       641.69
 1151.62        2975.25           2502         132.00       563.22
 1151.65        2975.50           2505         175.00       750.67
 1151.68        2975.75           2509         143.00       611.17
 1151.71        2976.00           2512         157.00       672.20
 1151.74        2976.25           2516         139.00       593.73
 1151.77        2976.50           2520         145.00       619.89
 1151.80        2976.75           2523         117.00       497.83
 1151.83        2977.00           2527         148.00       632.97
 1151.86        2977.25           2530         129.00       550.14
 1151.89        2977.50           2534         138.00       589.38
 1151.92        2977.75           2537         120.00       510.91
 1151.95        2978.00           2541         151.00       646.05
 1151.98        2978.25           2544         118.00       502.19
 1152.02        2978.50           2548         134.00       571.94
 1152.05        2978.75           2552         136.00       580.66
 1152.08        2979.00           2555         104.00       441.16
 1152.11        2979.25           2559         146.00       624.25
 1152.14        2979.50           2562          99.00       419.36
 1152.17        2979.75           2566         141.00       602.45
 1152.20        2980.00           2569         102.00       432.44
 1152.23        2980.25           2573         104.00       441.16
 1152.26        2980.50           2577         151.00       646.05
 1152.29        2980.75           2580         133.00       567.58
 1152.32        2981.00           2584         145.00       619.89
 1152.35        2981.25           2587          95.00       401.92
 1152.38        2981.50           2591          98.00       415.00
 1152.41        2981.75           2594         123.00       523.98
 1152.44        2982.00           2598         102.00       432.44
 1152.47        2982.25           2601          93.00       393.20
 1152.50        2982.50           2605          95.00       401.92
 1152.54        2982.75           2609         109.00       462.95
 1152.57        2983.00           2612         133.00       567.58
 1152.60        2983.25           2616          87.00       367.05
 1152.63        2983.50           2619          96.00       406.28
 1152.66        2983.75           2623         113.00       480.39
 1152.69        2984.00           2626         104.00       441.16
HS scan finished at 19:12:55
end
