************************************************************
  HS Scan of (1) Internal mercury lamp
************************************************************
Integration time is 0.2294 seconds per sample
dh220918Reading 51.44 .94 3.11pr1000
************************************************************
Dead Time -------------------------  3.4E-08 
Number of Cycles Used -------------  4 
Starting Wavelength (Angstroms) ---  2950 
Final Wavelength (Angstoms) -------  2984 
Wavelength Increment (Angstroms) --  .25 
Filter Wheel #1 Position ---------- (1) Ground quartz diffuser (ND=2.32)
Filter Wheel #2 Position ---------- (1) Neutral Density 0.494



************************************************************
HS scan start time = 02:48:39
Dark Count =  1.1 


Time (GMT)  Wavelength (Ang)  Step Number  Raw Counts  Counts/Second

  169.54        2950.00           2144          87.00       374.46
  169.74        2950.25           2147          90.00       387.54
  169.77        2950.50           2151          88.00       378.82
  169.80        2950.75           2155          86.00       370.10
  169.83        2951.00           2158          92.00       396.26
  169.86        2951.25           2162          91.00       391.90
  169.89        2951.50           2165          84.00       361.38
  169.92        2951.75           2169          94.00       404.98
  169.95        2952.00           2172          95.00       409.33
  169.98        2952.25           2176          88.00       378.82
  170.01        2952.50           2179         111.00       479.08
  170.04        2952.75           2183          92.00       396.26
  170.07        2953.00           2186          91.00       391.90
  170.10        2953.25           2190          94.00       404.98
  170.13        2953.50           2193          91.00       391.90
  170.17        2953.75           2197          88.00       378.82
  170.20        2954.00           2200          88.00       378.82
  170.23        2954.25           2204          96.00       413.69
  170.26        2954.50           2208          93.00       400.62
  170.29        2954.75           2211          99.00       426.77
  170.32        2955.00           2215          95.00       409.33
  170.36        2955.25           2218         108.00       466.01
  170.39        2955.50           2222         108.00       466.01
  170.42        2955.75           2225          87.00       374.46
  170.45        2956.00           2229          90.00       387.54
  170.48        2956.25           2232         101.00       435.49
  170.51        2956.50           2236         100.00       431.13
  170.54        2956.75           2239         137.00       592.43
  170.57        2957.00           2243         125.00       540.11
  170.60        2957.25           2246          68.00       291.63
  170.63        2957.50           2250          82.00       352.66
  170.66        2957.75           2254          82.00       352.66
  170.69        2958.00           2257          80.00       343.94
  170.72        2958.25           2261          77.00       330.87
  170.75        2958.50           2264          80.00       343.94
  170.78        2958.75           2268          80.00       343.94
  170.81        2959.00           2271          74.00       317.79
  170.84        2959.25           2275          74.00       317.79
  170.88        2959.50           2278         123.00       531.40
  170.91        2959.75           2282         127.00       548.83
  170.94        2960.00           2285         157.00       679.61
  170.97        2960.25           2289         127.00       548.83
  171.00        2960.50           2293         146.00       631.66
  171.04        2960.75           2296         131.00       566.27
  171.07        2961.00           2300         154.00       666.54
  171.10        2961.25           2303         209.00       906.31
  171.13        2961.50           2307         628.00      2733.04
  171.16        2961.75           2310        1360.00      5924.91
  171.19        2962.00           2314        2505.00     10919.05
  171.22        2962.25           2317        3307.00     14418.14
  171.25        2962.50           2321        4472.00     19502.47
  171.28        2962.75           2324        5226.00     22794.03
  171.31        2963.00           2328        6299.00     27479.46
  171.34        2963.25           2331       13093.00     57181.25
  171.37        2963.50           2335       14517.00     63414.26
  171.40        2963.75           2339       16524.00     72203.63
  171.43        2964.00           2342       18333.00     80130.40
  171.46        2964.25           2346       20524.00     89736.77
  171.49        2964.50           2349       22097.00     96637.41
  171.52        2964.75           2353       23979.00    104897.90
  171.56        2965.00           2356       25727.00    112574.40
  171.59        2965.25           2360       27645.00    121002.00
  171.62        2965.50           2363       29017.00    127033.60
  171.65        2965.75           2367       22861.00     99990.19
  171.68        2966.00           2370       20917.00     91460.52
  171.71        2966.25           2374       21660.00     94719.99
  171.74        2966.50           2378       22051.00     96435.56
  171.77        2966.75           2381       22154.00     96887.52
  171.80        2967.00           2385       22142.00     96834.86
  171.83        2967.25           2388       21718.00     94974.46
  171.86        2967.50           2392       21399.00     93574.92
  171.89        2967.75           2395       21439.00     93750.41
  171.92        2968.00           2399       20224.00     88421.05
  171.95        2968.25           2402       35339.00    154858.10
  171.98        2968.50           2406       30833.00    135020.80
  172.01        2968.75           2409       19672.00     86000.44
  172.04        2969.00           2413       17932.00     78372.91
  172.07        2969.25           2417       16326.00     71336.29
  172.11        2969.50           2420       15056.00     65774.22
  172.14        2969.75           2424       13478.00     58866.18
  172.17        2970.00           2427       12702.00     55470.26
  172.20        2970.25           2431       11333.00     49481.17
  172.23        2970.50           2434       10257.00     44775.61
  172.26        2970.75           2438        8842.00     38589.84
  172.29        2971.00           2441        7863.00     34311.58
  172.32        2971.25           2445        6501.00     28361.69
  172.35        2971.50           2449        5098.00     22235.20
  172.38        2971.75           2452        4257.00     18564.02
  172.41        2972.00           2456        3024.00     13183.33
  172.44        2972.25           2459        2179.00      9496.96
  172.47        2972.50           2463        1190.00      5183.56
  172.50        2972.75           2466         540.00      2349.36
  172.53        2973.00           2470         172.00       745.01
  172.56        2973.25           2473         164.00       710.13
  172.59        2973.50           2477         126.00       544.47
  172.63        2973.75           2481          94.00       404.98
  172.66        2974.00           2484          84.00       361.38
  172.69        2974.25           2488          96.00       413.69
  172.72        2974.50           2491         100.00       431.13
  172.75        2974.75           2495          86.00       370.10
  172.78        2975.00           2498          85.00       365.74
  172.81        2975.25           2502          72.00       309.07
  172.84        2975.50           2505          79.00       339.59
  172.87        2975.75           2509          73.00       313.43
  172.90        2976.00           2512          85.00       365.74
  172.93        2976.25           2516          79.00       339.59
  172.96        2976.50           2520          81.00       348.30
  172.99        2976.75           2523          81.00       348.30
  173.02        2977.00           2527          67.00       287.27
  173.05        2977.25           2530          80.00       343.94
  173.08        2977.50           2534          73.00       313.43
  173.11        2977.75           2537          74.00       317.79
  173.15        2978.00           2541          66.00       282.91
  173.18        2978.25           2544          65.00       278.56
  173.21        2978.50           2548         102.00       439.85
  173.24        2978.75           2552         105.00       452.93
  173.27        2979.00           2555          75.00       322.15
  173.30        2979.25           2559          67.00       287.27
  173.33        2979.50           2562          68.00       291.63
  173.36        2979.75           2566          61.00       261.12
  173.39        2980.00           2569          61.00       261.12
  173.42        2980.25           2573          64.00       274.20
  173.45        2980.50           2577          62.00       265.48
  173.48        2980.75           2580          64.00       274.20
  173.51        2981.00           2584          70.00       300.35
  173.54        2981.25           2587          66.00       282.91
  173.57        2981.50           2591          60.00       256.76
  173.60        2981.75           2594          70.00       300.35
  173.63        2982.00           2598          62.00       265.48
  173.67        2982.25           2601          57.00       243.68
  173.70        2982.50           2605          68.00       291.63
  173.73        2982.75           2609          57.00       243.68
  173.76        2983.00           2612          65.00       278.56
  173.79        2983.25           2616          66.00       282.91
  173.82        2983.50           2619          62.00       265.48
  173.85        2983.75           2623          62.00       265.48
  173.88        2984.00           2626          62.00       265.48
HS scan finished at 02:54:06
end
************************************************************
  HS Scan of (1) Internal mercury lamp
************************************************************
Integration time is 0.2294 seconds per sample
dh220918Reading 51.44 .94 3.09pr1000
************************************************************
Dead Time -------------------------  3.4E-08 
Number of Cycles Used -------------  4 
Starting Wavelength (Angstroms) ---  2950 
Final Wavelength (Angstoms) -------  2984 
Wavelength Increment (Angstroms) --  .25 
Filter Wheel #1 Position ---------- (1) Ground quartz diffuser (ND=2.32)
Filter Wheel #2 Position ---------- (1) Neutral Density 0.494



************************************************************
HS scan start time = 19:07:27
Dark Count =  .9 


Time (GMT)  Wavelength (Ang)  Step Number  Raw Counts  Counts/Second

 1148.35        2950.00           2144          80.00       344.82
 1148.54        2950.25           2147          89.00       384.05
 1148.57        2950.50           2151          85.00       366.61
 1148.60        2950.75           2155          87.00       375.33
 1148.63        2951.00           2158          85.00       366.61
 1148.66        2951.25           2162          88.00       379.69
 1148.69        2951.50           2165          88.00       379.69
 1148.72        2951.75           2169         119.00       514.83
 1148.76        2952.00           2172          96.00       414.57
 1148.79        2952.25           2176          83.00       357.89
 1148.82        2952.50           2179          86.00       370.97
 1148.85        2952.75           2183          98.00       423.28
 1148.88        2953.00           2186          91.00       392.77
 1148.91        2953.25           2190          95.00       410.21
 1148.94        2953.50           2193          88.00       379.69
 1148.97        2953.75           2197          97.00       418.92
 1149.00        2954.00           2200          91.00       392.77
 1149.03        2954.25           2204         113.00       488.67
 1149.06        2954.50           2208         109.00       471.24
 1149.09        2954.75           2211         105.00       453.80
 1149.12        2955.00           2215          95.00       410.21
 1149.15        2955.25           2218         102.00       440.72
 1149.18        2955.50           2222          94.00       405.85
 1149.21        2955.75           2225         116.00       501.75
 1149.24        2956.00           2229         101.00       436.36
 1149.28        2956.25           2232         138.00       597.66
 1149.31        2956.50           2236         132.00       571.50
 1149.34        2956.75           2239         102.00       440.72
 1149.37        2957.00           2243         107.00       462.52
 1149.40        2957.25           2246          99.00       427.64
 1149.43        2957.50           2250         108.00       466.88
 1149.46        2957.75           2254         104.00       449.44
 1149.49        2958.00           2257         118.00       510.47
 1149.52        2958.25           2261         111.00       479.96
 1149.55        2958.50           2264         132.00       571.50
 1149.58        2958.75           2268         130.00       562.78
 1149.61        2959.00           2271         133.00       575.86
 1149.64        2959.25           2275         135.00       584.58
 1149.67        2959.50           2278         141.00       610.74
 1149.70        2959.75           2282         122.00       527.91
 1149.73        2960.00           2285         131.00       567.14
 1149.76        2960.25           2289         142.00       615.10
 1149.80        2960.50           2293         179.00       776.39
 1149.83        2960.75           2296         136.00       588.94
 1149.86        2961.00           2300         169.00       732.80
 1149.89        2961.25           2303         322.00      1399.81
 1149.92        2961.50           2307        1082.00      4713.48
 1149.95        2961.75           2310        2135.00      9305.91
 1149.98        2962.00           2314        4015.00     17508.68
 1150.01        2962.25           2317        5511.00     24039.26
 1150.04        2962.50           2321        7524.00     32831.31
 1150.07        2962.75           2324        8990.00     39237.58
 1150.10        2963.00           2328       10850.00     47369.60
 1150.13        2963.25           2331       12264.00     53554.71
 1150.16        2963.50           2335       14440.00     63078.03
 1150.19        2963.75           2339       16612.00     72590.00
 1150.22        2964.00           2342       18279.00     79894.60
 1150.27        2964.25           2346       20078.00     87781.66
 1150.30        2964.50           2349       21686.00     94834.94
 1150.33        2964.75           2353       23594.00    103208.50
 1150.36        2965.00           2356       24986.00    109320.60
 1150.39        2965.25           2360       26839.00    117460.80
 1150.42        2965.50           2363       28338.00    124049.10
 1150.45        2965.75           2367       30252.00    132465.80
 1150.48        2966.00           2370       31653.00    138629.60
 1150.51        2966.25           2374       33133.00    145143.90
 1150.54        2966.50           2378       33955.00    148763.20
 1150.58        2966.75           2381       34208.00    149877.40
 1150.61        2967.00           2385       34428.00    150846.20
 1150.64        2967.25           2388       34193.00    149811.30
 1150.67        2967.50           2392       34343.00    150471.90
 1150.70        2967.75           2395       33930.00    148653.10
 1150.73        2968.00           2399       32859.00    143937.70
 1150.76        2968.25           2402       31810.00    139320.60
 1150.79        2968.50           2406       30080.00    131709.20
 1150.82        2968.75           2409       28681.00    125557.10
 1150.85        2969.00           2413       26816.00    117359.70
 1150.88        2969.25           2417       24874.00    108828.70
 1150.91        2969.50           2420       23453.00    102589.60
 1150.94        2969.75           2424       21218.00     92781.77
 1150.97        2970.00           2427       19705.00     86146.02
 1151.00        2970.25           2431       18018.00     78750.68
 1151.03        2970.50           2434       16386.00     71599.99
 1151.06        2970.75           2438       14139.00     61760.33
 1151.10        2971.00           2441       12546.00     54788.54
 1151.13        2971.25           2445       10503.00     45852.16
 1151.16        2971.50           2449        8545.00     37292.68
 1151.19        2971.75           2452        7132.00     31118.78
 1151.22        2972.00           2456        5298.00     23109.26
 1151.25        2972.25           2459        3917.00     17080.97
 1151.28        2972.50           2463        2181.00      9506.56
 1151.31        2972.75           2466        1054.00      4591.39
 1151.34        2973.00           2470         285.00      1238.50
 1151.37        2973.25           2473         181.00       785.11
 1151.40        2973.50           2477         140.00       606.38
 1151.43        2973.75           2481         131.00       567.14
 1151.46        2974.00           2484         153.00       663.05
 1151.49        2974.25           2488         149.00       645.61
 1151.52        2974.50           2491         127.00       549.71
 1151.55        2974.75           2495          90.00       388.41
 1151.58        2975.00           2498          86.00       370.97
 1151.61        2975.25           2502          76.00       327.38
 1151.65        2975.50           2505          77.00       331.74
 1151.68        2975.75           2509         111.00       479.96
 1151.71        2976.00           2512         109.00       471.24
 1151.74        2976.25           2516          81.00       349.18
 1151.77        2976.50           2520          73.00       314.30
 1151.80        2976.75           2523          76.00       327.38
 1151.83        2977.00           2527          68.00       292.51
 1151.86        2977.25           2530         121.00       523.55
 1151.89        2977.50           2534         102.00       440.72
 1151.92        2977.75           2537         104.00       449.44
 1151.95        2978.00           2541          99.00       427.64
 1151.98        2978.25           2544         100.00       432.00
 1152.01        2978.50           2548          95.00       410.21
 1152.04        2978.75           2552          91.00       392.77
 1152.07        2979.00           2555         110.00       475.60
 1152.10        2979.25           2559          97.00       418.92
 1152.13        2979.50           2562          92.00       397.13
 1152.17        2979.75           2566          87.00       375.33
 1152.20        2980.00           2569          81.00       349.18
 1152.23        2980.25           2573          96.00       414.57
 1152.26        2980.50           2577          87.00       375.33
 1152.29        2980.75           2580          85.00       366.61
 1152.32        2981.00           2584          86.00       370.97
 1152.35        2981.25           2587          85.00       366.61
 1152.38        2981.50           2591          98.00       423.28
 1152.41        2981.75           2594          89.00       384.05
 1152.44        2982.00           2598          89.00       384.05
 1152.47        2982.25           2601          90.00       388.41
 1152.50        2982.50           2605          74.00       318.66
 1152.53        2982.75           2609          82.00       353.54
 1152.56        2983.00           2612          90.00       388.41
 1152.59        2983.25           2616          63.00       270.71
 1152.62        2983.50           2619          62.00       266.35
 1152.65        2983.75           2623          57.00       244.55
 1152.69        2984.00           2626          58.00       248.91
HS scan finished at 19:12:55
end
