************************************************************
  HS Scan of (1) Internal mercury lamp
************************************************************
Integration time is 0.2294 seconds per sample
dh190918Reading 51.44 .94 3.66pr1000
************************************************************
Dead Time -------------------------  3.4E-08 
Number of Cycles Used -------------  4 
Starting Wavelength (Angstroms) ---  2950 
Final Wavelength (Angstoms) -------  2984 
Wavelength Increment (Angstroms) --  .25 
Filter Wheel #1 Position ---------- (1) Ground quartz diffuser (ND=2.32)
Filter Wheel #2 Position ---------- (1) Neutral Density 0.494



************************************************************
HS scan start time = 02:39:19
Dark Count =  3.5 


Time (GMT)  Wavelength (Ang)  Step Number  Raw Counts  Counts/Second

  160.22        2950.00           2144          55.00       224.50
  160.41        2950.25           2147          58.00       237.58
  160.44        2950.50           2151          60.00       246.30
  160.47        2950.75           2155          55.00       224.50
  160.50        2951.00           2158          65.00       268.09
  160.54        2951.25           2162          56.00       228.86
  160.57        2951.50           2165          57.00       233.22
  160.60        2951.75           2169          63.00       259.37
  160.63        2952.00           2172          55.00       224.50
  160.66        2952.25           2176          60.00       246.30
  160.69        2952.50           2179          51.00       207.06
  160.72        2952.75           2183          58.00       237.58
  160.75        2953.00           2186          67.00       276.81
  160.78        2953.25           2190          57.00       233.22
  160.81        2953.50           2193          59.00       241.94
  160.84        2953.75           2197          66.00       272.45
  160.87        2954.00           2200          63.00       259.37
  160.90        2954.25           2204          54.00       220.14
  160.93        2954.50           2208          62.00       255.02
  160.96        2954.75           2211          60.00       246.30
  160.99        2955.00           2215          65.00       268.09
  161.02        2955.25           2218          60.00       246.30
  161.06        2955.50           2222          67.00       276.81
  161.09        2955.75           2225          68.00       281.17
  161.12        2956.00           2229          60.00       246.30
  161.15        2956.25           2232          59.00       241.94
  161.18        2956.50           2236          72.00       298.61
  161.21        2956.75           2239          69.00       285.53
  161.24        2957.00           2243          61.00       250.66
  161.27        2957.25           2246          70.00       289.89
  161.30        2957.50           2250          75.00       311.69
  161.33        2957.75           2254          65.00       268.09
  161.36        2958.00           2257          65.00       268.09
  161.39        2958.25           2261          63.00       259.37
  161.42        2958.50           2264          69.00       285.53
  161.45        2958.75           2268          75.00       311.69
  161.48        2959.00           2271          74.00       307.33
  161.51        2959.25           2275          69.00       285.53
  161.54        2959.50           2278          70.00       289.89
  161.58        2959.75           2282          74.00       307.33
  161.61        2960.00           2285          75.00       311.69
  161.64        2960.25           2289          80.00       333.48
  161.67        2960.50           2293          84.00       350.92
  161.70        2960.75           2296          80.00       333.48
  161.73        2961.00           2300         134.00       568.89
  161.76        2961.25           2303         253.00      1087.66
  161.79        2961.50           2307         872.00      3786.45
  161.82        2961.75           2310        1468.00      6385.43
  161.85        2962.00           2314        2541.00     11065.63
  161.88        2962.25           2317        3377.00     14713.11
  161.91        2962.50           2321        4655.00     20290.80
  161.94        2962.75           2324        5454.00     23779.03
  161.97        2963.00           2328        6624.00     28888.43
  162.00        2963.25           2331        7564.00     32994.71
  162.03        2963.50           2335        8690.00     37915.02
  162.06        2963.75           2339        9952.00     43431.57
  162.09        2964.00           2342       10925.00     47686.24
  162.13        2964.25           2346       12103.00     52838.96
  162.16        2964.50           2349       13023.00     56864.41
  162.19        2964.75           2353       14110.00     61622.00
  162.22        2965.00           2356       14980.00     65430.92
  162.25        2965.25           2360       15886.00     69398.52
  162.28        2965.50           2363       16960.00     74103.21
  162.31        2965.75           2367       18259.00     79795.53
  162.34        2966.00           2370       19231.00     84056.36
  162.37        2966.25           2374       19839.00     86722.21
  162.40        2966.50           2378       20403.00     89195.55
  162.43        2966.75           2381       20369.00     89046.44
  162.46        2967.00           2385       20513.00     89677.99
  162.50        2967.25           2388       20410.00     89226.25
  162.53        2967.50           2392       20831.00     91072.76
  162.56        2967.75           2395       21467.00     93862.72
  162.59        2968.00           2399       21186.00     92629.99
  162.62        2968.25           2402       20560.00     89884.12
  162.65        2968.50           2406       19106.00     83508.35
  162.68        2968.75           2409       18729.00     81855.66
  162.71        2969.00           2413       17374.00     75917.15
  162.74        2969.25           2417       16291.00     71172.46
  162.77        2969.50           2420       15159.00     66214.74
  162.80        2969.75           2424       13580.00     59302.10
  162.83        2970.00           2427       12716.00     55521.01
  162.86        2970.25           2431       11313.00     49383.20
  162.89        2970.50           2434       10474.00     45713.98
  162.93        2970.75           2438        9108.00     39741.99
  162.96        2971.00           2441        8045.00     35096.35
  162.99        2971.25           2445        6738.00     29386.37
  163.02        2971.50           2449        5398.00     23534.52
  163.05        2971.75           2452        4115.00     17933.77
  163.08        2972.00           2456        3037.00     13229.58
  163.11        2972.25           2459        2220.00      9665.34
  163.14        2972.50           2463        1177.00      5116.41
  163.17        2972.75           2466         622.00      2696.41
  163.20        2973.00           2470         232.00       996.11
  163.23        2973.25           2473         113.00       477.34
  163.26        2973.50           2477          84.00       350.92
  163.29        2973.75           2481          90.00       377.08
  163.32        2974.00           2484          79.00       329.12
  163.35        2974.25           2488          92.00       385.79
  163.38        2974.50           2491          80.00       333.48
  163.41        2974.75           2495          77.00       320.40
  163.44        2975.00           2498          75.00       311.69
  163.48        2975.25           2502          81.00       337.84
  163.51        2975.50           2505          77.00       320.40
  163.54        2975.75           2509          73.00       302.97
  163.57        2976.00           2512          71.00       294.25
  163.60        2976.25           2516          71.00       294.25
  163.63        2976.50           2520          67.00       276.81
  163.66        2976.75           2523          62.00       255.02
  163.69        2977.00           2527          74.00       307.33
  163.72        2977.25           2530          74.00       307.33
  163.75        2977.50           2534          67.00       276.81
  163.78        2977.75           2537          70.00       289.89
  163.81        2978.00           2541          70.00       289.89
  163.84        2978.25           2544          61.00       250.66
  163.87        2978.50           2548          69.00       285.53
  163.90        2978.75           2552          61.00       250.66
  163.93        2979.00           2555          66.00       272.45
  163.96        2979.25           2559          70.00       289.89
  164.00        2979.50           2562          60.00       246.30
  164.03        2979.75           2566          59.00       241.94
  164.06        2980.00           2569          68.00       281.17
  164.09        2980.25           2573          63.00       259.37
  164.12        2980.50           2577          63.00       259.37
  164.16        2980.75           2580          60.00       246.30
  164.19        2981.00           2584          65.00       268.09
  164.22        2981.25           2587          68.00       281.17
  164.25        2981.50           2591          61.00       250.66
  164.28        2981.75           2594          67.00       276.81
  164.31        2982.00           2598          56.00       228.86
  164.34        2982.25           2601          60.00       246.30
  164.37        2982.50           2605          57.00       233.22
  164.40        2982.75           2609          57.00       233.22
  164.43        2983.00           2612          58.00       237.58
  164.46        2983.25           2616          54.00       220.14
  164.49        2983.50           2619          58.00       237.58
  164.52        2983.75           2623          63.00       259.37
  164.55        2984.00           2626          56.00       228.86
HS scan finished at 02:44:47
end
************************************************************
  HS Scan of (1) Internal mercury lamp
************************************************************
Integration time is 0.2294 seconds per sample
dh190918Reading 51.44 .94 3.7pr1000
************************************************************
Dead Time -------------------------  3.4E-08 
Number of Cycles Used -------------  4 
Starting Wavelength (Angstroms) ---  2950 
Final Wavelength (Angstoms) -------  2984 
Wavelength Increment (Angstroms) --  .25 
Filter Wheel #1 Position ---------- (1) Ground quartz diffuser (ND=2.32)
Filter Wheel #2 Position ---------- (1) Neutral Density 0.494



************************************************************
HS scan start time = 19:09:58
Dark Count =  4.4 


Time (GMT)  Wavelength (Ang)  Step Number  Raw Counts  Counts/Second

 1150.86        2950.00           2144          60.00       242.37
 1151.06        2950.25           2147          57.00       229.30
 1151.09        2950.50           2151          54.00       216.22
 1151.12        2950.75           2155          50.00       198.78
 1151.15        2951.00           2158          54.00       216.22
 1151.18        2951.25           2162          46.00       181.34
 1151.21        2951.50           2165          56.00       224.94
 1151.25        2951.75           2169          53.00       211.86
 1151.28        2952.00           2172          55.00       220.58
 1151.31        2952.25           2176          52.00       207.50
 1151.34        2952.50           2179          64.00       259.81
 1151.37        2952.75           2183          58.00       233.65
 1151.40        2953.00           2186          66.00       268.53
 1151.43        2953.25           2190          57.00       229.30
 1151.46        2953.50           2193          58.00       233.65
 1151.49        2953.75           2197          70.00       285.97
 1151.52        2954.00           2200          64.00       259.81
 1151.55        2954.25           2204          58.00       233.65
 1151.58        2954.50           2208          64.00       259.81
 1151.61        2954.75           2211          60.00       242.37
 1151.65        2955.00           2215          61.00       246.73
 1151.68        2955.25           2218          59.00       238.01
 1151.71        2955.50           2222          64.00       259.81
 1151.74        2955.75           2225          63.00       255.45
 1151.77        2956.00           2229          58.00       233.65
 1151.80        2956.25           2232          78.00       320.84
 1151.83        2956.50           2236          66.00       268.53
 1151.86        2956.75           2239          61.00       246.73
 1151.89        2957.00           2243          73.00       299.04
 1151.92        2957.25           2246          68.00       277.25
 1151.95        2957.50           2250          66.00       268.53
 1151.98        2957.75           2254          73.00       299.04
 1152.01        2958.00           2257          73.00       299.04
 1152.04        2958.25           2261          68.00       277.25
 1152.07        2958.50           2264          73.00       299.04
 1152.10        2958.75           2268          78.00       320.84
 1152.13        2959.00           2271          78.00       320.84
 1152.16        2959.25           2275          73.00       299.04
 1152.20        2959.50           2278          72.00       294.68
 1152.23        2959.75           2282          79.00       325.20
 1152.26        2960.00           2285          78.00       320.84
 1152.29        2960.25           2289          77.00       316.48
 1152.32        2960.50           2293          89.00       368.79
 1152.35        2960.75           2296          83.00       342.64
 1152.38        2961.00           2300          98.00       408.03
 1152.41        2961.25           2303         166.00       704.46
 1152.44        2961.50           2307         496.00      2143.14
 1152.47        2961.75           2310        1121.00      4868.29
 1152.50        2962.00           2314        2204.00      9591.62
 1152.53        2962.25           2317        3047.00     13269.28
 1152.56        2962.50           2321        4116.00     17934.21
 1152.59        2962.75           2324        5059.00     22050.53
 1152.62        2963.00           2328        6462.00     28176.94
 1152.65        2963.25           2331        7429.00     32400.98
 1152.68        2963.50           2335        8667.00     37810.56
 1152.72        2963.75           2339       10179.00     44420.14
 1152.75        2964.00           2342       10910.00     47616.70
 1152.78        2964.25           2346       12363.00     53972.54
 1152.81        2964.50           2349       13256.00     57880.14
 1152.84        2964.75           2353       14836.00     64796.48
 1152.87        2965.00           2356       15732.00     68720.10
 1152.90        2965.25           2360       16816.00     73468.38
 1152.93        2965.50           2363       17735.00     77495.12
 1152.96        2965.75           2367       18889.00     82553.10
 1152.99        2966.00           2370       19664.00     85950.89
 1153.02        2966.25           2374       20447.00     89384.56
 1153.05        2966.50           2378       21213.00     92744.48
 1153.08        2966.75           2381       21199.00     92683.06
 1153.11        2967.00           2385       21923.00     95859.44
 1153.14        2967.25           2388       21761.00     95148.65
 1153.17        2967.50           2392       21455.00     93806.12
 1153.20        2967.75           2395       21202.00     92696.22
 1153.24        2968.00           2399       20463.00     89454.74
 1153.27        2968.25           2402       19592.00     85635.21
 1153.30        2968.50           2406       18381.00     80326.31
 1153.33        2968.75           2409       17452.00     76254.99
 1153.36        2969.00           2413       16447.00     71851.86
 1153.39        2969.25           2417       15188.00     66337.78
 1153.42        2969.50           2420       14207.00     62042.69
 1153.45        2969.75           2424       12940.00     56497.26
 1153.48        2970.00           2427       12229.00     53386.26
 1153.51        2970.25           2431       11000.00     48010.30
 1153.54        2970.50           2434        9977.00     43536.93
 1153.57        2970.75           2438        8593.00     37487.16
 1153.60        2971.00           2441        7447.00     32479.62
 1153.63        2971.25           2445        6317.00     27543.66
 1153.66        2971.50           2449        5163.00     22504.57
 1153.69        2971.75           2452        4272.00     18615.09
 1153.72        2972.00           2456        3050.00     13282.37
 1153.76        2972.25           2459        2149.00      9351.71
 1153.79        2972.50           2463        1103.00      4789.79
 1153.82        2972.75           2466         583.00      2522.45
 1153.85        2973.00           2470         201.00       857.04
 1153.88        2973.25           2473         110.00       460.34
 1153.91        2973.50           2477          93.00       386.23
 1153.94        2973.75           2481          91.00       377.51
 1153.97        2974.00           2484          82.00       338.28
 1154.00        2974.25           2488          81.00       333.92
 1154.03        2974.50           2491          81.00       333.92
 1154.06        2974.75           2495          81.00       333.92
 1154.09        2975.00           2498          90.00       373.15
 1154.12        2975.25           2502          75.00       307.76
 1154.15        2975.50           2505          81.00       333.92
 1154.18        2975.75           2509          74.00       303.40
 1154.21        2976.00           2512          72.00       294.68
 1154.24        2976.25           2516          65.00       264.17
 1154.28        2976.50           2520          75.00       307.76
 1154.31        2976.75           2523          81.00       333.92
 1154.34        2977.00           2527          77.00       316.48
 1154.37        2977.25           2530          68.00       277.25
 1154.40        2977.50           2534          65.00       264.17
 1154.43        2977.75           2537          72.00       294.68
 1154.46        2978.00           2541          63.00       255.45
 1154.49        2978.25           2544          67.00       272.89
 1154.52        2978.50           2548          60.00       242.37
 1154.56        2978.75           2552          66.00       268.53
 1154.59        2979.00           2555          79.00       325.20
 1154.62        2979.25           2559          71.00       290.33
 1154.65        2979.50           2562          69.00       281.61
 1154.68        2979.75           2566          63.00       255.45
 1154.71        2980.00           2569          53.00       211.86
 1154.74        2980.25           2573          67.00       272.89
 1154.77        2980.50           2577          59.00       238.01
 1154.80        2980.75           2580          54.00       216.22
 1154.83        2981.00           2584          63.00       255.45
 1154.86        2981.25           2587          55.00       220.58
 1154.89        2981.50           2591          57.00       229.30
 1154.92        2981.75           2594          64.00       259.81
 1154.95        2982.00           2598          57.00       229.30
 1154.99        2982.25           2601          61.00       246.73
 1155.02        2982.50           2605          59.00       238.01
 1155.05        2982.75           2609          54.00       216.22
 1155.08        2983.00           2612          58.00       233.65
 1155.11        2983.25           2616          63.00       255.45
 1155.14        2983.50           2619          55.00       220.58
 1155.17        2983.75           2623          57.00       229.30
 1155.20        2984.00           2626          53.00       211.86
HS scan finished at 19:15:25
end
