************************************************************
  HS Scan of (1) Internal mercury lamp
************************************************************
Integration time is 0.2294 seconds per sample
dh200918Reading 51.44 .94 3.45pr1000
************************************************************
Dead Time -------------------------  3.4E-08 
Number of Cycles Used -------------  4 
Starting Wavelength (Angstroms) ---  2950 
Final Wavelength (Angstoms) -------  2984 
Wavelength Increment (Angstroms) --  .25 
Filter Wheel #1 Position ---------- (1) Ground quartz diffuser (ND=2.32)
Filter Wheel #2 Position ---------- (1) Neutral Density 0.494



************************************************************
HS scan start time = 02:42:31
Dark Count =  2.4 


Time (GMT)  Wavelength (Ang)  Step Number  Raw Counts  Counts/Second

  163.42        2950.00           2144          63.00       264.17
  163.61        2950.25           2147          58.00       242.37
  163.64        2950.50           2151          55.00       229.30
  163.67        2950.75           2155          58.00       242.37
  163.70        2951.00           2158          65.00       272.89
  163.73        2951.25           2162          61.00       255.45
  163.77        2951.50           2165          63.00       264.17
  163.80        2951.75           2169          61.00       255.45
  163.83        2952.00           2172          60.00       251.09
  163.86        2952.25           2176          64.00       268.53
  163.89        2952.50           2179          59.00       246.73
  163.92        2952.75           2183          60.00       251.09
  163.95        2953.00           2186          56.00       233.65
  163.98        2953.25           2190          55.00       229.30
  164.01        2953.50           2193          64.00       268.53
  164.04        2953.75           2197          70.00       294.68
  164.07        2954.00           2200          59.00       246.73
  164.10        2954.25           2204          65.00       272.89
  164.13        2954.50           2208          69.00       290.33
  164.16        2954.75           2211          63.00       264.17
  164.19        2955.00           2215          66.00       277.25
  164.22        2955.25           2218          62.00       259.81
  164.25        2955.50           2222          68.00       285.97
  164.29        2955.75           2225          68.00       285.97
  164.32        2956.00           2229          63.00       264.17
  164.35        2956.25           2232          75.00       316.48
  164.38        2956.50           2236          65.00       272.89
  164.41        2956.75           2239          75.00       316.48
  164.44        2957.00           2243          62.00       259.81
  164.47        2957.25           2246          67.00       281.61
  164.50        2957.50           2250          61.00       255.45
  164.53        2957.75           2254          67.00       281.61
  164.56        2958.00           2257          61.00       255.45
  164.59        2958.25           2261          75.00       316.48
  164.62        2958.50           2264          67.00       281.61
  164.65        2958.75           2268          70.00       294.68
  164.68        2959.00           2271          80.00       338.28
  164.71        2959.25           2275          68.00       285.97
  164.74        2959.50           2278          72.00       303.40
  164.77        2959.75           2282          77.00       325.20
  164.81        2960.00           2285          80.00       338.28
  164.84        2960.25           2289          78.00       329.56
  164.87        2960.50           2293          82.00       347.00
  164.90        2960.75           2296          81.00       342.64
  164.93        2961.00           2300         101.00       429.82
  164.96        2961.25           2303         226.00       974.75
  164.99        2961.50           2307         727.00      3159.01
  165.02        2961.75           2310        1402.00      6102.40
  165.05        2962.00           2314        2503.00     10904.65
  165.08        2962.25           2317        3281.00     14299.02
  165.11        2962.50           2321        4260.00     18571.45
  165.14        2962.75           2324        4965.00     21648.89
  165.17        2963.00           2328        6174.00     26927.87
  165.20        2963.25           2331        7070.00     30841.39
  165.23        2963.50           2335        8430.00     36783.55
  165.26        2963.75           2339        9708.00     42369.62
  165.29        2964.00           2342       10687.00     46650.22
  165.33        2964.25           2346       11829.00     51645.10
  165.36        2964.50           2349       12665.00     55302.67
  165.39        2964.75           2353       13827.00     60388.03
  165.42        2965.00           2356       14667.00     64065.29
  165.45        2965.25           2360       15610.00     68194.56
  165.48        2965.50           2363       16225.00     70888.18
  165.51        2965.75           2367       17196.00     75142.03
  165.54        2966.00           2370       18509.00     80896.13
  165.57        2966.25           2374       19272.00     84240.94
  165.60        2966.50           2378       19535.00     85394.05
  165.63        2966.75           2381       19415.00     84867.90
  165.66        2967.00           2385       19660.00     85942.13
  165.69        2967.25           2388       19563.00     85516.81
  165.72        2967.50           2392       19387.00     84745.13
  165.75        2967.75           2395       19149.00     83701.69
  165.78        2968.00           2399       18689.00     81685.13
  165.81        2968.25           2402       17599.00     76907.91
  165.85        2968.50           2406       16518.00     72171.65
  165.88        2968.75           2409       15687.00     68531.78
  165.91        2969.00           2413       14772.00     64525.02
  165.94        2969.25           2417       13588.00     59341.93
  165.97        2969.50           2420       12742.00     55639.60
  166.00        2969.75           2424       11433.00     49912.88
  166.03        2970.00           2427       10552.00     46059.87
  166.06        2970.25           2431        9584.00     41827.53
  166.09        2970.50           2434        8858.00     38654.08
  166.12        2970.75           2438        7687.00     33536.92
  166.15        2971.00           2441        6728.00     29347.49
  166.18        2971.25           2445        5413.00     23604.81
  166.21        2971.50           2449        4425.00     19291.64
  166.24        2971.75           2452        3689.00     16079.41
  166.27        2972.00           2456        2636.00     11484.87
  166.30        2972.25           2459        1843.00      8025.73
  166.33        2972.50           2463         887.00      3856.65
  166.36        2972.75           2466         413.00      1790.00
  166.40        2973.00           2470         158.00       678.31
  166.43        2973.25           2473          99.00       421.10
  166.46        2973.50           2477          91.00       386.23
  166.49        2973.75           2481         100.00       425.46
  166.52        2974.00           2484          88.00       373.15
  166.55        2974.25           2488          84.00       355.71
  166.58        2974.50           2491          76.00       320.84
  166.61        2974.75           2495          79.00       333.92
  166.64        2975.00           2498          72.00       303.40
  166.67        2975.25           2502          73.00       307.76
  166.70        2975.50           2505          73.00       307.76
  166.73        2975.75           2509          80.00       338.28
  166.76        2976.00           2512          63.00       264.17
  166.79        2976.25           2516          75.00       316.48
  166.82        2976.50           2520          68.00       285.97
  166.85        2976.75           2523          68.00       285.97
  166.88        2977.00           2527          72.00       303.40
  166.92        2977.25           2530          65.00       272.89
  166.95        2977.50           2534          66.00       277.25
  166.98        2977.75           2537          64.00       268.53
  167.01        2978.00           2541          64.00       268.53
  167.04        2978.25           2544          57.00       238.01
  167.07        2978.50           2548          67.00       281.61
  167.10        2978.75           2552          64.00       268.53
  167.13        2979.00           2555          54.00       224.94
  167.16        2979.25           2559          53.00       220.58
  167.19        2979.50           2562          62.00       259.81
  167.22        2979.75           2566          62.00       259.81
  167.25        2980.00           2569          67.00       281.61
  167.28        2980.25           2573          55.00       229.30
  167.31        2980.50           2577          55.00       229.30
  167.34        2980.75           2580          60.00       251.09
  167.37        2981.00           2584          59.00       246.73
  167.41        2981.25           2587          53.00       220.58
  167.44        2981.50           2591          62.00       259.81
  167.47        2981.75           2594          59.00       246.73
  167.50        2982.00           2598          54.00       224.94
  167.53        2982.25           2601          67.00       281.61
  167.56        2982.50           2605          58.00       242.37
  167.59        2982.75           2609          61.00       255.45
  167.62        2983.00           2612          52.00       216.22
  167.65        2983.25           2616          59.00       246.73
  167.68        2983.50           2619          53.00       220.58
  167.71        2983.75           2623          59.00       246.73
  167.74        2984.00           2626          54.00       224.94
HS scan finished at 02:47:58
end
************************************************************
  HS Scan of (1) Internal mercury lamp
************************************************************
Integration time is 0.2294 seconds per sample
dh200918Reading 51.44 .94 3.64pr1000
************************************************************
Dead Time -------------------------  3.4E-08 
Number of Cycles Used -------------  4 
Starting Wavelength (Angstroms) ---  2950 
Final Wavelength (Angstoms) -------  2984 
Wavelength Increment (Angstroms) --  .25 
Filter Wheel #1 Position ---------- (1) Ground quartz diffuser (ND=2.32)
Filter Wheel #2 Position ---------- (1) Neutral Density 0.494



************************************************************
HS scan start time = 19:07:26
Dark Count =  3.8 


Time (GMT)  Wavelength (Ang)  Step Number  Raw Counts  Counts/Second

 1148.33        2950.00           2144          50.00       201.40
 1148.53        2950.25           2147          47.00       188.32
 1148.56        2950.50           2151          47.00       188.32
 1148.59        2950.75           2155          53.00       214.47
 1148.62        2951.00           2158          48.00       192.68
 1148.65        2951.25           2162          52.00       210.11
 1148.68        2951.50           2165          53.00       214.47
 1148.71        2951.75           2169          46.00       183.96
 1148.74        2952.00           2172          53.00       214.47
 1148.77        2952.25           2176          50.00       201.40
 1148.80        2952.50           2179          58.00       236.27
 1148.83        2952.75           2183          47.00       188.32
 1148.86        2953.00           2186          52.00       210.11
 1148.89        2953.25           2190          58.00       236.27
 1148.93        2953.50           2193          53.00       214.47
 1148.96        2953.75           2197          55.00       223.19
 1148.99        2954.00           2200          55.00       223.19
 1149.02        2954.25           2204          50.00       201.40
 1149.05        2954.50           2208          49.00       197.04
 1149.08        2954.75           2211          55.00       223.19
 1149.11        2955.00           2215          59.00       240.63
 1149.14        2955.25           2218          58.00       236.27
 1149.17        2955.50           2222          53.00       214.47
 1149.20        2955.75           2225          59.00       240.63
 1149.23        2956.00           2229          60.00       244.99
 1149.26        2956.25           2232          59.00       240.63
 1149.29        2956.50           2236          66.00       271.14
 1149.32        2956.75           2239          62.00       253.71
 1149.35        2957.00           2243          61.00       249.35
 1149.38        2957.25           2246          64.00       262.43
 1149.41        2957.50           2250          66.00       271.14
 1149.44        2957.75           2254          66.00       271.14
 1149.48        2958.00           2257          64.00       262.43
 1149.51        2958.25           2261          58.00       236.27
 1149.54        2958.50           2264          64.00       262.43
 1149.57        2958.75           2268          58.00       236.27
 1149.60        2959.00           2271          64.00       262.43
 1149.63        2959.25           2275          70.00       288.58
 1149.66        2959.50           2278          70.00       288.58
 1149.69        2959.75           2282          68.00       279.86
 1149.72        2960.00           2285          76.00       314.74
 1149.75        2960.25           2289          82.00       340.89
 1149.78        2960.50           2293          73.00       301.66
 1149.81        2960.75           2296          66.00       271.14
 1149.84        2961.00           2300          89.00       371.41
 1149.87        2961.25           2303         187.00       798.63
 1149.90        2961.50           2307         591.00      2559.94
 1149.93        2961.75           2310        1179.00      5123.82
 1149.96        2962.00           2314        2076.00      9035.91
 1150.00        2962.25           2317        2906.00     12656.71
 1150.03        2962.50           2321        3879.00     16902.48
 1150.06        2962.75           2324        4541.00     19791.87
 1150.09        2963.00           2328        5506.00     24004.76
 1150.12        2963.25           2331        6329.00     27598.69
 1150.15        2963.50           2335        7366.00     32128.36
 1150.18        2963.75           2339        8324.00     36314.21
 1150.21        2964.00           2342        9368.00     40877.18
 1150.24        2964.25           2346       10355.00     45192.32
 1150.27        2964.50           2349       10987.00     47956.08
 1150.30        2964.75           2353       11772.00     51389.63
 1150.33        2965.00           2356       12568.00     54872.12
 1150.36        2965.25           2360       13357.00     58324.79
 1150.39        2965.50           2363       14093.00     61546.27
 1150.42        2965.75           2367       15233.00     66537.46
 1150.45        2966.00           2370       16016.00     69966.60
 1150.48        2966.25           2374       16501.00     72091.03
 1150.52        2966.50           2378       16986.00     74215.80
 1150.55        2966.75           2381       17172.00     75030.75
 1150.58        2967.00           2385       17090.00     74671.46
 1150.61        2967.25           2388       17350.00     75810.68
 1150.64        2967.50           2392       17090.00     74671.46
 1150.67        2967.75           2395       16756.00     73208.15
 1150.70        2968.00           2399       16234.00     70921.46
 1150.73        2968.25           2402       15584.00     68074.56
 1150.76        2968.50           2406       14808.00     64676.51
 1150.79        2968.75           2409       14014.00     61200.45
 1150.82        2969.00           2413       13183.00     57563.30
 1150.85        2969.25           2417       12424.00     54242.06
 1150.88        2969.50           2420       11665.00     50921.57
 1150.91        2969.75           2424       10424.00     45494.03
 1150.94        2970.00           2427        9568.00     41751.47
 1150.97        2970.25           2431        8595.00     37498.52
 1151.00        2970.50           2434        7933.00     34605.65
 1151.04        2970.75           2438        6866.00     29944.16
 1151.07        2971.00           2441        6070.00     26467.58
 1151.10        2971.25           2445        5182.00     22590.14
 1151.13        2971.50           2449        4224.00     18408.21
 1151.16        2971.75           2452        3553.00     15479.81
 1151.19        2972.00           2456        2620.00     11408.96
 1151.22        2972.25           2459        1894.00      8242.07
 1151.25        2972.50           2463        1090.00      4735.72
 1151.28        2972.75           2466         584.00      2529.42
 1151.31        2973.00           2470         177.00       755.03
 1151.34        2973.25           2473          89.00       371.41
 1151.37        2973.50           2477          68.00       279.86
 1151.40        2973.75           2481          75.00       310.38
 1151.44        2974.00           2484          69.00       284.22
 1151.47        2974.25           2488          71.00       292.94
 1151.50        2974.50           2491          66.00       271.14
 1151.53        2974.75           2495          72.00       297.30
 1151.56        2975.00           2498          67.00       275.50
 1151.59        2975.25           2502          61.00       249.35
 1151.63        2975.50           2505          60.00       244.99
 1151.66        2975.75           2509          70.00       288.58
 1151.69        2976.00           2512          65.00       266.79
 1151.72        2976.25           2516          62.00       253.71
 1151.75        2976.50           2520          56.00       227.55
 1151.78        2976.75           2523          54.00       218.83
 1151.81        2977.00           2527          60.00       244.99
 1151.84        2977.25           2530          54.00       218.83
 1151.87        2977.50           2534          58.00       236.27
 1151.90        2977.75           2537          57.00       231.91
 1151.93        2978.00           2541          55.00       223.19
 1151.96        2978.25           2544          49.00       197.04
 1151.99        2978.50           2548          54.00       218.83
 1152.02        2978.75           2552          58.00       236.27
 1152.05        2979.00           2555          57.00       231.91
 1152.08        2979.25           2559          57.00       231.91
 1152.11        2979.50           2562          50.00       201.40
 1152.15        2979.75           2566          54.00       218.83
 1152.18        2980.00           2569          54.00       218.83
 1152.21        2980.25           2573          50.00       201.40
 1152.24        2980.50           2577          57.00       231.91
 1152.27        2980.75           2580          58.00       236.27
 1152.30        2981.00           2584          56.00       227.55
 1152.33        2981.25           2587          53.00       214.47
 1152.36        2981.50           2591          56.00       227.55
 1152.39        2981.75           2594          55.00       223.19
 1152.42        2982.00           2598          51.00       205.76
 1152.45        2982.25           2601          53.00       214.47
 1152.48        2982.50           2605          48.00       192.68
 1152.51        2982.75           2609          56.00       227.55
 1152.54        2983.00           2612          47.00       188.32
 1152.57        2983.25           2616          53.00       214.47
 1152.60        2983.50           2619          51.00       205.76
 1152.63        2983.75           2623          51.00       205.76
 1152.66        2984.00           2626          49.00       197.04
HS scan finished at 19:12:53
end
