************************************************************
  HS Scan of (1) Internal mercury lamp
************************************************************
Integration time is 0.2294 seconds per sample
dh170918Reading 51.44 .94 3.56pr1000
************************************************************
Dead Time -------------------------  3.4E-08 
Number of Cycles Used -------------  4 
Starting Wavelength (Angstroms) ---  2950 
Final Wavelength (Angstoms) -------  2984 
Wavelength Increment (Angstroms) --  .25 
Filter Wheel #1 Position ---------- (1) Ground quartz diffuser (ND=2.32)
Filter Wheel #2 Position ---------- (1) Neutral Density 0.494



************************************************************
HS scan start time = 02:32:33
Dark Count =  3.1 


Time (GMT)  Wavelength (Ang)  Step Number  Raw Counts  Counts/Second

  153.46        2950.00           2144          52.00       213.17
  153.65        2950.25           2147          52.00       213.17
  153.68        2950.50           2151          61.00       252.40
  153.71        2950.75           2155          60.00       248.04
  153.74        2951.00           2158          56.00       230.60
  153.77        2951.25           2162          56.00       230.60
  153.80        2951.50           2165          65.00       269.84
  153.83        2951.75           2169          53.00       217.53
  153.86        2952.00           2172          58.00       239.32
  153.89        2952.25           2176          51.00       208.81
  153.92        2952.50           2179          61.00       252.40
  153.95        2952.75           2183          54.00       221.88
  153.99        2953.00           2186          57.00       234.96
  154.02        2953.25           2190          57.00       234.96
  154.05        2953.50           2193          62.00       256.76
  154.08        2953.75           2197          63.00       261.12
  154.11        2954.00           2200          69.00       287.27
  154.14        2954.25           2204          63.00       261.12
  154.17        2954.50           2208          60.00       248.04
  154.20        2954.75           2211          57.00       234.96
  154.23        2955.00           2215          68.00       282.91
  154.26        2955.25           2218          57.00       234.96
  154.29        2955.50           2222          66.00       274.20
  154.32        2955.75           2225          59.00       243.68
  154.35        2956.00           2229          56.00       230.60
  154.38        2956.25           2232          63.00       261.12
  154.41        2956.50           2236          70.00       291.63
  154.44        2956.75           2239          54.00       221.88
  154.47        2957.00           2243          69.00       287.27
  154.50        2957.25           2246          59.00       243.68
  154.54        2957.50           2250          62.00       256.76
  154.57        2957.75           2254          61.00       252.40
  154.60        2958.00           2257          62.00       256.76
  154.63        2958.25           2261          66.00       274.20
  154.66        2958.50           2264          67.00       278.56
  154.69        2958.75           2268          68.00       282.91
  154.72        2959.00           2271          71.00       295.99
  154.75        2959.25           2275          72.00       300.35
  154.78        2959.50           2278          64.00       265.48
  154.81        2959.75           2282          71.00       295.99
  154.84        2960.00           2285          77.00       322.15
  154.87        2960.25           2289          71.00       295.99
  154.90        2960.50           2293          78.00       326.51
  154.93        2960.75           2296          87.00       365.74
  154.96        2961.00           2300          91.00       383.18
  154.99        2961.25           2303         175.00       749.37
  155.03        2961.50           2307         495.00      2144.45
  155.06        2961.75           2310        1066.00      4634.12
  155.09        2962.00           2314        2094.00      9117.47
  155.12        2962.25           2317        2893.00     12603.04
  155.15        2962.50           2321        3874.00     16883.71
  155.18        2962.75           2324        4639.00     20222.71
  155.21        2963.00           2328        5720.00     24942.24
  155.24        2963.25           2331        6415.00     27977.34
  155.27        2963.50           2335        7464.00     32559.57
  155.30        2963.75           2339        8403.00     36662.50
  155.33        2964.00           2342       10566.00     46118.03
  155.36        2964.25           2346       11674.00     50964.00
  155.39        2964.50           2349       12430.00     54271.37
  155.42        2964.75           2353       13746.00     60030.42
  155.45        2965.00           2356       15148.00     66168.31
  155.48        2965.25           2360       15862.00     69295.16
  155.51        2965.50           2363       16756.00     73211.22
  155.55        2965.75           2367       19112.00     83536.41
  155.58        2966.00           2370       19444.00     84991.99
  155.61        2966.25           2374       20700.00     90499.92
  155.64        2966.50           2378       20619.00     90144.66
  155.67        2966.75           2381       20920.00     91464.91
  155.70        2967.00           2385       20788.00     90885.91
  155.73        2967.25           2388       20997.00     91802.66
  155.76        2967.50           2392       20963.00     91653.53
  155.79        2967.75           2395       20604.00     90078.87
  155.82        2968.00           2399       20027.00     87548.36
  155.85        2968.25           2402       19543.00     85426.06
  155.88        2968.50           2406       18356.00     80222.45
  155.91        2968.75           2409       17338.00     75761.16
  155.94        2969.00           2413       16298.00     71204.87
  155.97        2969.25           2417       15225.00     66505.50
  156.00        2969.50           2420       14160.00     61842.63
  156.03        2969.75           2424       13008.00     56800.53
  156.06        2970.00           2427       12110.00     52871.33
  156.10        2970.25           2431       10725.00     46813.34
  156.13        2970.50           2434        9613.00     41951.26
  156.16        2970.75           2438        8319.00     36295.42
  156.19        2971.00           2441        7347.00     32048.42
  156.22        2971.25           2445        6021.00     26256.65
  156.25        2971.50           2449        4846.00     21126.33
  156.28        2971.75           2452        3962.00     17267.76
  156.31        2972.00           2456        2756.00     12005.34
  156.34        2972.25           2459        1980.00      8620.22
  156.37        2972.50           2463         981.00      4263.48
  156.40        2972.75           2466         501.00      2170.60
  156.43        2973.00           2470         165.00       705.77
  156.46        2973.25           2473         108.00       457.29
  156.49        2973.50           2477          95.00       400.62
  156.52        2973.75           2481          88.00       370.10
  156.55        2974.00           2484          86.00       361.38
  156.58        2974.25           2488          82.00       343.94
  156.62        2974.50           2491          76.00       317.79
  156.65        2974.75           2495          77.00       322.15
  156.68        2975.00           2498          92.00       387.54
  156.71        2975.25           2502          87.00       365.74
  156.74        2975.50           2505          84.00       352.66
  156.78        2975.75           2509          83.00       348.30
  156.81        2976.00           2512          77.00       322.15
  156.84        2976.25           2516          74.00       309.07
  156.87        2976.50           2520          73.00       304.71
  156.90        2976.75           2523          79.00       330.87
  156.93        2977.00           2527          74.00       309.07
  156.96        2977.25           2530          73.00       304.71
  156.99        2977.50           2534          67.00       278.56
  157.02        2977.75           2537          72.00       300.35
  157.05        2978.00           2541          71.00       295.99
  157.08        2978.25           2544          72.00       300.35
  157.11        2978.50           2548          67.00       278.56
  157.14        2978.75           2552          63.00       261.12
  157.17        2979.00           2555          61.00       252.40
  157.20        2979.25           2559          61.00       252.40
  157.23        2979.50           2562          68.00       282.91
  157.26        2979.75           2566          64.00       265.48
  157.30        2980.00           2569          60.00       248.04
  157.33        2980.25           2573          62.00       256.76
  157.36        2980.50           2577          56.00       230.60
  157.39        2980.75           2580          68.00       282.91
  157.42        2981.00           2584          66.00       274.20
  157.45        2981.25           2587          60.00       248.04
  157.48        2981.50           2591          54.00       221.88
  157.51        2981.75           2594          52.00       213.17
  157.54        2982.00           2598          62.00       256.76
  157.57        2982.25           2601          60.00       248.04
  157.60        2982.50           2605          60.00       248.04
  157.63        2982.75           2609          58.00       239.32
  157.66        2983.00           2612          58.00       239.32
  157.69        2983.25           2616          60.00       248.04
  157.72        2983.50           2619          64.00       265.48
  157.75        2983.75           2623          55.00       226.24
  157.78        2984.00           2626          58.00       239.32
HS scan finished at 02:38:00
end
************************************************************
  HS Scan of (1) Internal mercury lamp
************************************************************
Integration time is 0.2294 seconds per sample
dh170918Reading 51.44 .94 3.8pr1000
************************************************************
Dead Time -------------------------  3.4E-08 
Number of Cycles Used -------------  4 
Starting Wavelength (Angstroms) ---  2950 
Final Wavelength (Angstoms) -------  2984 
Wavelength Increment (Angstroms) --  .25 
Filter Wheel #1 Position ---------- (1) Ground quartz diffuser (ND=2.32)
Filter Wheel #2 Position ---------- (1) Neutral Density 0.494



************************************************************
HS scan start time = 19:08:43
Dark Count =  5.6 


Time (GMT)  Wavelength (Ang)  Step Number  Raw Counts  Counts/Second

 1149.62        2950.00           2144          55.00       215.35
 1149.81        2950.25           2147          52.00       202.27
 1149.84        2950.50           2151          58.00       228.42
 1149.87        2950.75           2155          50.00       193.55
 1149.91        2951.00           2158          57.00       224.06
 1149.94        2951.25           2162          56.00       219.71
 1149.97        2951.50           2165          52.00       202.27
 1150.00        2951.75           2169          60.00       237.14
 1150.03        2952.00           2172          56.00       219.71
 1150.06        2952.25           2176          57.00       224.06
 1150.09        2952.50           2179          54.00       210.99
 1150.12        2952.75           2183          49.00       189.19
 1150.15        2953.00           2186          55.00       215.35
 1150.18        2953.25           2190          51.00       197.91
 1150.21        2953.50           2193          56.00       219.71
 1150.24        2953.75           2197          60.00       237.14
 1150.27        2954.00           2200          58.00       228.42
 1150.30        2954.25           2204          61.00       241.50
 1150.33        2954.50           2208          67.00       267.66
 1150.36        2954.75           2211          56.00       219.71
 1150.39        2955.00           2215          63.00       250.22
 1150.43        2955.25           2218          57.00       224.06
 1150.46        2955.50           2222          63.00       250.22
 1150.49        2955.75           2225          64.00       254.58
 1150.52        2956.00           2229          58.00       228.42
 1150.55        2956.25           2232          66.00       263.30
 1150.58        2956.50           2236          64.00       254.58
 1150.61        2956.75           2239          70.00       280.74
 1150.64        2957.00           2243          60.00       237.14
 1150.67        2957.25           2246          61.00       241.50
 1150.70        2957.50           2250          62.00       245.86
 1150.73        2957.75           2254          60.00       237.14
 1150.76        2958.00           2257          61.00       241.50
 1150.79        2958.25           2261          72.00       289.45
 1150.82        2958.50           2264          62.00       245.86
 1150.85        2958.75           2268          62.00       245.86
 1150.88        2959.00           2271          80.00       324.33
 1150.91        2959.25           2275          67.00       267.66
 1150.95        2959.50           2278          70.00       280.74
 1150.98        2959.75           2282          72.00       289.45
 1151.01        2960.00           2285          77.00       311.25
 1151.04        2960.25           2289          74.00       298.17
 1151.07        2960.50           2293          83.00       337.41
 1151.10        2960.75           2296          87.00       354.84
 1151.13        2961.00           2300          91.00       372.28
 1151.16        2961.25           2303         212.00       899.77
 1151.19        2961.50           2307         756.00      3271.51
 1151.22        2961.75           2310        1322.00      5739.57
 1151.25        2962.00           2314        2358.00     10258.15
 1151.28        2962.25           2317        3140.00     13669.82
 1151.31        2962.50           2321        4206.00     18321.79
 1151.34        2962.75           2324        4998.00     21778.98
 1151.37        2963.00           2328        5987.00     26097.26
 1151.40        2963.25           2331        7047.00     30726.94
 1151.43        2963.50           2335        8212.00     35816.92
 1151.47        2963.75           2339        9600.00     41883.49
 1151.50        2964.00           2342       10591.00     46216.42
 1151.53        2964.25           2346       11792.00     51469.25
 1151.56        2964.50           2349       12496.00     54549.21
 1151.59        2964.75           2353       13585.00     59314.80
 1151.63        2965.00           2356       14774.00     64519.76
 1151.66        2965.25           2360       15630.00     68268.13
 1151.69        2965.50           2363       16309.00     71242.11
 1151.73        2965.75           2367       17348.00     75794.03
 1151.76        2966.00           2370       17839.00     77945.62
 1151.79        2966.25           2374       19415.00     84853.88
 1151.82        2966.50           2378       19433.00     84932.79
 1151.85        2966.75           2381       19273.00     84231.30
 1151.88        2967.00           2385       20057.00     87668.96
 1151.91        2967.25           2388       19866.00     86831.39
 1151.94        2967.50           2392       20372.00     89050.38
 1151.97        2967.75           2395       20649.00     90265.27
 1152.00        2968.00           2399       19312.00     84402.28
 1152.03        2968.25           2402       17967.00     78506.58
 1152.06        2968.50           2406       17671.00     77209.40
 1152.09        2968.75           2409       16949.00     74045.81
 1152.12        2969.00           2413       15724.00     68679.81
 1152.15        2969.25           2417       14366.00     62733.49
 1152.18        2969.50           2420       13198.00     57621.06
 1152.21        2969.75           2424       12176.00     53149.15
 1152.24        2970.00           2427       11396.00     49737.05
 1152.28        2970.25           2431       10203.00     44519.83
 1152.31        2970.50           2434        9506.00     41472.56
 1152.34        2970.75           2438        8350.00     36419.97
 1152.37        2971.00           2441        7510.00     32749.61
 1152.40        2971.25           2445        6123.00     26691.17
 1152.43        2971.50           2449        5053.00     22019.09
 1152.46        2971.75           2452        4289.00     18684.06
 1152.49        2972.00           2456        3082.00     13416.76
 1152.52        2972.25           2459        2293.00      9974.61
 1152.55        2972.50           2463        1240.00      5381.98
 1152.58        2972.75           2466         641.00      2770.10
 1152.61        2973.00           2470         187.00       790.78
 1152.64        2973.25           2473          99.00       407.15
 1152.67        2973.50           2477          88.00       359.20
 1152.70        2973.75           2481          81.00       328.69
 1152.73        2974.00           2484          81.00       328.69
 1152.77        2974.25           2488          72.00       289.45
 1152.80        2974.50           2491          73.00       293.81
 1152.83        2974.75           2495          77.00       311.25
 1152.86        2975.00           2498          70.00       280.74
 1152.89        2975.25           2502          76.00       306.89
 1152.92        2975.50           2505          72.00       289.45
 1152.95        2975.75           2509          68.00       272.02
 1152.98        2976.00           2512          70.00       280.74
 1153.01        2976.25           2516          72.00       289.45
 1153.04        2976.50           2520          65.00       258.94
 1153.07        2976.75           2523          64.00       254.58
 1153.10        2977.00           2527          73.00       293.81
 1153.13        2977.25           2530          66.00       263.30
 1153.16        2977.50           2534          65.00       258.94
 1153.19        2977.75           2537          66.00       263.30
 1153.22        2978.00           2541          63.00       250.22
 1153.25        2978.25           2544          57.00       224.06
 1153.29        2978.50           2548          64.00       254.58
 1153.32        2978.75           2552          62.00       245.86
 1153.35        2979.00           2555          60.00       237.14
 1153.38        2979.25           2559          60.00       237.14
 1153.41        2979.50           2562          62.00       245.86
 1153.44        2979.75           2566          54.00       210.99
 1153.47        2980.00           2569          56.00       219.71
 1153.50        2980.25           2573          59.00       232.78
 1153.53        2980.50           2577          60.00       237.14
 1153.56        2980.75           2580          50.00       193.55
 1153.59        2981.00           2584          61.00       241.50
 1153.62        2981.25           2587          51.00       197.91
 1153.65        2981.50           2591          55.00       215.35
 1153.68        2981.75           2594          53.00       206.63
 1153.71        2982.00           2598          48.00       184.83
 1153.74        2982.25           2601          58.00       228.42
 1153.77        2982.50           2605          51.00       197.91
 1153.80        2982.75           2609          56.00       219.71
 1153.84        2983.00           2612          59.00       232.78
 1153.87        2983.25           2616          57.00       224.06
 1153.90        2983.50           2619          58.00       228.42
 1153.93        2983.75           2623          54.00       210.99
 1153.96        2984.00           2626          51.00       197.91
HS scan finished at 19:14:11
end
