************************************************************
  HS Scan of (1) Internal mercury lamp
************************************************************
Integration time is 0.2294 seconds per sample
dh041017Reading 51.44 .94 3pr1000
************************************************************
Dead Time -------------------------  3.4E-08 
Number of Cycles Used -------------  4 
Starting Wavelength (Angstroms) ---  2950 
Final Wavelength (Angstoms) -------  2984 
Wavelength Increment (Angstroms) --  .25 
Filter Wheel #1 Position ---------- (1) Ground quartz diffuser (ND=2.32)
Filter Wheel #2 Position ---------- (1) Neutral Density 0.494



************************************************************
HS scan start time = 03:20:44
Dark Count =  1.3 


Time (GMT)  Wavelength (Ang)  Step Number  Raw Counts  Counts/Second

  201.62        2950.00           2144         110.00       473.85
  201.81        2950.25           2147          90.00       386.67
  201.85        2950.50           2151          96.00       412.82
  201.88        2950.75           2155         100.00       430.26
  201.91        2951.00           2158         113.00       486.93
  201.94        2951.25           2162          89.00       382.31
  201.97        2951.50           2165         101.00       434.62
  202.00        2951.75           2169         107.00       460.77
  202.03        2952.00           2172         133.00       574.12
  202.06        2952.25           2176         131.00       565.40
  202.09        2952.50           2179         131.00       565.40
  202.12        2952.75           2183         110.00       473.85
  202.15        2953.00           2186         109.00       469.49
  202.18        2953.25           2190         126.00       543.60
  202.21        2953.50           2193         142.00       613.35
  202.24        2953.75           2197         131.00       565.40
  202.27        2954.00           2200         154.00       665.66
  202.30        2954.25           2204         141.00       608.99
  202.33        2954.50           2208         109.00       469.49
  202.37        2954.75           2211         116.00       500.01
  202.40        2955.00           2215         101.00       434.62
  202.43        2955.25           2218         147.00       635.15
  202.46        2955.50           2222         125.00       539.24
  202.49        2955.75           2225          99.00       425.90
  202.52        2956.00           2229         103.00       443.34
  202.55        2956.25           2232         102.00       438.98
  202.58        2956.50           2236         130.00       561.04
  202.61        2956.75           2239         153.00       661.31
  202.64        2957.00           2243         117.00       504.37
  202.67        2957.25           2246         149.00       643.87
  202.70        2957.50           2250         129.00       556.68
  202.73        2957.75           2254         141.00       608.99
  202.76        2958.00           2257         143.00       617.71
  202.79        2958.25           2261         150.00       648.23
  202.82        2958.50           2264         144.00       622.07
  202.85        2958.75           2268         134.00       578.48
  202.89        2959.00           2271         147.00       635.15
  202.92        2959.25           2275         144.00       622.07
  202.95        2959.50           2278         138.00       595.91
  202.98        2959.75           2282         124.00       534.88
  203.01        2960.00           2285         142.00       613.35
  203.04        2960.25           2289         140.00       604.63
  203.07        2960.50           2293         132.00       569.76
  203.10        2960.75           2296         144.00       622.07
  203.13        2961.00           2300         163.00       704.90
  203.16        2961.25           2303         298.00      1293.43
  203.19        2961.50           2307         927.00      4035.86
  203.22        2961.75           2310        2018.00      8793.82
  203.25        2962.00           2314        4515.00     19689.29
  203.28        2962.25           2317        6116.00     26679.38
  203.31        2962.50           2321        8504.00     37111.75
  203.36        2962.75           2324       10132.00     44228.19
  203.39        2963.00           2328       11501.00     50215.13
  203.42        2963.25           2331       13131.00     57346.67
  203.45        2963.50           2335       14850.00     64871.35
  203.48        2963.75           2339       17260.00     75427.27
  203.51        2964.00           2342       18812.00     82229.15
  203.54        2964.25           2346       20778.00     90849.94
  203.57        2964.50           2349       22296.00     97509.75
  203.60        2964.75           2353       24248.00    106078.10
  203.63        2965.00           2356       31695.00    138812.70
  203.67        2965.25           2360       33914.00    148580.90
  203.70        2965.50           2363       35283.00    154610.50
  203.73        2965.75           2367       37678.00    165165.10
  203.76        2966.00           2370       39020.00    171082.50
  203.79        2966.25           2374       40472.00    177487.60
  203.82        2966.50           2378       37071.00    162489.40
  203.85        2966.75           2381       36710.00    160898.30
  203.88        2967.00           2385       36530.00    160105.00
  203.91        2967.25           2388       36323.00    159192.80
  203.94        2967.50           2392       36150.00    158430.50
  203.97        2967.75           2395       35692.00    156412.40
  204.00        2968.00           2399       34361.00    150549.40
  204.03        2968.25           2402       32800.00    143676.20
  204.06        2968.50           2406       30653.00    134228.00
  204.09        2968.75           2409       29134.00    127547.10
  204.12        2969.00           2413       27060.00    118430.10
  204.15        2969.25           2417       30695.00    134412.80
  204.19        2969.50           2420       28194.00    123414.30
  204.22        2969.75           2424       23674.00    103558.00
  204.25        2970.00           2427       21238.00     92867.74
  204.28        2970.25           2431       18783.00     82102.01
  204.31        2970.50           2434       17002.00     74296.86
  204.34        2970.75           2438       14463.00     63176.98
  204.37        2971.00           2441       12720.00     55548.15
  204.40        2971.25           2445       10677.00     46611.31
  204.43        2971.50           2449        8664.00     37811.01
  204.46        2971.75           2452        7156.00     31221.88
  204.49        2972.00           2456        5032.00     21946.19
  204.52        2972.25           2459        4374.00     19073.83
  204.55        2972.50           2463        2248.00      9797.07
  204.58        2972.75           2466        1012.00      4406.50
  204.61        2973.00           2470         326.00      1415.50
  204.64        2973.25           2473         182.00       787.73
  204.67        2973.50           2477         161.00       696.18
  204.70        2973.75           2481         151.00       652.59
  204.74        2974.00           2484         141.00       608.99
  204.77        2974.25           2488         153.00       661.31
  204.80        2974.50           2491         163.00       704.90
  204.83        2974.75           2495         126.00       543.60
  204.86        2975.00           2498         145.00       626.43
  204.89        2975.25           2502         142.00       613.35
  204.92        2975.50           2505         131.00       565.40
  204.95        2975.75           2509         150.00       648.23
  204.98        2976.00           2512         170.00       735.42
  205.01        2976.25           2516         128.00       552.32
  205.04        2976.50           2520         111.00       478.21
  205.07        2976.75           2523         142.00       613.35
  205.10        2977.00           2527         118.00       508.73
  205.13        2977.25           2530         120.00       517.45
  205.16        2977.50           2534         109.00       469.49
  205.19        2977.75           2537         107.00       460.77
  205.22        2978.00           2541         106.00       456.42
  205.26        2978.25           2544         121.00       521.81
  205.29        2978.50           2548         100.00       430.26
  205.32        2978.75           2552         121.00       521.81
  205.35        2979.00           2555         107.00       460.77
  205.38        2979.25           2559         100.00       430.26
  205.41        2979.50           2562         106.00       456.42
  205.44        2979.75           2566         103.00       443.34
  205.47        2980.00           2569         115.00       495.65
  205.51        2980.25           2573         130.00       561.04
  205.54        2980.50           2577         155.00       670.02
  205.57        2980.75           2580         119.00       513.09
  205.60        2981.00           2584         102.00       438.98
  205.63        2981.25           2587         108.00       465.13
  205.66        2981.50           2591         108.00       465.13
  205.69        2981.75           2594          99.00       425.90
  205.72        2982.00           2598          96.00       412.82
  205.75        2982.25           2601          95.00       408.46
  205.78        2982.50           2605          96.00       412.82
  205.81        2982.75           2609          94.00       404.10
  205.84        2983.00           2612          92.00       395.38
  205.87        2983.25           2616          96.00       412.82
  205.90        2983.50           2619          96.00       412.82
  205.93        2983.75           2623         106.00       456.42
  205.97        2984.00           2626          96.00       412.82
HS scan finished at 03:26:11
end
************************************************************
  HS Scan of (1) Internal mercury lamp
************************************************************
Integration time is 0.2294 seconds per sample
dh041017Reading 51.44 .94 3.35pr1000
************************************************************
Dead Time -------------------------  3.4E-08 
Number of Cycles Used -------------  4 
Starting Wavelength (Angstroms) ---  2950 
Final Wavelength (Angstoms) -------  2984 
Wavelength Increment (Angstroms) --  .25 
Filter Wheel #1 Position ---------- (1) Ground quartz diffuser (ND=2.32)
Filter Wheel #2 Position ---------- (1) Neutral Density 0.494



************************************************************
HS scan start time = 18:37:27
Dark Count =  2.3 


Time (GMT)  Wavelength (Ang)  Step Number  Raw Counts  Counts/Second

 1118.35        2950.00           2144         117.00       500.01
 1118.54        2950.25           2147          98.00       417.18
 1118.57        2950.50           2151          97.00       412.82
 1118.60        2950.75           2155          99.00       421.54
 1118.63        2951.00           2158          98.00       417.18
 1118.66        2951.25           2162         111.00       473.85
 1118.69        2951.50           2165         111.00       473.85
 1118.72        2951.75           2169         102.00       434.62
 1118.75        2952.00           2172          86.00       364.87
 1118.79        2952.25           2176         139.00       595.91
 1118.82        2952.50           2179         102.00       434.62
 1118.85        2952.75           2183         106.00       452.06
 1118.88        2953.00           2186         107.00       456.42
 1118.91        2953.25           2190         117.00       500.01
 1118.94        2953.50           2193          92.00       391.03
 1118.97        2953.75           2197         102.00       434.62
 1119.00        2954.00           2200         103.00       438.98
 1119.03        2954.25           2204         123.00       526.16
 1119.06        2954.50           2208         108.00       460.77
 1119.09        2954.75           2211         126.00       539.24
 1119.12        2955.00           2215         127.00       543.60
 1119.15        2955.25           2218         104.00       443.34
 1119.18        2955.50           2222         102.00       434.62
 1119.21        2955.75           2225         129.00       552.32
 1119.24        2956.00           2229         114.00       486.93
 1119.27        2956.25           2232         121.00       517.45
 1119.31        2956.50           2236         112.00       478.21
 1119.34        2956.75           2239         113.00       482.57
 1119.37        2957.00           2243         138.00       591.56
 1119.40        2957.25           2246         144.00       617.71
 1119.43        2957.50           2250         132.00       565.40
 1119.46        2957.75           2254         139.00       595.91
 1119.49        2958.00           2257         124.00       530.52
 1119.52        2958.25           2261         158.00       678.74
 1119.55        2958.50           2264         139.00       595.91
 1119.58        2958.75           2268         173.00       744.13
 1119.61        2959.00           2271         126.00       539.24
 1119.64        2959.25           2275         160.00       687.46
 1119.67        2959.50           2278         130.00       556.68
 1119.70        2959.75           2282         149.00       639.51
 1119.73        2960.00           2285         146.00       626.43
 1119.76        2960.25           2289         142.00       608.99
 1119.79        2960.50           2293         156.00       670.02
 1119.83        2960.75           2296         151.00       648.23
 1119.86        2961.00           2300         251.00      1084.17
 1119.89        2961.25           2303         577.00      2505.44
 1119.92        2961.50           2307        1799.00      7834.26
 1119.95        2961.75           2310        3088.00     13457.33
 1119.98        2962.00           2314        5110.00     22282.35
 1120.01        2962.25           2317        6610.00     28832.52
 1120.04        2962.50           2321        8697.00     37950.86
 1120.07        2962.75           2324       10063.00     43922.13
 1120.10        2963.00           2328       12339.00     53876.72
 1120.13        2963.25           2331       14075.00     61474.05
 1120.16        2963.50           2335       16525.00     72202.75
 1120.19        2963.75           2339       18516.00     80927.25
 1120.22        2964.00           2342       19892.00     86959.88
 1120.25        2964.25           2346       22123.00     96746.22
 1120.28        2964.50           2349       23645.00    103426.30
 1120.31        2964.75           2353       26061.00    114036.30
 1120.35        2965.00           2356       27595.00    120777.00
 1120.38        2965.25           2360       29554.00    129389.70
 1120.41        2965.50           2363       31068.00    136049.40
 1120.44        2965.75           2367       33342.00    146057.90
 1120.47        2966.00           2370       34659.00    151857.50
 1120.50        2966.25           2374       36758.00    161105.40
 1120.53        2966.50           2378       37525.00    164486.20
 1120.56        2966.75           2381       37652.00    165046.10
 1120.59        2967.00           2385       37292.00    163459.10
 1120.62        2967.25           2388       37539.00    164547.90
 1120.65        2967.50           2392       37291.00    163454.70
 1120.68        2967.75           2395       37345.00    163692.70
 1120.71        2968.00           2399       36154.00    158443.70
 1120.74        2968.25           2402       34706.00    152064.50
 1120.77        2968.50           2406       32566.00    142641.70
 1120.80        2968.75           2409       31018.00    135829.40
 1120.83        2969.00           2413       28971.00    126826.00
 1120.86        2969.25           2417       26988.00    118109.40
 1120.90        2969.50           2420       25502.00    111580.80
 1120.93        2969.75           2424       23108.00    101069.00
 1120.96        2970.00           2427       21124.00     92363.28
 1120.99        2970.25           2431       18713.00     81790.78
 1121.02        2970.50           2434       17218.00     75238.87
 1121.05        2970.75           2438       15019.00     65606.96
 1121.08        2971.00           2441       13134.00     57355.42
 1121.11        2971.25           2445       10985.00     47953.89
 1121.14        2971.50           2449        8842.00     38584.59
 1121.17        2971.75           2452        7115.00     31038.41
 1121.21        2972.00           2456        5042.00     21985.48
 1121.24        2972.25           2459        3533.00     15399.08
 1121.27        2972.50           2463        1686.00      7341.41
 1121.30        2972.75           2466         838.00      3643.43
 1121.33        2973.00           2470         297.00      1284.71
 1121.36        2973.25           2473         180.00       774.65
 1121.39        2973.50           2477         167.00       717.98
 1121.42        2973.75           2481         146.00       626.43
 1121.45        2974.00           2484         142.00       608.99
 1121.48        2974.25           2488         149.00       639.51
 1121.51        2974.50           2491         166.00       713.62
 1121.54        2974.75           2495         150.00       643.87
 1121.58        2975.00           2498         148.00       635.15
 1121.61        2975.25           2502         165.00       709.26
 1121.64        2975.50           2505         155.00       665.66
 1121.67        2975.75           2509         126.00       539.24
 1121.70        2976.00           2512         142.00       608.99
 1121.73        2976.25           2516         163.00       700.54
 1121.76        2976.50           2520         138.00       591.56
 1121.79        2976.75           2523         140.00       600.27
 1121.82        2977.00           2527         116.00       495.65
 1121.85        2977.25           2530         135.00       578.48
 1121.88        2977.50           2534         125.00       534.88
 1121.91        2977.75           2537         151.00       648.23
 1121.94        2978.00           2541         108.00       460.77
 1121.97        2978.25           2544         120.00       513.09
 1122.00        2978.50           2548         111.00       473.85
 1122.03        2978.75           2552         118.00       504.37
 1122.06        2979.00           2555         127.00       543.60
 1122.10        2979.25           2559         106.00       452.06
 1122.13        2979.50           2562         103.00       438.98
 1122.16        2979.75           2566         119.00       508.73
 1122.19        2980.00           2569         109.00       465.13
 1122.22        2980.25           2573         106.00       452.06
 1122.25        2980.50           2577          97.00       412.82
 1122.28        2980.75           2580         145.00       622.07
 1122.31        2981.00           2584         126.00       539.24
 1122.34        2981.25           2587         109.00       465.13
 1122.37        2981.50           2591         106.00       452.06
 1122.40        2981.75           2594         101.00       430.26
 1122.43        2982.00           2598         100.00       425.90
 1122.46        2982.25           2601         114.00       486.93
 1122.49        2982.50           2605         109.00       465.13
 1122.52        2982.75           2609          99.00       421.54
 1122.55        2983.00           2612          91.00       386.67
 1122.58        2983.25           2616         100.00       425.90
 1122.61        2983.50           2619          98.00       417.18
 1122.65        2983.75           2623         107.00       456.42
 1122.68        2984.00           2626          95.00       404.10
HS scan finished at 18:42:54
end
