************************************************************
  HS Scan of (1) Internal mercury lamp
************************************************************
Integration time is 0.2294 seconds per sample
dh300918Reading 51.44 .94 2.7pr1000
************************************************************
Dead Time -------------------------  3.4E-08 
Number of Cycles Used -------------  4 
Starting Wavelength (Angstroms) ---  2950 
Final Wavelength (Angstoms) -------  2984 
Wavelength Increment (Angstroms) --  .25 
Filter Wheel #1 Position ---------- (1) Ground quartz diffuser (ND=2.32)
Filter Wheel #2 Position ---------- (1) Neutral Density 0.494



************************************************************
HS scan start time = 03:10:29
Dark Count =  .3 


Time (GMT)  Wavelength (Ang)  Step Number  Raw Counts  Counts/Second

  191.38        2950.00           2144          91.00       395.38
  191.58        2950.25           2147          98.00       425.90
  191.61        2950.50           2151         119.00       517.45
  191.64        2950.75           2155         122.00       530.52
  191.67        2951.00           2158         102.00       443.34
  191.70        2951.25           2162          92.00       399.74
  191.73        2951.50           2165          97.00       421.54
  191.76        2951.75           2169          99.00       430.26
  191.79        2952.00           2172          97.00       421.54
  191.82        2952.25           2176          98.00       425.90
  191.85        2952.50           2179          99.00       430.26
  191.88        2952.75           2183         112.00       486.93
  191.91        2953.00           2186         103.00       447.70
  191.94        2953.25           2190         108.00       469.49
  191.97        2953.50           2193         106.00       460.77
  192.00        2953.75           2197         104.00       452.06
  192.04        2954.00           2200         101.00       438.98
  192.07        2954.25           2204         108.00       469.49
  192.10        2954.50           2208         112.00       486.93
  192.13        2954.75           2211         112.00       486.93
  192.16        2955.00           2215         104.00       452.06
  192.19        2955.25           2218         105.00       456.42
  192.22        2955.50           2222         115.00       500.01
  192.25        2955.75           2225         129.00       561.04
  192.28        2956.00           2229         127.00       552.32
  192.32        2956.25           2232         147.00       639.51
  192.35        2956.50           2236         124.00       539.24
  192.38        2956.75           2239         121.00       526.16
  192.41        2957.00           2243         108.00       469.49
  192.44        2957.25           2246         115.00       500.01
  192.47        2957.50           2250         114.00       495.65
  192.50        2957.75           2254         121.00       526.16
  192.53        2958.00           2257         169.00       735.42
  192.56        2958.25           2261         152.00       661.31
  192.59        2958.50           2264         142.00       617.71
  192.62        2958.75           2268         131.00       569.76
  192.65        2959.00           2271         147.00       639.51
  192.68        2959.25           2275         175.00       761.57
  192.72        2959.50           2278         134.00       582.84
  192.75        2959.75           2282         144.00       626.43
  192.78        2960.00           2285         147.00       639.51
  192.81        2960.25           2289         138.00       600.27
  192.84        2960.50           2293         141.00       613.35
  192.87        2960.75           2296         149.00       648.23
  192.90        2961.00           2300         173.00       752.85
  192.93        2961.25           2303         336.00      1463.46
  192.96        2961.50           2307        1166.00      5082.40
  192.99        2961.75           2310        2381.00     10381.61
  193.02        2962.00           2314        4257.00     18567.52
  193.05        2962.25           2317        5687.00     24810.37
  193.08        2962.50           2321        7716.00     33672.79
  193.11        2962.75           2324        9236.00     40315.47
  193.14        2963.00           2328       11531.00     50350.73
  193.17        2963.25           2331       13341.00     58270.09
  193.20        2963.50           2335       15354.00     67082.65
  193.24        2963.75           2339       17301.00     75611.31
  193.27        2964.00           2342       18936.00     82777.10
  193.30        2964.25           2346       21470.00     93889.91
  193.33        2964.50           2349       23189.00    101433.30
  193.36        2964.75           2353       25444.00    111334.80
  193.39        2965.00           2356       26867.00    117586.40
  193.42        2965.25           2360       28872.00    126399.50
  193.45        2965.50           2363       30107.00    131830.60
  193.48        2965.75           2367       32386.00    141858.20
  193.51        2966.00           2370       34027.00    149082.90
  193.54        2966.25           2374       35769.00    156756.10
  193.57        2966.50           2378       37201.00    163066.80
  193.60        2966.75           2381       37755.00    165509.00
  193.63        2967.00           2385       37594.00    164799.20
  193.66        2967.25           2388       37553.00    164618.50
  193.69        2967.50           2392       37787.00    165650.10
  193.72        2967.75           2395       37391.00    163904.30
  193.75        2968.00           2399       36807.00    161330.20
  193.79        2968.25           2402       35481.00    155487.20
  193.82        2968.50           2406       33201.00    145445.90
  193.85        2968.75           2409       31861.00    139547.60
  193.88        2969.00           2413       29927.00    131038.90
  193.91        2969.25           2417       27816.00    121757.20
  193.94        2969.50           2420       26302.00    115103.90
  193.97        2969.75           2424       24163.00    105709.20
  194.00        2970.00           2427       22166.00     96943.68
  194.03        2970.25           2431       19531.00     85385.71
  194.06        2970.50           2434       18028.00     78797.13
  194.09        2970.75           2438       15497.00     67708.88
  194.12        2971.00           2441       13890.00     60672.99
  194.15        2971.25           2445       11736.00     51247.46
  194.18        2971.50           2449        9340.00     40770.08
  194.21        2971.75           2452        7604.00     33183.45
  194.24        2972.00           2456        5501.00     23998.21
  194.27        2972.25           2459        4025.00     17554.94
  194.31        2972.50           2463        2131.00      9291.08
  194.34        2972.75           2466        1136.00      4951.57
  194.37        2973.00           2470         361.00      1572.45
  194.40        2973.25           2473         198.00       861.84
  194.43        2973.50           2477         163.00       709.26
  194.46        2973.75           2481         153.00       665.66
  194.49        2974.00           2484         142.00       617.71
  194.52        2974.25           2488         153.00       665.66
  194.55        2974.50           2491         136.00       591.56
  194.58        2974.75           2495         152.00       661.31
  194.61        2975.00           2498         121.00       526.16
  194.64        2975.25           2502         136.00       591.56
  194.67        2975.50           2505         127.00       552.32
  194.70        2975.75           2509         127.00       552.32
  194.73        2976.00           2512         163.00       709.26
  194.76        2976.25           2516         129.00       561.04
  194.79        2976.50           2520         120.00       521.81
  194.83        2976.75           2523         125.00       543.60
  194.86        2977.00           2527         131.00       569.76
  194.89        2977.25           2530         110.00       478.21
  194.92        2977.50           2534         138.00       600.27
  194.95        2977.75           2537         129.00       561.04
  194.98        2978.00           2541         128.00       556.68
  195.01        2978.25           2544         127.00       552.32
  195.04        2978.50           2548         103.00       447.70
  195.07        2978.75           2552         122.00       530.52
  195.10        2979.00           2555         123.00       534.88
  195.13        2979.25           2559          98.00       425.90
  195.16        2979.50           2562         125.00       543.60
  195.19        2979.75           2566         100.00       434.62
  195.22        2980.00           2569         126.00       547.96
  195.25        2980.25           2573         103.00       447.70
  195.28        2980.50           2577         119.00       517.45
  195.31        2980.75           2580         107.00       465.13
  195.35        2981.00           2584          99.00       430.26
  195.38        2981.25           2587         112.00       486.93
  195.41        2981.50           2591          99.00       430.26
  195.44        2981.75           2594          93.00       404.10
  195.47        2982.00           2598          99.00       430.26
  195.50        2982.25           2601          85.00       369.23
  195.53        2982.50           2605         119.00       517.45
  195.56        2982.75           2609          93.00       404.10
  195.60        2983.00           2612         111.00       482.57
  195.63        2983.25           2616          97.00       421.54
  195.66        2983.50           2619          91.00       395.38
  195.69        2983.75           2623         120.00       521.81
  195.72        2984.00           2626          95.00       412.82
HS scan finished at 03:15:56
end
************************************************************
  HS Scan of (1) Internal mercury lamp
************************************************************
Integration time is 0.2294 seconds per sample
dh300918Reading 51.44 .94 3.27pr1000
************************************************************
Dead Time -------------------------  3.4E-08 
Number of Cycles Used -------------  4 
Starting Wavelength (Angstroms) ---  2950 
Final Wavelength (Angstoms) -------  2984 
Wavelength Increment (Angstroms) --  .25 
Filter Wheel #1 Position ---------- (1) Ground quartz diffuser (ND=2.32)
Filter Wheel #2 Position ---------- (1) Neutral Density 0.494



************************************************************
HS scan start time = 18:37:26
Dark Count =  1.6 


Time (GMT)  Wavelength (Ang)  Step Number  Raw Counts  Counts/Second

 1118.33        2950.00           2144          50.00       210.99
 1118.53        2950.25           2147          48.00       202.27
 1118.56        2950.50           2151          40.00       167.39
 1118.59        2950.75           2155          47.00       197.91
 1118.62        2951.00           2158          67.00       285.09
 1118.65        2951.25           2162          59.00       250.22
 1118.68        2951.50           2165          49.00       206.63
 1118.71        2951.75           2169          47.00       197.91
 1118.74        2952.00           2172          49.00       206.63
 1118.77        2952.25           2176          46.00       193.55
 1118.80        2952.50           2179          47.00       197.91
 1118.83        2952.75           2183          41.00       171.75
 1118.86        2953.00           2186          44.00       184.83
 1118.89        2953.25           2190          67.00       285.09
 1118.93        2953.50           2193          46.00       193.55
 1118.96        2953.75           2197          45.00       189.19
 1118.99        2954.00           2200          46.00       193.55
 1119.02        2954.25           2204          45.00       189.19
 1119.05        2954.50           2208          51.00       215.35
 1119.08        2954.75           2211          51.00       215.35
 1119.11        2955.00           2215          49.00       206.63
 1119.14        2955.25           2218          47.00       197.91
 1119.17        2955.50           2222          48.00       202.27
 1119.20        2955.75           2225          49.00       206.63
 1119.24        2956.00           2229          52.00       219.71
 1119.27        2956.25           2232          47.00       197.91
 1119.30        2956.50           2236          52.00       219.71
 1119.33        2956.75           2239          55.00       232.78
 1119.36        2957.00           2243          43.00       180.47
 1119.39        2957.25           2246          50.00       210.99
 1119.42        2957.50           2250          46.00       193.55
 1119.45        2957.75           2254          47.00       197.91
 1119.48        2958.00           2257          50.00       210.99
 1119.51        2958.25           2261          77.00       328.69
 1119.54        2958.50           2264          80.00       341.77
 1119.57        2958.75           2268          84.00       359.20
 1119.60        2959.00           2271          85.00       363.56
 1119.63        2959.25           2275          78.00       333.05
 1119.66        2959.50           2278          76.00       324.33
 1119.69        2959.75           2282          87.00       372.28
 1119.72        2960.00           2285          91.00       389.72
 1119.76        2960.25           2289          86.00       367.92
 1119.79        2960.50           2293          88.00       376.64
 1119.82        2960.75           2296          94.00       402.80
 1119.85        2961.00           2300         126.00       542.29
 1119.88        2961.25           2303         185.00       799.50
 1119.91        2961.50           2307         635.00      2761.38
 1119.94        2961.75           2310        1294.00      5634.91
 1119.97        2962.00           2314        2501.00     10899.42
 1120.00        2962.25           2317        3576.00     15589.78
 1120.03        2962.50           2321        5124.00     22346.53
 1120.06        2962.75           2324        6171.00     26918.26
 1120.09        2963.00           2328        7436.00     32443.79
 1120.12        2963.25           2331        8458.00     36909.42
 1120.15        2963.50           2335        9922.00     43308.71
 1120.18        2963.75           2339       11384.00     49702.06
 1120.21        2964.00           2342       12466.00     54435.45
 1120.24        2964.25           2346       14082.00     61507.75
 1120.27        2964.50           2349       15239.00     66573.36
 1120.31        2964.75           2353       16919.00     73931.91
 1120.34        2965.00           2356       18018.00     78747.61
 1120.37        2965.25           2360       19342.00     84551.35
 1120.40        2965.50           2363       20240.00     88489.02
 1120.43        2965.75           2367       21545.00     94213.25
 1120.46        2966.00           2370       22622.00     98939.06
 1120.50        2966.25           2374       23917.00    104623.50
 1120.53        2966.50           2378       24729.00    108188.90
 1120.56        2966.75           2381       24857.00    108751.00
 1120.59        2967.00           2385       24747.00    108267.90
 1120.62        2967.25           2388       24922.00    109036.40
 1120.65        2967.50           2392       24869.00    108803.70
 1120.68        2967.75           2395       17629.00     77042.87
 1120.71        2968.00           2399       14903.00     65102.10
 1120.74        2968.25           2402       14191.00     61984.91
 1120.77        2968.50           2406       13348.00     58295.03
 1120.80        2968.75           2409       12552.00     54811.74
 1120.83        2969.00           2413       11646.00     50848.08
 1120.86        2969.25           2417       10815.00     47213.49
 1120.89        2969.50           2420       10167.00     44379.91
 1120.92        2969.75           2424        9177.00     40051.89
 1120.95        2970.00           2427        8562.00     37363.92
 1120.99        2970.25           2431        7602.00     33169.04
 1121.02        2970.50           2434        7008.00     30574.05
 1121.05        2970.75           2438        6043.00     26359.27
 1121.08        2971.00           2441        5461.00     23817.89
 1121.11        2971.25           2445        4693.00     20464.98
 1121.14        2971.50           2449        3686.00     16069.81
 1121.17        2971.75           2452        3083.00     13438.57
 1121.20        2972.00           2456        2220.00      9673.63
 1121.23        2972.25           2459        1670.00      7274.69
 1121.26        2972.50           2463         925.00      4025.83
 1121.29        2972.75           2466         493.00      2142.27
 1121.32        2973.00           2470         143.00       616.40
 1121.35        2973.25           2473          77.00       328.69
 1121.38        2973.50           2477          64.00       272.02
 1121.41        2973.75           2481          59.00       250.22
 1121.44        2974.00           2484          61.00       258.94
 1121.47        2974.25           2488          66.00       280.74
 1121.51        2974.50           2491          67.00       285.09
 1121.54        2974.75           2495          58.00       245.86
 1121.57        2975.00           2498          55.00       232.78
 1121.60        2975.25           2502          71.00       302.53
 1121.63        2975.50           2505          55.00       232.78
 1121.66        2975.75           2509          65.00       276.38
 1121.69        2976.00           2512          56.00       237.14
 1121.72        2976.25           2516          54.00       228.42
 1121.75        2976.50           2520          55.00       232.78
 1121.78        2976.75           2523          58.00       245.86
 1121.81        2977.00           2527          56.00       237.14
 1121.84        2977.25           2530          44.00       184.83
 1121.87        2977.50           2534          59.00       250.22
 1121.90        2977.75           2537          50.00       210.99
 1121.93        2978.00           2541          46.00       193.55
 1121.96        2978.25           2544          58.00       245.86
 1121.99        2978.50           2548          49.00       206.63
 1122.03        2978.75           2552          48.00       202.27
 1122.06        2979.00           2555          44.00       184.83
 1122.09        2979.25           2559          48.00       202.27
 1122.12        2979.50           2562          42.00       176.11
 1122.15        2979.75           2566          43.00       180.47
 1122.18        2980.00           2569          49.00       206.63
 1122.21        2980.25           2573          50.00       210.99
 1122.24        2980.50           2577          48.00       202.27
 1122.27        2980.75           2580          40.00       167.39
 1122.30        2981.00           2584          46.00       193.55
 1122.33        2981.25           2587          55.00       232.78
 1122.36        2981.50           2591          44.00       184.83
 1122.39        2981.75           2594          51.00       215.35
 1122.42        2982.00           2598          45.00       189.19
 1122.45        2982.25           2601          46.00       193.55
 1122.48        2982.50           2605          47.00       197.91
 1122.51        2982.75           2609          41.00       171.75
 1122.55        2983.00           2612          48.00       202.27
 1122.58        2983.25           2616          45.00       189.19
 1122.61        2983.50           2619          43.00       180.47
 1122.64        2983.75           2623          47.00       197.91
 1122.67        2984.00           2626          43.00       180.47
HS scan finished at 18:42:53
end
