************************************************************
  HS Scan of (1) Internal mercury lamp
************************************************************
Integration time is 0.2294 seconds per sample
dh280917Reading 51.44 .94 3.35pr1000
************************************************************
Dead Time -------------------------  3.4E-08 
Number of Cycles Used -------------  4 
Starting Wavelength (Angstroms) ---  2950 
Final Wavelength (Angstoms) -------  2984 
Wavelength Increment (Angstroms) --  .25 
Filter Wheel #1 Position ---------- (1) Ground quartz diffuser (ND=2.32)
Filter Wheel #2 Position ---------- (1) Neutral Density 0.494



************************************************************
HS scan start time = 03:06:00
Dark Count =  1.9 


Time (GMT)  Wavelength (Ang)  Step Number  Raw Counts  Counts/Second

  186.90        2950.00           2144          94.00       401.49
  187.09        2950.25           2147          92.00       392.77
  187.12        2950.50           2151         103.00       440.72
  187.15        2950.75           2155         117.00       501.75
  187.18        2951.00           2158         115.00       493.03
  187.21        2951.25           2162         120.00       514.83
  187.24        2951.50           2165         115.00       493.03
  187.27        2951.75           2169         100.00       427.64
  187.31        2952.00           2172         105.00       449.44
  187.34        2952.25           2176          93.00       397.13
  187.37        2952.50           2179          93.00       397.13
  187.40        2952.75           2183         137.00       588.94
  187.43        2953.00           2186         102.00       436.36
  187.46        2953.25           2190         123.00       527.91
  187.49        2953.50           2193          97.00       414.57
  187.52        2953.75           2197         104.00       445.08
  187.55        2954.00           2200         116.00       497.39
  187.58        2954.25           2204          99.00       423.28
  187.61        2954.50           2208          99.00       423.28
  187.64        2954.75           2211         104.00       445.08
  187.67        2955.00           2215         102.00       436.36
  187.70        2955.25           2218         108.00       462.52
  187.73        2955.50           2222         128.00       549.71
  187.76        2955.75           2225         102.00       436.36
  187.79        2956.00           2229         102.00       436.36
  187.83        2956.25           2232         104.00       445.08
  187.86        2956.50           2236         127.00       545.35
  187.89        2956.75           2239         102.00       436.36
  187.92        2957.00           2243         114.00       488.67
  187.95        2957.25           2246         110.00       471.24
  187.98        2957.50           2250         134.00       575.86
  188.01        2957.75           2254         121.00       519.19
  188.04        2958.00           2257         113.00       484.31
  188.07        2958.25           2261         118.00       506.11
  188.10        2958.50           2264         108.00       462.52
  188.13        2958.75           2268         144.00       619.46
  188.16        2959.00           2271         141.00       606.38
  188.19        2959.25           2275         146.00       628.17
  188.22        2959.50           2278         163.00       702.28
  188.25        2959.75           2282         151.00       649.97
  188.28        2960.00           2285         144.00       619.46
  188.31        2960.25           2289         160.00       689.21
  188.35        2960.50           2293         154.00       663.05
  188.38        2960.75           2296         150.00       645.61
  188.41        2961.00           2300         190.00       819.99
  188.44        2961.25           2303         452.00      1962.21
  188.47        2961.50           2307        1595.00      6946.28
  188.50        2961.75           2310        2877.00     12538.48
  188.53        2962.00           2314        4703.00     20507.32
  188.56        2962.25           2317        6126.00     26720.43
  188.59        2962.50           2321        8068.00     35203.84
  188.62        2962.75           2324        9874.00     43097.55
  188.65        2963.00           2328       12208.00     53305.33
  188.68        2963.25           2331       13803.00     60285.17
  188.71        2963.50           2335       15784.00     68958.79
  188.74        2963.75           2339       17979.00     78575.38
  188.77        2964.00           2342       19524.00     85348.01
  188.80        2964.25           2346       21810.00     95374.60
  188.83        2964.50           2349       23417.00    102427.10
  188.87        2964.75           2353       25229.00    110383.40
  188.90        2965.00           2356       26888.00    117671.70
  188.93        2965.25           2360       28848.00    126286.90
  188.96        2965.50           2363       30172.00    132109.50
  188.99        2965.75           2367       32152.00    140821.30
  189.02        2966.00           2370       33530.00    146887.40
  189.05        2966.25           2374       35385.00    155057.30
  189.08        2966.50           2378       36356.00    159335.60
  189.11        2966.75           2381       36106.00    158233.90
  189.14        2967.00           2385       36260.00    158912.60
  189.17        2967.25           2388       36051.00    157991.60
  189.20        2967.50           2392       36059.00    158026.90
  189.23        2967.75           2395       35821.00    156978.20
  189.26        2968.00           2399       34581.00    151515.70
  189.29        2968.25           2402       33075.00    144884.20
  189.32        2968.50           2406       31255.00    136873.90
  189.35        2968.75           2409       30015.00    131418.90
  189.39        2969.00           2413       28189.00    123389.70
  189.42        2969.25           2417       26137.00    114372.00
  189.45        2969.50           2420       24388.00    106690.20
  189.48        2969.75           2424       22272.00     97401.80
  189.51        2970.00           2427       20769.00     90807.84
  189.54        2970.25           2431       18479.00     80766.82
  189.57        2970.50           2434       17142.00     74907.63
  189.60        2970.75           2438       14801.00     64654.17
  189.63        2971.00           2441       13143.00     57396.56
  189.66        2971.25           2445       10866.00     47435.21
  189.69        2971.50           2449        8501.00     37096.02
  189.72        2971.75           2452        6955.00     30341.22
  189.75        2972.00           2456        4932.00     21507.01
  189.78        2972.25           2459        4085.00     17809.82
  189.81        2972.50           2463        1968.00      8573.12
  189.84        2972.75           2466         942.00      4098.65
  189.87        2973.00           2470         326.00      1412.88
  189.91        2973.25           2473         203.00       876.66
  189.94        2973.50           2477         178.00       767.67
  189.97        2973.75           2481         165.00       711.00
  190.00        2974.00           2484         167.00       719.72
  190.03        2974.25           2488         154.00       663.05
  190.06        2974.50           2491         152.00       654.33
  190.09        2974.75           2495         159.00       684.85
  190.12        2975.00           2498         150.00       645.61
  190.15        2975.25           2502         145.00       623.81
  190.18        2975.50           2505         140.00       602.02
  190.21        2975.75           2509         131.00       562.78
  190.24        2976.00           2512         147.00       632.53
  190.27        2976.25           2516         151.00       649.97
  190.30        2976.50           2520         140.00       602.02
  190.33        2976.75           2523         136.00       584.58
  190.36        2977.00           2527         148.00       636.89
  190.39        2977.25           2530         148.00       636.89
  190.42        2977.50           2534         146.00       628.17
  190.46        2977.75           2537         145.00       623.81
  190.49        2978.00           2541         131.00       562.78
  190.52        2978.25           2544         126.00       540.99
  190.55        2978.50           2548         118.00       506.11
  190.58        2978.75           2552         122.00       523.55
  190.61        2979.00           2555         160.00       689.21
  190.64        2979.25           2559         124.00       532.27
  190.67        2979.50           2562         151.00       649.97
  190.70        2979.75           2566         120.00       514.83
  190.73        2980.00           2569         151.00       649.97
  190.76        2980.25           2573         122.00       523.55
  190.79        2980.50           2577         114.00       488.67
  190.82        2980.75           2580         117.00       501.75
  190.85        2981.00           2584         109.00       466.88
  190.88        2981.25           2587         122.00       523.55
  190.91        2981.50           2591         126.00       540.99
  190.95        2981.75           2594         170.00       732.80
  190.98        2982.00           2598         165.00       711.00
  191.01        2982.25           2601         121.00       519.19
  191.04        2982.50           2605         146.00       628.17
  191.07        2982.75           2609         120.00       514.83
  191.10        2983.00           2612         139.00       597.66
  191.13        2983.25           2616         147.00       632.53
  191.16        2983.50           2619         123.00       527.91
  191.19        2983.75           2623         130.00       558.42
  191.22        2984.00           2626         110.00       471.24
HS scan finished at 03:11:27
end
************************************************************
  HS Scan of (1) Internal mercury lamp
************************************************************
Integration time is 0.2294 seconds per sample
dh280917Reading 51.44 .94 3.52pr1000
************************************************************
Dead Time -------------------------  3.4E-08 
Number of Cycles Used -------------  4 
Starting Wavelength (Angstroms) ---  2950 
Final Wavelength (Angstoms) -------  2984 
Wavelength Increment (Angstroms) --  .25 
Filter Wheel #1 Position ---------- (1) Ground quartz diffuser (ND=2.32)
Filter Wheel #2 Position ---------- (1) Neutral Density 0.494



************************************************************
HS scan start time = 18:37:28
Dark Count =  2.9 


Time (GMT)  Wavelength (Ang)  Step Number  Raw Counts  Counts/Second

 1118.37        2950.00           2144          72.00       301.22
 1118.56        2950.25           2147          70.00       292.51
 1118.59        2950.50           2151          70.00       292.51
 1118.62        2950.75           2155          72.00       301.22
 1118.65        2951.00           2158          70.00       292.51
 1118.68        2951.25           2162          73.00       305.58
 1118.71        2951.50           2165          71.00       296.86
 1118.74        2951.75           2169          75.00       314.30
 1118.77        2952.00           2172          70.00       292.51
 1118.80        2952.25           2176          73.00       305.58
 1118.83        2952.50           2179          68.00       283.79
 1118.87        2952.75           2183          78.00       327.38
 1118.90        2953.00           2186          73.00       305.58
 1118.93        2953.25           2190          77.00       323.02
 1118.96        2953.50           2193          69.00       288.15
 1118.99        2953.75           2197          72.00       301.22
 1119.02        2954.00           2200          71.00       296.86
 1119.05        2954.25           2204          68.00       283.79
 1119.08        2954.50           2208          73.00       305.58
 1119.11        2954.75           2211          78.00       327.38
 1119.14        2955.00           2215          77.00       323.02
 1119.17        2955.25           2218          74.00       309.94
 1119.20        2955.50           2222          81.00       340.46
 1119.23        2955.75           2225          77.00       323.02
 1119.26        2956.00           2229          73.00       305.58
 1119.29        2956.25           2232          74.00       309.94
 1119.32        2956.50           2236          82.00       344.82
 1119.35        2956.75           2239          87.00       366.61
 1119.39        2957.00           2243          79.00       331.74
 1119.42        2957.25           2246          88.00       370.97
 1119.45        2957.50           2250          78.00       327.38
 1119.48        2957.75           2254          90.00       379.69
 1119.51        2958.00           2257          88.00       370.97
 1119.54        2958.25           2261          84.00       353.54
 1119.57        2958.50           2264          95.00       401.49
 1119.60        2958.75           2268          95.00       401.49
 1119.63        2959.00           2271         103.00       436.36
 1119.66        2959.25           2275          95.00       401.49
 1119.69        2959.50           2278          88.00       370.97
 1119.72        2959.75           2282         118.00       501.75
 1119.75        2960.00           2285          88.00       370.97
 1119.78        2960.25           2289         101.00       427.64
 1119.81        2960.50           2293         121.00       514.83
 1119.84        2960.75           2296         102.00       432.00
 1119.87        2961.00           2300         157.00       671.77
 1119.91        2961.25           2303         169.00       724.08
 1119.94        2961.50           2307         612.00      2655.43
 1119.97        2961.75           2310        1477.00      6427.30
 1120.00        2962.00           2314        2814.00     12259.25
 1120.03        2962.25           2317        3864.00     16840.94
 1120.06        2962.50           2321        5377.00     23445.45
 1120.09        2962.75           2324        6522.00     28445.55
 1120.12        2963.00           2328        8255.00     36016.61
 1120.15        2963.25           2331        9476.00     41353.22
 1120.18        2963.50           2335       11245.00     49088.40
 1120.21        2963.75           2339       12902.00     56337.55
 1120.24        2964.00           2342       14167.00     61874.15
 1120.27        2964.25           2346       15698.00     68577.76
 1120.30        2964.50           2349       16862.00     73676.49
 1120.33        2964.75           2353       18358.00     80232.08
 1120.36        2965.00           2356       19285.00     84295.74
 1120.39        2965.25           2360       20891.00     91338.57
 1120.43        2965.50           2363       22085.00     96576.84
 1120.46        2965.75           2367       23765.00    103950.40
 1120.49        2966.00           2370       24883.00    108859.50
 1120.52        2966.25           2374       26172.00    114521.40
 1120.55        2966.50           2378       26872.00    117597.00
 1120.58        2966.75           2381       26956.00    117966.10
 1120.61        2967.00           2385       26947.00    117926.60
 1120.64        2967.25           2388       26922.00    117816.70
 1120.67        2967.50           2392       26837.00    117443.20
 1120.70        2967.75           2395       26828.00    117403.60
 1120.73        2968.00           2399       25982.00    113686.60
 1120.76        2968.25           2402       24949.00    109149.30
 1120.79        2968.50           2406       23567.00    103081.20
 1120.82        2968.75           2409       22451.00     98182.92
 1120.85        2969.00           2413       20752.00     90728.88
 1120.88        2969.25           2417       19263.00     84199.28
 1120.91        2969.50           2420       18043.00     78851.49
 1120.95        2969.75           2424       16391.00     71613.13
 1120.98        2970.00           2427       15273.00     66716.56
 1121.01        2970.25           2431       13659.00     59650.49
 1121.04        2970.50           2434       12619.00     55099.21
 1121.07        2970.75           2438       11044.00     48209.30
 1121.10        2971.00           2441        9634.00     42043.93
 1121.13        2971.25           2445        8032.00     35042.16
 1121.16        2971.50           2449        6685.00     29157.49
 1121.19        2971.75           2452        5526.00     24096.02
 1121.22        2972.00           2456        4000.00     17434.48
 1121.25        2972.25           2459        2862.00     12468.67
 1121.28        2972.50           2463        1463.00      6366.24
 1121.31        2972.75           2466         721.00      3130.67
 1121.34        2973.00           2470         205.00       881.02
 1121.37        2973.25           2473         154.00       658.69
 1121.40        2973.50           2477         136.00       580.22
 1121.43        2973.75           2481         105.00       445.08
 1121.47        2974.00           2484         103.00       436.36
 1121.50        2974.25           2488         110.00       466.88
 1121.53        2974.50           2491         100.00       423.28
 1121.56        2974.75           2495         138.00       588.94
 1121.59        2975.00           2498         104.00       440.72
 1121.62        2975.25           2502          95.00       401.49
 1121.65        2975.50           2505          92.00       388.41
 1121.68        2975.75           2509          93.00       392.77
 1121.71        2976.00           2512          87.00       366.61
 1121.74        2976.25           2516          82.00       344.82
 1121.77        2976.50           2520          84.00       353.54
 1121.80        2976.75           2523          86.00       362.25
 1121.83        2977.00           2527          82.00       344.82
 1121.86        2977.25           2530          94.00       397.13
 1121.89        2977.50           2534          93.00       392.77
 1121.92        2977.75           2537          84.00       353.54
 1121.95        2978.00           2541          84.00       353.54
 1121.99        2978.25           2544          80.00       336.10
 1122.02        2978.50           2548          77.00       323.02
 1122.05        2978.75           2552          81.00       340.46
 1122.08        2979.00           2555          76.00       318.66
 1122.11        2979.25           2559          80.00       336.10
 1122.14        2979.50           2562          67.00       279.43
 1122.17        2979.75           2566          79.00       331.74
 1122.20        2980.00           2569          78.00       327.38
 1122.23        2980.25           2573          76.00       318.66
 1122.26        2980.50           2577          76.00       318.66
 1122.29        2980.75           2580          72.00       301.22
 1122.32        2981.00           2584          81.00       340.46
 1122.35        2981.25           2587          70.00       292.51
 1122.38        2981.50           2591          76.00       318.66
 1122.41        2981.75           2594          73.00       305.58
 1122.44        2982.00           2598          69.00       288.15
 1122.47        2982.25           2601          71.00       296.86
 1122.51        2982.50           2605          75.00       314.30
 1122.54        2982.75           2609          75.00       314.30
 1122.57        2983.00           2612          70.00       292.51
 1122.60        2983.25           2616          71.00       296.86
 1122.63        2983.50           2619          70.00       292.51
 1122.66        2983.75           2623          71.00       296.86
 1122.69        2984.00           2626          76.00       318.66
HS scan finished at 18:42:55
end
