************************************************************
  HS Scan of (1) Internal mercury lamp
************************************************************
Integration time is 0.2294 seconds per sample
dh021017Reading 51.44 .94 3.27pr1000
************************************************************
Dead Time -------------------------  3.4E-08 
Number of Cycles Used -------------  4 
Starting Wavelength (Angstroms) ---  2950 
Final Wavelength (Angstoms) -------  2984 
Wavelength Increment (Angstroms) --  .25 
Filter Wheel #1 Position ---------- (1) Ground quartz diffuser (ND=2.32)
Filter Wheel #2 Position ---------- (1) Neutral Density 0.494



************************************************************
HS scan start time = 03:16:00
Dark Count =  1.4 


Time (GMT)  Wavelength (Ang)  Step Number  Raw Counts  Counts/Second

  196.89        2950.00           2144          89.00       381.87
  197.09        2950.25           2147          87.00       373.15
  197.12        2950.50           2151         104.00       447.26
  197.15        2950.75           2155         107.00       460.34
  197.18        2951.00           2158         114.00       490.85
  197.21        2951.25           2162         120.00       517.01
  197.24        2951.50           2165          94.00       403.67
  197.27        2951.75           2169         103.00       442.90
  197.30        2952.00           2172         100.00       429.82
  197.33        2952.25           2176          92.00       394.95
  197.36        2952.50           2179          84.00       360.07
  197.39        2952.75           2183         111.00       477.78
  197.42        2953.00           2186         109.00       469.06
  197.45        2953.25           2190         129.00       556.24
  197.48        2953.50           2193         109.00       469.06
  197.51        2953.75           2197         104.00       447.26
  197.55        2954.00           2200         131.00       564.96
  197.58        2954.25           2204         149.00       643.43
  197.61        2954.50           2208         115.00       495.21
  197.64        2954.75           2211         150.00       647.79
  197.67        2955.00           2215         120.00       517.01
  197.70        2955.25           2218         120.00       517.01
  197.73        2955.50           2222         136.00       586.76
  197.76        2955.75           2225         138.00       595.48
  197.79        2956.00           2229         129.00       556.24
  197.82        2956.25           2232         130.00       560.60
  197.85        2956.50           2236         119.00       512.65
  197.88        2956.75           2239         105.00       451.62
  197.91        2957.00           2243         139.00       599.84
  197.94        2957.25           2246         104.00       447.26
  197.97        2957.50           2250         120.00       517.01
  198.00        2957.75           2254         143.00       617.28
  198.03        2958.00           2257         141.00       608.56
  198.06        2958.25           2261         140.00       604.20
  198.10        2958.50           2264         156.00       673.95
  198.13        2958.75           2268         157.00       678.31
  198.16        2959.00           2271         139.00       599.84
  198.19        2959.25           2275         143.00       617.28
  198.22        2959.50           2278         152.00       656.51
  198.25        2959.75           2282         150.00       647.79
  198.28        2960.00           2285         152.00       656.51
  198.31        2960.25           2289         150.00       647.79
  198.34        2960.50           2293         150.00       647.79
  198.37        2960.75           2296         172.00       743.70
  198.40        2961.00           2300         188.00       813.45
  198.43        2961.25           2303         339.00      1471.74
  198.46        2961.50           2307        1227.00      5343.60
  198.49        2961.75           2310        2422.00     10555.66
  198.52        2962.00           2314        4480.00     19536.08
  198.55        2962.25           2317        6191.00     27006.48
  198.58        2962.50           2321        8671.00     37841.16
  198.62        2962.75           2324       10587.00     46217.30
  198.65        2963.00           2328       13103.00     57223.70
  198.68        2963.25           2331       14910.00     65133.63
  198.71        2963.50           2335       17613.00     76973.65
  198.74        2963.75           2339       20423.00     89292.47
  198.77        2964.00           2342       22352.00     97755.05
  198.80        2964.25           2346       24837.00    108664.00
  198.83        2964.50           2349       26889.00    117678.30
  198.86        2964.75           2353       29554.00    129393.60
  198.89        2965.00           2356       31757.00    139085.10
  198.92        2965.25           2360       34395.00    150698.70
  198.95        2965.50           2363       35886.00    157266.80
  198.98        2965.75           2367       38137.00    167188.30
  199.01        2966.00           2370       39844.00    174716.60
  199.04        2966.25           2374       41810.00    183391.90
  199.07        2966.50           2378       42922.00    188301.10
  199.10        2966.75           2381       43257.00    189780.40
  199.14        2967.00           2385       43309.00    190010.00
  199.17        2967.25           2388       43368.00    190270.50
  199.20        2967.50           2392       43261.00    189798.00
  199.23        2967.75           2395       42878.00    188106.80
  199.26        2968.00           2399       41318.00    181220.40
  199.29        2968.25           2402       39846.00    174725.40
  199.32        2968.50           2406       37458.00    164194.80
  199.35        2968.75           2409       35786.00    156826.20
  199.38        2969.00           2413       33192.00    145401.40
  199.41        2969.25           2417       30964.00    135595.80
  199.44        2969.50           2420       29278.00    128179.90
  199.47        2969.75           2424       26821.00    117379.50
  199.50        2970.00           2427       24930.00    109072.50
  199.53        2970.25           2431       21898.00     95762.91
  199.56        2970.50           2434       19928.00     87121.68
  199.59        2970.75           2438       17151.00     74949.25
  199.62        2971.00           2441       15455.00     67520.13
  199.66        2971.25           2445       12966.00     56624.17
  199.69        2971.50           2449       10327.00     45080.38
  199.72        2971.75           2452        8302.00     36228.56
  199.75        2972.00           2456        5948.00     25945.29
  199.78        2972.25           2459        4145.00     18073.88
  199.81        2972.50           2463        2065.00      8998.39
  199.84        2972.75           2466        1011.00      4401.71
  199.87        2973.00           2470         325.00      1410.70
  199.90        2973.25           2473         198.00       857.04
  199.93        2973.50           2477         171.00       739.34
  199.96        2973.75           2481         170.00       734.98
  199.99        2974.00           2484         161.00       695.74
  200.02        2974.25           2488         166.00       717.54
  200.05        2974.50           2491         167.00       721.90
  200.08        2974.75           2495         159.00       687.03
  200.11        2975.00           2498         164.00       708.82
  200.14        2975.25           2502         141.00       608.56
  200.18        2975.50           2505         150.00       647.79
  200.21        2975.75           2509         163.00       704.46
  200.24        2976.00           2512         147.00       634.71
  200.27        2976.25           2516         145.00       625.99
  200.30        2976.50           2520         169.00       730.62
  200.33        2976.75           2523         142.00       612.92
  200.36        2977.00           2527         146.00       630.35
  200.39        2977.25           2530         150.00       647.79
  200.42        2977.50           2534         128.00       551.88
  200.45        2977.75           2537         132.00       569.32
  200.48        2978.00           2541         158.00       682.67
  200.51        2978.25           2544         122.00       525.73
  200.54        2978.50           2548         119.00       512.65
  200.57        2978.75           2552         163.00       704.46
  200.60        2979.00           2555         125.00       538.81
  200.63        2979.25           2559         124.00       534.45
  200.66        2979.50           2562         132.00       569.32
  200.70        2979.75           2566         129.00       556.24
  200.73        2980.00           2569         142.00       612.92
  200.76        2980.25           2573         185.00       800.37
  200.79        2980.50           2577         119.00       512.65
  200.82        2980.75           2580         138.00       595.48
  200.85        2981.00           2584         133.00       573.68
  200.88        2981.25           2587         106.00       455.98
  200.91        2981.50           2591         105.00       451.62
  200.94        2981.75           2594         102.00       438.54
  200.97        2982.00           2598         107.00       460.34
  201.00        2982.25           2601         129.00       556.24
  201.03        2982.50           2605         125.00       538.81
  201.06        2982.75           2609         144.00       621.63
  201.09        2983.00           2612         126.00       543.17
  201.12        2983.25           2616         124.00       534.45
  201.15        2983.50           2619         122.00       525.73
  201.18        2983.75           2623         105.00       451.62
  201.21        2984.00           2626         117.00       503.93
HS scan finished at 03:21:26
end
************************************************************
  HS Scan of (1) Internal mercury lamp
************************************************************
Integration time is 0.2294 seconds per sample
dh021017Reading 51.44 .94 3.33pr1000
************************************************************
Dead Time -------------------------  3.4E-08 
Number of Cycles Used -------------  4 
Starting Wavelength (Angstroms) ---  2950 
Final Wavelength (Angstoms) -------  2984 
Wavelength Increment (Angstroms) --  .25 
Filter Wheel #1 Position ---------- (1) Ground quartz diffuser (ND=2.32)
Filter Wheel #2 Position ---------- (1) Neutral Density 0.494



************************************************************
HS scan start time = 18:37:29
Dark Count =  1.6 


Time (GMT)  Wavelength (Ang)  Step Number  Raw Counts  Counts/Second

 1118.38        2950.00           2144          90.00       385.36
 1118.57        2950.25           2147          85.00       363.56
 1118.60        2950.50           2151          87.00       372.28
 1118.63        2950.75           2155          79.00       337.41
 1118.66        2951.00           2158          80.00       341.77
 1118.69        2951.25           2162          89.00       381.00
 1118.73        2951.50           2165          86.00       367.92
 1118.76        2951.75           2169          84.00       359.20
 1118.79        2952.00           2172         100.00       428.95
 1118.82        2952.25           2176          97.00       415.87
 1118.85        2952.50           2179         135.00       581.53
 1118.88        2952.75           2183          99.00       424.59
 1118.91        2953.00           2186         119.00       511.78
 1118.94        2953.25           2190         124.00       533.58
 1118.97        2953.50           2193         107.00       459.47
 1119.00        2953.75           2197         107.00       459.47
 1119.03        2954.00           2200         121.00       520.50
 1119.06        2954.25           2204         106.00       455.11
 1119.09        2954.50           2208         107.00       459.47
 1119.12        2954.75           2211         124.00       533.58
 1119.15        2955.00           2215         125.00       537.93
 1119.18        2955.25           2218         138.00       594.61
 1119.21        2955.50           2222         116.00       498.70
 1119.25        2955.75           2225         125.00       537.93
 1119.28        2956.00           2229         131.00       564.09
 1119.31        2956.25           2232         138.00       594.61
 1119.34        2956.50           2236         120.00       516.14
 1119.37        2956.75           2239         141.00       607.68
 1119.40        2957.00           2243         125.00       537.93
 1119.43        2957.25           2246         131.00       564.09
 1119.46        2957.50           2250         135.00       581.53
 1119.49        2957.75           2254         159.00       686.15
 1119.52        2958.00           2257         137.00       590.25
 1119.55        2958.25           2261         155.00       668.72
 1119.58        2958.50           2264         145.00       625.12
 1119.61        2958.75           2268         138.00       594.61
 1119.64        2959.00           2271         127.00       546.65
 1119.67        2959.25           2275         163.00       703.59
 1119.70        2959.50           2278         161.00       694.87
 1119.73        2959.75           2282         155.00       668.72
 1119.77        2960.00           2285         171.00       738.47
 1119.80        2960.25           2289         148.00       638.20
 1119.83        2960.50           2293         151.00       651.28
 1119.86        2960.75           2296         156.00       673.08
 1119.89        2961.00           2300         213.00       921.56
 1119.92        2961.25           2303         440.00      1911.20
 1119.95        2961.50           2307        1494.00      6507.11
 1119.98        2961.75           2310        2713.00     11824.28
 1120.01        2962.00           2314        4763.00     20770.55
 1120.04        2962.25           2317        6351.00     27704.37
 1120.07        2962.50           2321        8593.00     37499.40
 1120.10        2962.75           2324       10357.00     45210.69
 1120.13        2963.00           2328       12560.00     54846.74
 1120.16        2963.25           2331       14106.00     61612.81
 1120.19        2963.50           2335       16439.00     71829.10
 1120.22        2963.75           2339       18898.00     82604.82
 1120.25        2964.00           2342       20639.00     90238.96
 1120.29        2964.25           2346       22954.00    100396.20
 1120.32        2964.50           2349       24259.00    106125.10
 1120.35        2964.75           2353       26656.00    116653.60
 1120.38        2965.00           2356       28002.00    122569.00
 1120.41        2965.25           2360       30481.00    133470.10
 1120.44        2965.50           2363       32327.00    141592.80
 1120.47        2965.75           2367       34355.00    150521.60
 1120.50        2966.00           2370       35828.00    157010.30
 1120.53        2966.25           2374       37627.00    164938.90
 1120.56        2966.50           2378       38367.00    168201.60
 1120.59        2966.75           2381       38829.00    170238.80
 1120.62        2967.00           2385       38821.00    170203.60
 1120.65        2967.25           2388       38615.00    169295.10
 1120.68        2967.50           2392       38838.00    170278.50
 1120.71        2967.75           2395       38628.00    169352.50
 1120.74        2968.00           2399       37030.00    162307.40
 1120.77        2968.25           2402       35594.00    155979.30
 1120.81        2968.50           2406       33969.00    148821.70
 1120.84        2968.75           2409       32440.00    142090.20
 1120.87        2969.00           2413       30294.00    132647.50
 1120.90        2969.25           2417       27712.00    121294.30
 1120.93        2969.50           2420       26282.00    115010.30
 1120.96        2969.75           2424       24001.00    104992.30
 1120.99        2970.00           2427       22321.00     97618.14
 1121.02        2970.25           2431       20036.00     87594.41
 1121.05        2970.50           2434       18389.00     80373.66
 1121.08        2970.75           2438       16090.00     70300.36
 1121.11        2971.00           2441       14255.00     62265.08
 1121.14        2971.25           2445       11849.00     51736.09
 1121.17        2971.50           2449        9687.00     42281.32
 1121.20        2971.75           2452        8005.00     34929.86
 1121.23        2972.00           2456        5839.00     25468.43
 1121.26        2972.25           2459        4213.00     18369.80
 1121.29        2972.50           2463        2297.00     10009.51
 1121.32        2972.75           2466        1056.00      4597.06
 1121.36        2973.00           2470         304.00      1318.28
 1121.39        2973.25           2473         178.00       768.98
 1121.42        2973.50           2477         177.00       764.62
 1121.45        2973.75           2481         164.00       707.95
 1121.48        2974.00           2484         159.00       686.15
 1121.51        2974.25           2488         163.00       703.59
 1121.54        2974.50           2491         150.00       646.92
 1121.57        2974.75           2495         148.00       638.20
 1121.60        2975.00           2498         131.00       564.09
 1121.63        2975.25           2502         148.00       638.20
 1121.66        2975.50           2505         126.00       542.29
 1121.69        2975.75           2509         158.00       681.79
 1121.72        2976.00           2512         136.00       585.89
 1121.75        2976.25           2516         148.00       638.20
 1121.78        2976.50           2520         124.00       533.58
 1121.81        2976.75           2523         131.00       564.09
 1121.84        2977.00           2527         154.00       664.36
 1121.88        2977.25           2530         174.00       751.54
 1121.91        2977.50           2534         152.00       655.64
 1121.94        2977.75           2537         140.00       603.33
 1121.97        2978.00           2541         113.00       485.62
 1122.00        2978.25           2544         116.00       498.70
 1122.03        2978.50           2548         149.00       642.56
 1122.06        2978.75           2552         109.00       468.19
 1122.09        2979.00           2555         111.00       476.90
 1122.12        2979.25           2559         107.00       459.47
 1122.15        2979.50           2562         154.00       664.36
 1122.18        2979.75           2566         105.00       450.75
 1122.21        2980.00           2569         106.00       455.11
 1122.24        2980.25           2573          96.00       411.51
 1122.27        2980.50           2577         125.00       537.93
 1122.30        2980.75           2580         125.00       537.93
 1122.33        2981.00           2584         124.00       533.58
 1122.36        2981.25           2587         106.00       455.11
 1122.40        2981.50           2591         113.00       485.62
 1122.43        2981.75           2594          99.00       424.59
 1122.46        2982.00           2598         136.00       585.89
 1122.49        2982.25           2601         106.00       455.11
 1122.52        2982.50           2605         123.00       529.22
 1122.55        2982.75           2609         130.00       559.73
 1122.58        2983.00           2612         103.00       442.03
 1122.61        2983.25           2616         119.00       511.78
 1122.64        2983.50           2619          98.00       420.23
 1122.67        2983.75           2623         121.00       520.50
 1122.70        2984.00           2626          97.00       415.87
HS scan finished at 18:42:55
end
