************************************************************
  HS Scan of (1) Internal mercury lamp
************************************************************
Integration time is 0.2294 seconds per sample
dh041018Reading 51.44 .94 3.19pr1000
************************************************************
Dead Time -------------------------  3.4E-08 
Number of Cycles Used -------------  4 
Starting Wavelength (Angstroms) ---  2950 
Final Wavelength (Angstoms) -------  2984 
Wavelength Increment (Angstroms) --  .25 
Filter Wheel #1 Position ---------- (1) Ground quartz diffuser (ND=2.32)
Filter Wheel #2 Position ---------- (1) Neutral Density 0.494



************************************************************
HS scan start time = 03:20:08
Dark Count =  1.4 


Time (GMT)  Wavelength (Ang)  Step Number  Raw Counts  Counts/Second

  201.04        2950.00           2144          80.00       342.64
  201.23        2950.25           2147          61.00       259.81
  201.27        2950.50           2151          60.00       255.45
  201.31        2950.75           2155          66.00       281.61
  201.34        2951.00           2158          58.00       246.73
  201.37        2951.25           2162          82.00       351.36
  201.40        2951.50           2165          64.00       272.89
  201.43        2951.75           2169          60.00       255.45
  201.46        2952.00           2172          60.00       255.45
  201.50        2952.25           2176          64.00       272.89
  201.53        2952.50           2179          70.00       299.04
  201.56        2952.75           2183          84.00       360.07
  201.59        2953.00           2186          61.00       259.81
  201.62        2953.25           2190          60.00       255.45
  201.65        2953.50           2193          61.00       259.81
  201.68        2953.75           2197          51.00       216.22
  201.71        2954.00           2200          65.00       277.25
  201.74        2954.25           2204          67.00       285.97
  201.77        2954.50           2208          65.00       277.25
  201.80        2954.75           2211          92.00       394.95
  201.83        2955.00           2215          67.00       285.97
  201.86        2955.25           2218          64.00       272.89
  201.89        2955.50           2222          57.00       242.37
  201.93        2955.75           2225          71.00       303.40
  201.96        2956.00           2229          68.00       290.33
  201.99        2956.25           2232          67.00       285.97
  202.02        2956.50           2236          60.00       255.45
  202.05        2956.75           2239          71.00       303.40
  202.08        2957.00           2243          63.00       268.53
  202.11        2957.25           2246          68.00       290.33
  202.14        2957.50           2250          66.00       281.61
  202.17        2957.75           2254          69.00       294.68
  202.20        2958.00           2257         106.00       455.98
  202.23        2958.25           2261          77.00       329.56
  202.26        2958.50           2264          75.00       320.84
  202.29        2958.75           2268          73.00       312.12
  202.32        2959.00           2271          68.00       290.33
  202.35        2959.25           2275          68.00       290.33
  202.38        2959.50           2278          83.00       355.71
  202.41        2959.75           2282          77.00       329.56
  202.44        2960.00           2285          84.00       360.07
  202.48        2960.25           2289          71.00       303.40
  202.51        2960.50           2293          79.00       338.28
  202.54        2960.75           2296          82.00       351.36
  202.57        2961.00           2300         123.00       530.09
  202.60        2961.25           2303         206.00       891.92
  202.63        2961.50           2307         749.00      3259.30
  202.66        2961.75           2310        2344.00     10215.40
  202.69        2962.00           2314        2532.00     11035.53
  202.72        2962.25           2317        3267.00     14242.29
  202.75        2962.50           2321        4406.00     19213.07
  202.78        2962.75           2324        5170.00     22548.23
  202.81        2963.00           2328        6363.00     27757.66
  202.84        2963.25           2331        7014.00     30601.13
  202.87        2963.50           2335        8434.00     36805.40
  202.90        2963.75           2339        9164.00     39995.94
  202.93        2964.00           2342       10126.00     44201.51
  202.96        2964.25           2346       11026.00     48137.14
  203.00        2964.50           2349       11693.00     51054.55
  203.03        2964.75           2353       12807.00     55928.40
  203.06        2965.00           2356       24873.00    108822.10
  203.09        2965.25           2360       15522.00     67813.55
  203.12        2965.50           2363       16253.00     71015.20
  203.15        2965.75           2367       17368.00     75900.06
  203.18        2966.00           2370       17827.00     77911.44
  203.21        2966.25           2374       18502.00     80869.83
  203.24        2966.50           2378       19071.00     83364.11
  203.27        2966.75           2381       18706.00     81764.05
  203.30        2967.00           2385       18752.00     81965.68
  203.33        2967.25           2388       18992.00     83017.78
  203.36        2967.50           2392       34421.00    150813.20
  203.39        2967.75           2395       20384.00     89121.43
  203.42        2968.00           2399       20021.00     87529.50
  203.45        2968.25           2402       18778.00     82079.66
  203.49        2968.50           2406       17089.00     74677.60
  203.52        2968.75           2409       15956.00     69714.31
  203.55        2969.00           2413       14879.00     64997.89
  203.58        2969.25           2417       13628.00     59521.38
  203.61        2969.50           2420       12704.00     55477.70
  203.64        2969.75           2424       21257.00     92950.66
  203.67        2970.00           2427       11056.00     48268.34
  203.70        2970.25           2431        9454.00     41263.60
  203.73        2970.50           2434        8559.00     37351.68
  203.76        2970.75           2438        7624.00     33266.02
  203.79        2971.00           2441        6615.00     28858.30
  203.82        2971.25           2445        5601.00     24430.05
  203.85        2971.50           2449        4382.00     19108.31
  203.88        2971.75           2452        6642.00     28976.22
  203.91        2972.00           2456        2862.00     12475.21
  203.94        2972.25           2459        1854.00      8078.07
  203.97        2972.50           2463        1008.00      4388.62
  204.01        2972.75           2466         491.00      2134.42
  204.04        2973.00           2470         167.00       721.90
  204.07        2973.25           2473          99.00       425.46
  204.10        2973.50           2477          83.00       355.71
  204.13        2973.75           2481         132.00       569.32
  204.16        2974.00           2484          78.00       333.92
  204.19        2974.25           2488          68.00       290.33
  204.22        2974.50           2491          68.00       290.33
  204.25        2974.75           2495          72.00       307.76
  204.28        2975.00           2498          75.00       320.84
  204.31        2975.25           2502         106.00       455.98
  204.34        2975.50           2505          78.00       333.92
  204.37        2975.75           2509          78.00       333.92
  204.40        2976.00           2512          74.00       316.48
  204.43        2976.25           2516          73.00       312.12
  204.46        2976.50           2520          66.00       281.61
  204.49        2976.75           2523          68.00       290.33
  204.53        2977.00           2527          98.00       421.10
  204.56        2977.25           2530          64.00       272.89
  204.59        2977.50           2534          68.00       290.33
  204.62        2977.75           2537          69.00       294.68
  204.65        2978.00           2541          67.00       285.97
  204.68        2978.25           2544          69.00       294.68
  204.71        2978.50           2548          64.00       272.89
  204.74        2978.75           2552          62.00       264.17
  204.77        2979.00           2555          93.00       399.31
  204.80        2979.25           2559          70.00       299.04
  204.83        2979.50           2562          65.00       277.25
  204.86        2979.75           2566          63.00       268.53
  204.89        2980.00           2569          59.00       251.09
  204.92        2980.25           2573          63.00       268.53
  204.95        2980.50           2577          68.00       290.33
  204.98        2980.75           2580          92.00       394.95
  205.01        2981.00           2584          61.00       259.81
  205.05        2981.25           2587          57.00       242.37
  205.08        2981.50           2591          59.00       251.09
  205.11        2981.75           2594          60.00       255.45
  205.14        2982.00           2598          54.00       229.30
  205.17        2982.25           2601         109.00       469.06
  205.20        2982.50           2605          87.00       373.15
  205.23        2982.75           2609          85.00       364.43
  205.26        2983.00           2612          83.00       355.71
  205.29        2983.25           2616          80.00       342.64
  205.32        2983.50           2619          83.00       355.71
  205.35        2983.75           2623          79.00       338.28
  205.38        2984.00           2626          82.00       351.36
HS scan finished at 03:25:36
end
************************************************************
  HS Scan of (1) Internal mercury lamp
************************************************************
Integration time is 0.2294 seconds per sample
dh041018Reading 51.44 .94 3.49pr1000
************************************************************
Dead Time -------------------------  3.4E-08 
Number of Cycles Used -------------  4 
Starting Wavelength (Angstroms) ---  2950 
Final Wavelength (Angstoms) -------  2984 
Wavelength Increment (Angstroms) --  .25 
Filter Wheel #1 Position ---------- (1) Ground quartz diffuser (ND=2.32)
Filter Wheel #2 Position ---------- (1) Neutral Density 0.494



************************************************************
HS scan start time = 18:37:28
Dark Count =  2.9 


Time (GMT)  Wavelength (Ang)  Step Number  Raw Counts  Counts/Second

 1118.37        2950.00           2144          61.00       253.27
 1118.57        2950.25           2147          65.00       270.71
 1118.60        2950.50           2151          41.00       166.09
 1118.63        2950.75           2155          43.00       174.80
 1118.66        2951.00           2158          45.00       183.52
 1118.69        2951.25           2162          39.00       157.37
 1118.72        2951.50           2165          38.00       153.01
 1118.75        2951.75           2169          49.00       200.96
 1118.78        2952.00           2172          44.00       179.16
 1118.81        2952.25           2176          44.00       179.16
 1118.84        2952.50           2179          40.00       161.73
 1118.87        2952.75           2183          47.00       192.24
 1118.90        2953.00           2186          47.00       192.24
 1118.93        2953.25           2190          39.00       157.37
 1118.97        2953.50           2193          48.00       196.60
 1119.00        2953.75           2197          46.00       187.88
 1119.03        2954.00           2200          46.00       187.88
 1119.06        2954.25           2204          47.00       192.24
 1119.09        2954.50           2208          46.00       187.88
 1119.12        2954.75           2211          43.00       174.80
 1119.15        2955.00           2215          44.00       179.16
 1119.18        2955.25           2218          41.00       166.09
 1119.21        2955.50           2222          42.00       170.45
 1119.24        2955.75           2225          46.00       187.88
 1119.27        2956.00           2229          40.00       161.73
 1119.30        2956.25           2232          46.00       187.88
 1119.33        2956.50           2236          42.00       170.45
 1119.36        2956.75           2239          47.00       192.24
 1119.39        2957.00           2243          43.00       174.80
 1119.42        2957.25           2246          48.00       196.60
 1119.45        2957.50           2250          41.00       166.09
 1119.48        2957.75           2254          48.00       196.60
 1119.52        2958.00           2257          51.00       209.68
 1119.55        2958.25           2261          48.00       196.60
 1119.58        2958.50           2264          43.00       174.80
 1119.61        2958.75           2268          47.00       192.24
 1119.64        2959.00           2271          52.00       214.04
 1119.67        2959.25           2275          55.00       227.12
 1119.70        2959.50           2278          54.00       222.76
 1119.73        2959.75           2282          53.00       218.40
 1119.76        2960.00           2285          58.00       240.19
 1119.79        2960.25           2289          59.00       244.55
 1119.83        2960.50           2293          54.00       222.76
 1119.86        2960.75           2296          55.00       227.12
 1119.89        2961.00           2300          66.00       275.07
 1119.92        2961.25           2303         159.00       680.49
 1119.95        2961.50           2307         465.00      2014.52
 1119.98        2961.75           2310         902.00      3919.88
 1120.01        2962.00           2314        1556.00      6771.83
 1120.04        2962.25           2317        2011.00      8756.31
 1120.07        2962.50           2321        2701.00     11766.26
 1120.10        2962.75           2324        3206.00     13969.58
 1120.13        2963.00           2328        3914.00     17059.15
 1120.16        2963.25           2331        4527.00     19734.68
 1120.19        2963.50           2335        5341.00     23288.27
 1120.22        2963.75           2339        5885.00     25663.62
 1120.25        2964.00           2342       11180.00     48804.11
 1120.28        2964.25           2346        8213.00     35833.08
 1120.32        2964.50           2349        8706.00     37987.57
 1120.35        2964.75           2353        9481.00     41375.08
 1120.38        2965.00           2356        9861.00     43036.33
 1120.41        2965.25           2360       10539.00     46000.84
 1120.44        2965.50           2363       11105.00     48476.08
 1120.47        2965.75           2367       11396.00     49748.86
 1120.50        2966.00           2370       11848.00     51726.03
 1120.53        2966.25           2374       12112.00     52880.96
 1120.56        2966.50           2378       12497.00     54565.39
 1120.59        2966.75           2381       12477.00     54477.89
 1120.62        2967.00           2385       12359.00     53961.60
 1120.65        2967.25           2388       12526.00     54692.28
 1120.68        2967.50           2392       12484.00     54508.51
 1120.71        2967.75           2395       12349.00     53917.85
 1120.74        2968.00           2399       12328.00     53825.97
 1120.77        2968.25           2402       11828.00     51638.53
 1120.80        2968.50           2406       11067.00     48309.89
 1120.83        2968.75           2409       10469.00     45694.74
 1120.87        2969.00           2413        9897.00     43193.73
 1120.90        2969.25           2417        9019.00     39355.59
 1120.93        2969.50           2420        8426.00     36763.89
 1120.96        2969.75           2424       13254.00     57877.96
 1120.99        2970.00           2427        8594.00     37498.08
 1121.02        2970.25           2431        7634.00     33303.17
 1121.05        2970.50           2434        6617.00     28860.48
 1121.08        2970.75           2438        5587.00     24362.37
 1121.11        2971.00           2441        4797.00     20913.30
 1121.14        2971.25           2445        4044.00     17626.52
 1121.17        2971.50           2449        3207.00     13973.94
 1121.20        2971.75           2452        2662.00     11596.12
 1121.23        2972.00           2456        1854.00      8071.53
 1121.26        2972.25           2459        1301.00      5659.76
 1121.29        2972.50           2463         681.00      2956.27
 1121.32        2972.75           2466         361.00      1561.11
 1121.35        2973.00           2470         141.00       602.02
 1121.39        2973.25           2473          77.00       323.02
 1121.42        2973.50           2477          78.00       327.38
 1121.45        2973.75           2481          75.00       314.30
 1121.48        2974.00           2484          62.00       257.63
 1121.51        2974.25           2488          57.00       235.83
 1121.54        2974.50           2491          72.00       301.22
 1121.57        2974.75           2495          64.00       266.35
 1121.60        2975.00           2498          63.00       261.99
 1121.63        2975.25           2502          58.00       240.19
 1121.66        2975.50           2505          63.00       261.99
 1121.69        2975.75           2509          61.00       253.27
 1121.72        2976.00           2512          54.00       222.76
 1121.75        2976.25           2516          53.00       218.40
 1121.78        2976.50           2520          54.00       222.76
 1121.81        2976.75           2523          58.00       240.19
 1121.84        2977.00           2527          56.00       231.48
 1121.87        2977.25           2530          53.00       218.40
 1121.91        2977.50           2534          57.00       235.83
 1121.94        2977.75           2537          52.00       214.04
 1121.97        2978.00           2541          47.00       192.24
 1122.00        2978.25           2544          61.00       253.27
 1122.03        2978.50           2548          59.00       244.55
 1122.06        2978.75           2552          50.00       205.32
 1122.09        2979.00           2555          45.00       183.52
 1122.12        2979.25           2559          52.00       214.04
 1122.15        2979.50           2562          49.00       200.96
 1122.18        2979.75           2566          50.00       205.32
 1122.21        2980.00           2569          46.00       187.88
 1122.24        2980.25           2573          42.00       170.45
 1122.27        2980.50           2577          50.00       205.32
 1122.30        2980.75           2580          43.00       174.80
 1122.33        2981.00           2584          50.00       205.32
 1122.36        2981.25           2587          49.00       200.96
 1122.39        2981.50           2591          43.00       174.80
 1122.43        2981.75           2594          48.00       196.60
 1122.46        2982.00           2598          45.00       183.52
 1122.49        2982.25           2601          46.00       187.88
 1122.52        2982.50           2605          48.00       196.60
 1122.55        2982.75           2609          41.00       166.09
 1122.58        2983.00           2612          45.00       183.52
 1122.61        2983.25           2616          46.00       187.88
 1122.64        2983.50           2619          45.00       183.52
 1122.67        2983.75           2623          43.00       174.80
 1122.70        2984.00           2626          44.00       179.16
HS scan finished at 18:42:55
end
