************************************************************
  HS Scan of (1) Internal mercury lamp
************************************************************
Integration time is 0.2294 seconds per sample
dh011017Reading 51.44 .94 3.27pr1000
************************************************************
Dead Time -------------------------  3.4E-08 
Number of Cycles Used -------------  4 
Starting Wavelength (Angstroms) ---  2950 
Final Wavelength (Angstoms) -------  2984 
Wavelength Increment (Angstroms) --  .25 
Filter Wheel #1 Position ---------- (1) Ground quartz diffuser (ND=2.32)
Filter Wheel #2 Position ---------- (1) Neutral Density 0.494



************************************************************
HS scan start time = 03:13:34
Dark Count =  1.3 


Time (GMT)  Wavelength (Ang)  Step Number  Raw Counts  Counts/Second

  194.47        2950.00           2144         111.00       478.21
  194.67        2950.25           2147         112.00       482.57
  194.70        2950.50           2151         126.00       543.60
  194.73        2950.75           2155         107.00       460.77
  194.76        2951.00           2158         113.00       486.93
  194.79        2951.25           2162         140.00       604.63
  194.82        2951.50           2165         120.00       517.45
  194.85        2951.75           2169         102.00       438.98
  194.88        2952.00           2172         113.00       486.93
  194.91        2952.25           2176         104.00       447.70
  194.94        2952.50           2179         119.00       513.09
  194.97        2952.75           2183         130.00       561.04
  195.00        2953.00           2186         112.00       482.57
  195.03        2953.25           2190         112.00       482.57
  195.06        2953.50           2193         110.00       473.85
  195.09        2953.75           2197         169.00       731.06
  195.12        2954.00           2200         141.00       608.99
  195.15        2954.25           2204         154.00       665.66
  195.19        2954.50           2208         170.00       735.42
  195.22        2954.75           2211         112.00       482.57
  195.25        2955.00           2215         122.00       526.16
  195.28        2955.25           2218         122.00       526.16
  195.31        2955.50           2222         136.00       587.20
  195.34        2955.75           2225         120.00       517.45
  195.37        2956.00           2229         171.00       739.77
  195.40        2956.25           2232         141.00       608.99
  195.43        2956.50           2236         149.00       643.87
  195.46        2956.75           2239         117.00       504.37
  195.49        2957.00           2243         145.00       626.43
  195.52        2957.25           2246         122.00       526.16
  195.55        2957.50           2250         125.00       539.24
  195.58        2957.75           2254         134.00       578.48
  195.61        2958.00           2257         150.00       648.23
  195.64        2958.25           2261         136.00       587.20
  195.67        2958.50           2264         141.00       608.99
  195.70        2958.75           2268         147.00       635.15
  195.74        2959.00           2271         131.00       565.40
  195.77        2959.25           2275         139.00       600.27
  195.80        2959.50           2278         142.00       613.35
  195.83        2959.75           2282         141.00       608.99
  195.86        2960.00           2285         152.00       656.95
  195.89        2960.25           2289         162.00       700.54
  195.92        2960.50           2293         153.00       661.31
  195.95        2960.75           2296         155.00       670.02
  195.98        2961.00           2300         204.00       883.64
  196.01        2961.25           2303         345.00      1498.33
  196.04        2961.50           2307        1374.00      5985.09
  196.07        2961.75           2310        2793.00     12174.61
  196.10        2962.00           2314        4843.00     21121.09
  196.13        2962.25           2317        6360.00     27745.00
  196.16        2962.50           2321        8575.00     37422.04
  196.19        2962.75           2324       10415.00     45465.61
  196.22        2963.00           2328       13164.00     57491.08
  196.26        2963.25           2331       15056.00     65773.35
  196.29        2963.50           2335       17317.00     75677.03
  196.32        2963.75           2339       19750.00     86341.59
  196.35        2964.00           2342       21588.00     94403.21
  196.38        2964.25           2346       24529.00    107311.90
  196.42        2964.50           2349       26525.00    116079.30
  196.46        2964.75           2353       24827.00    108620.60
  196.49        2965.00           2356       25999.00    113768.30
  196.52        2965.25           2360       33497.00    146744.70
  196.55        2965.50           2363       35180.00    154156.80
  196.58        2965.75           2367       32151.00    140819.50
  196.61        2966.00           2370       33174.00    145322.60
  196.64        2966.25           2374       41306.00    181167.90
  196.67        2966.50           2378       42036.00    184390.00
  196.70        2966.75           2381       42233.00    185259.60
  196.73        2967.00           2385       42206.00    185140.40
  196.76        2967.25           2388       42206.00    185140.40
  196.79        2967.50           2392       42379.00    185904.10
  196.82        2967.75           2395       41947.00    183997.10
  196.85        2968.00           2399       40630.00    178184.80
  196.88        2968.25           2402       39141.00    171616.20
  196.92        2968.50           2406       36785.00    161228.80
  196.95        2968.75           2409       35284.00    154614.90
  196.98        2969.00           2413       32944.00    144310.10
  197.01        2969.25           2417       30698.00    134426.00
  197.04        2969.50           2420       28888.00    126465.50
  197.07        2969.75           2424       24702.00    108071.60
  197.11        2970.00           2427       20263.00     88591.19
  197.14        2970.25           2431       22049.00     96425.90
  197.18        2970.50           2434       19865.00     86845.85
  197.21        2970.75           2438       17479.00     76386.88
  197.24        2971.00           2441       15585.00     68089.90
  197.27        2971.25           2445       11359.00     49594.02
  197.30        2971.50           2449        9459.00     41285.90
  197.33        2971.75           2452        9403.00     41041.10
  197.36        2972.00           2456        6631.00     28928.62
  197.39        2972.25           2459        4761.00     20763.13
  197.42        2972.50           2463        2757.00     12017.55
  197.45        2972.75           2466        1271.00      5535.92
  197.48        2973.00           2470         501.00      2178.45
  197.51        2973.25           2473         241.00      1044.94
  197.54        2973.50           2477         179.00       774.65
  197.57        2973.75           2481         168.00       726.70
  197.60        2974.00           2484         155.00       670.02
  197.63        2974.25           2488         174.00       752.85
  197.66        2974.50           2491         146.00       630.79
  197.70        2974.75           2495         153.00       661.31
  197.73        2975.00           2498         154.00       665.66
  197.76        2975.25           2502         141.00       608.99
  197.79        2975.50           2505         150.00       648.23
  197.82        2975.75           2509         135.00       582.84
  197.85        2976.00           2512         167.00       722.34
  197.88        2976.25           2516         148.00       639.51
  197.91        2976.50           2520         161.00       696.18
  197.94        2976.75           2523         134.00       578.48
  197.97        2977.00           2527         121.00       521.81
  198.00        2977.25           2530         149.00       643.87
  198.03        2977.50           2534         133.00       574.12
  198.06        2977.75           2537         135.00       582.84
  198.09        2978.00           2541         149.00       643.87
  198.12        2978.25           2544         137.00       591.56
  198.15        2978.50           2548         141.00       608.99
  198.18        2978.75           2552         135.00       582.84
  198.22        2979.00           2555         138.00       595.91
  198.25        2979.25           2559         146.00       630.79
  198.28        2979.50           2562         138.00       595.91
  198.31        2979.75           2566         136.00       587.20
  198.34        2980.00           2569         135.00       582.84
  198.37        2980.25           2573         122.00       526.16
  198.40        2980.50           2577         117.00       504.37
  198.43        2980.75           2580         112.00       482.57
  198.46        2981.00           2584         117.00       504.37
  198.49        2981.25           2587         117.00       504.37
  198.52        2981.50           2591         116.00       500.01
  198.55        2981.75           2594         114.00       491.29
  198.58        2982.00           2598         104.00       447.70
  198.61        2982.25           2601         104.00       447.70
  198.64        2982.50           2605         109.00       469.49
  198.67        2982.75           2609         137.00       591.56
  198.70        2983.00           2612         129.00       556.68
  198.74        2983.25           2616         110.00       473.85
  198.77        2983.50           2619         109.00       469.49
  198.80        2983.75           2623         112.00       482.57
  198.83        2984.00           2626         142.00       613.35
HS scan finished at 03:19:03
end
************************************************************
  HS Scan of (1) Internal mercury lamp
************************************************************
Integration time is 0.2294 seconds per sample
dh011017Reading 51.44 .94 3.5pr1000
************************************************************
Dead Time -------------------------  3.4E-08 
Number of Cycles Used -------------  4 
Starting Wavelength (Angstroms) ---  2950 
Final Wavelength (Angstoms) -------  2984 
Wavelength Increment (Angstroms) --  .25 
Filter Wheel #1 Position ---------- (1) Ground quartz diffuser (ND=2.32)
Filter Wheel #2 Position ---------- (1) Neutral Density 0.494



************************************************************
HS scan start time = 18:37:30
Dark Count =  3 


Time (GMT)  Wavelength (Ang)  Step Number  Raw Counts  Counts/Second

 1118.40        2950.00           2144          89.00       374.90
 1118.59        2950.25           2147          88.00       370.54
 1118.62        2950.50           2151          98.00       414.13
 1118.66        2950.75           2155          99.00       418.49
 1118.69        2951.00           2158         118.00       501.32
 1118.72        2951.25           2162         120.00       510.03
 1118.75        2951.50           2165          86.00       361.82
 1118.78        2951.75           2169         115.00       488.24
 1118.81        2952.00           2172          95.00       401.05
 1118.84        2952.25           2176         112.00       475.16
 1118.87        2952.50           2179         136.00       579.78
 1118.90        2952.75           2183         101.00       427.21
 1118.93        2953.00           2186         101.00       427.21
 1118.96        2953.25           2190         101.00       427.21
 1118.99        2953.50           2193         115.00       488.24
 1119.02        2953.75           2197         108.00       457.72
 1119.05        2954.00           2200         107.00       453.36
 1119.08        2954.25           2204         127.00       540.55
 1119.11        2954.50           2208         104.00       440.29
 1119.14        2954.75           2211         103.00       435.93
 1119.18        2955.00           2215          96.00       405.41
 1119.21        2955.25           2218         110.00       466.44
 1119.24        2955.50           2222         107.00       453.36
 1119.27        2955.75           2225         122.00       518.75
 1119.30        2956.00           2229         122.00       518.75
 1119.33        2956.25           2232         106.00       449.00
 1119.36        2956.50           2236         131.00       557.99
 1119.39        2956.75           2239         112.00       475.16
 1119.42        2957.00           2243         118.00       501.32
 1119.45        2957.25           2246         145.00       619.02
 1119.48        2957.50           2250         150.00       640.82
 1119.51        2957.75           2254         183.00       784.68
 1119.54        2958.00           2257         115.00       488.24
 1119.57        2958.25           2261         123.00       523.11
 1119.60        2958.50           2264         149.00       636.46
 1119.63        2958.75           2268         117.00       496.96
 1119.66        2959.00           2271         127.00       540.55
 1119.70        2959.25           2275         157.00       671.33
 1119.73        2959.50           2278         143.00       610.30
 1119.76        2959.75           2282         128.00       544.91
 1119.79        2960.00           2285         125.00       531.83
 1119.82        2960.25           2289         172.00       736.72
 1119.85        2960.50           2293         150.00       640.82
 1119.88        2960.75           2296         141.00       601.58
 1119.91        2961.00           2300         182.00       780.32
 1119.94        2961.25           2303         295.00      1272.94
 1119.97        2961.50           2307        1019.00      4429.61
 1120.00        2961.75           2310        2329.00     10142.99
 1120.03        2962.00           2314        4426.00     19293.39
 1120.06        2962.25           2317        5927.00     25846.59
 1120.09        2962.50           2321        7797.00     34014.91
 1120.12        2962.75           2324        9444.00     41212.90
 1120.15        2963.00           2328       11597.00     50627.62
 1120.18        2963.25           2331       13292.00     58043.82
 1120.21        2963.50           2335       15485.00     67644.50
 1120.25        2963.75           2339       17578.00     76813.26
 1120.28        2964.00           2342       19408.00     84834.58
 1120.31        2964.25           2346       21743.00     95075.81
 1120.34        2964.50           2349       23378.00    102251.10
 1120.37        2964.75           2353       25875.00    113216.10
 1120.40        2965.00           2356       27270.00    119345.50
 1120.43        2965.25           2360       29114.00    127451.70
 1120.46        2965.50           2363       30603.00    134000.60
 1120.49        2965.75           2367       33190.00    145385.60
 1120.52        2966.00           2370       35120.00    153885.00
 1120.55        2966.25           2374       37030.00    162301.20
 1120.58        2966.50           2378       38164.00    167300.30
 1120.61        2966.75           2381       38181.00    167375.30
 1120.64        2967.00           2385       38380.00    168252.70
 1120.67        2967.25           2388       38421.00    168433.50
 1120.70        2967.50           2392       38302.00    167908.80
 1120.73        2967.75           2395       38009.00    166616.90
 1120.77        2968.00           2399       36726.00    160961.30
 1120.80        2968.25           2402       35371.00    154990.70
 1120.83        2968.50           2406       33418.00    146389.40
 1120.86        2968.75           2409       31855.00    139509.40
 1120.89        2969.00           2413       29807.00    130499.30
 1120.92        2969.25           2417       27762.00    121507.90
 1120.95        2969.50           2420       25956.00    113572.00
 1120.98        2969.75           2424       23365.00    102194.10
 1121.01        2970.00           2427       21730.00     95018.77
 1121.04        2970.25           2431       19512.00     85290.56
 1121.07        2970.50           2434       17885.00     78158.60
 1121.10        2970.75           2438       15731.00     68721.85
 1121.13        2971.00           2441       13894.00     60678.68
 1121.16        2971.25           2445       11487.00     50146.46
 1121.19        2971.50           2449        9331.00     40718.93
 1121.22        2971.75           2452        7789.00     33979.95
 1121.25        2972.00           2456        5610.00     24462.36
 1121.29        2972.25           2459        4221.00     18398.60
 1121.32        2972.50           2463        2386.00     10391.64
 1121.35        2972.75           2466        1092.00      4747.93
 1121.38        2973.00           2470         300.00      1294.74
 1121.41        2973.25           2473         171.00       732.36
 1121.44        2973.50           2477         151.00       645.18
 1121.47        2973.75           2481         148.00       632.10
 1121.50        2974.00           2484         147.00       627.74
 1121.53        2974.25           2488         141.00       601.58
 1121.56        2974.50           2491         141.00       601.58
 1121.59        2974.75           2495         134.00       571.07
 1121.62        2975.00           2498         147.00       627.74
 1121.65        2975.25           2502         139.00       592.86
 1121.68        2975.50           2505         126.00       536.19
 1121.71        2975.75           2509         125.00       531.83
 1121.74        2976.00           2512         155.00       662.61
 1121.77        2976.25           2516         127.00       540.55
 1121.81        2976.50           2520         137.00       584.14
 1121.84        2976.75           2523         157.00       671.33
 1121.87        2977.00           2527         127.00       540.55
 1121.90        2977.25           2530         113.00       479.52
 1121.93        2977.50           2534         114.00       483.88
 1121.96        2977.75           2537         127.00       540.55
 1121.99        2978.00           2541         108.00       457.72
 1122.02        2978.25           2544         134.00       571.07
 1122.05        2978.50           2548         105.00       444.64
 1122.08        2978.75           2552         131.00       557.99
 1122.11        2979.00           2555         109.00       462.08
 1122.14        2979.25           2559         124.00       527.47
 1122.17        2979.50           2562         105.00       444.64
 1122.20        2979.75           2566         104.00       440.29
 1122.23        2980.00           2569         101.00       427.21
 1122.26        2980.25           2573         115.00       488.24
 1122.29        2980.50           2577         101.00       427.21
 1122.33        2980.75           2580         106.00       449.00
 1122.36        2981.00           2584         122.00       518.75
 1122.39        2981.25           2587          93.00       392.33
 1122.42        2981.50           2591          96.00       405.41
 1122.45        2981.75           2594          98.00       414.13
 1122.48        2982.00           2598         124.00       527.47
 1122.51        2982.25           2601         114.00       483.88
 1122.54        2982.50           2605         101.00       427.21
 1122.57        2982.75           2609          98.00       414.13
 1122.60        2983.00           2612          95.00       401.05
 1122.63        2983.25           2616          93.00       392.33
 1122.66        2983.50           2619          88.00       370.54
 1122.69        2983.75           2623          98.00       414.13
 1122.72        2984.00           2626          95.00       401.05
HS scan finished at 18:42:57
end
