************************************************************
  HS Scan of (1) Internal mercury lamp
************************************************************
Integration time is 0.2294 seconds per sample
dh300917Reading 51.44 .94 3.17pr1000
************************************************************
Dead Time -------------------------  3.4E-08 
Number of Cycles Used -------------  4 
Starting Wavelength (Angstroms) ---  2950 
Final Wavelength (Angstoms) -------  2984 
Wavelength Increment (Angstroms) --  .25 
Filter Wheel #1 Position ---------- (1) Ground quartz diffuser (ND=2.32)
Filter Wheel #2 Position ---------- (1) Neutral Density 0.494



************************************************************
HS scan start time = 03:11:10
Dark Count =  1.4 


Time (GMT)  Wavelength (Ang)  Step Number  Raw Counts  Counts/Second

  192.07        2950.00           2144         177.00       765.50
  192.26        2950.25           2147         184.00       796.01
  192.29        2950.50           2151         182.00       787.29
  192.32        2950.75           2155         187.00       809.09
  192.36        2951.00           2158         180.00       778.57
  192.39        2951.25           2162         174.00       752.42
  192.42        2951.50           2165         175.00       756.78
  192.45        2951.75           2169         178.00       769.85
  192.48        2952.00           2172         188.00       813.45
  192.51        2952.25           2176         184.00       796.01
  192.54        2952.50           2179         175.00       756.78
  192.57        2952.75           2183         199.00       861.40
  192.60        2953.00           2186         189.00       817.81
  192.63        2953.25           2190         188.00       813.45
  192.66        2953.50           2193         190.00       822.17
  192.69        2953.75           2197         186.00       804.73
  192.72        2954.00           2200         200.00       865.76
  192.75        2954.25           2204         192.00       830.89
  192.78        2954.50           2208         194.00       839.61
  192.81        2954.75           2211         202.00       874.48
  192.84        2955.00           2215         195.00       843.96
  192.88        2955.25           2218         190.00       822.17
  192.91        2955.50           2222         190.00       822.17
  192.94        2955.75           2225         185.00       800.37
  192.97        2956.00           2229         205.00       887.56
  193.00        2956.25           2232         212.00       918.08
  193.03        2956.50           2236         204.00       883.20
  193.06        2956.75           2239         206.00       891.92
  193.09        2957.00           2243         200.00       865.76
  193.12        2957.25           2246         210.00       909.36
  193.15        2957.50           2250         217.00       939.87
  193.18        2957.75           2254         199.00       861.40
  193.21        2958.00           2257         213.00       922.44
  193.24        2958.25           2261         230.00       996.55
  193.27        2958.50           2264         205.00       887.56
  193.30        2958.75           2268         219.00       948.59
  193.33        2959.00           2271         232.00      1005.27
  193.36        2959.25           2275         258.00      1118.61
  193.40        2959.50           2278         250.00      1083.74
  193.43        2959.75           2282         228.00       987.83
  193.46        2960.00           2285         251.00      1088.10
  193.49        2960.25           2289         246.00      1066.30
  193.52        2960.50           2293         244.00      1057.58
  193.55        2960.75           2296         277.00      1201.44
  193.58        2961.00           2300         314.00      1362.75
  193.61        2961.25           2303         535.00      2326.25
  193.64        2961.50           2307        1953.00      8509.87
  193.67        2961.75           2310        4101.00     17881.84
  193.70        2962.00           2314        7577.00     33060.68
  193.73        2962.25           2317       10357.00     45211.56
  193.76        2962.50           2321       14159.00     61845.69
  193.79        2962.75           2324       17206.00     75190.24
  193.82        2963.00           2328       21301.00     93143.68
  193.85        2963.25           2331       24505.00    107206.10
  193.88        2963.50           2335       28940.00    126693.70
  193.92        2963.75           2339       33232.00    145577.50
  193.95        2964.00           2342       35964.00    157610.40
  193.98        2964.25           2346       39931.00    175100.40
  194.01        2964.50           2349       42883.00    188128.90
  194.04        2964.75           2353       47520.00    208617.50
  194.07        2965.00           2356       50174.00    220357.10
  194.10        2965.25           2360       53928.00    236978.50
  194.13        2965.50           2363       56782.00    249627.60
  194.16        2965.75           2367       60229.00    264919.50
  194.19        2966.00           2370       63217.00    278188.10
  194.22        2966.25           2374       67019.00    295088.90
  194.25        2966.50           2378       69328.00    305362.40
  194.28        2966.75           2381       70041.00    308536.20
  194.31        2967.00           2385       70325.00    309800.60
  194.34        2967.25           2388       70289.00    309640.30
  194.37        2967.50           2392       69969.00    308215.70
  194.40        2967.75           2395       69888.00    307855.10
  194.44        2968.00           2399       68661.00    302393.90
  194.47        2968.25           2402       66225.00    291557.70
  194.50        2968.50           2406       62398.00    274550.10
  194.53        2968.75           2409       59736.00    262731.50
  194.56        2969.00           2413       55206.00    242641.30
  194.59        2969.25           2417       51313.00    225398.20
  194.62        2969.50           2420       48673.00    213716.50
  194.65        2969.75           2424       44559.00    195531.00
  194.68        2970.00           2427       40999.00    179812.60
  194.71        2970.25           2431       36368.00    159390.70
  194.74        2970.50           2434       33370.00    146185.10
  194.77        2970.75           2438       29525.00    129266.10
  194.80        2971.00           2441       26331.00    115226.50
  194.83        2971.25           2445       22620.00     98931.16
  194.86        2971.50           2449       18190.00     79502.33
  194.89        2971.75           2452       15136.00     66123.21
  194.92        2972.00           2456       10814.00     47209.98
  194.96        2972.25           2459        7706.00     33624.30
  194.99        2972.50           2463        4277.00     18650.01
  195.02        2972.75           2466        2207.00      9617.79
  195.05        2973.00           2470         671.00      2919.21
  195.08        2973.25           2473         365.00      1585.09
  195.11        2973.50           2477         287.00      1245.04
  195.14        2973.75           2481         294.00      1275.56
  195.17        2974.00           2484         270.00      1170.93
  195.20        2974.25           2488         254.00      1101.17
  195.23        2974.50           2491         246.00      1066.30
  195.26        2974.75           2495         262.00      1136.05
  195.29        2975.00           2498         263.00      1140.41
  195.32        2975.25           2502         229.00       992.19
  195.35        2975.50           2505         228.00       987.83
  195.38        2975.75           2509         246.00      1066.30
  195.41        2976.00           2512         228.00       987.83
  195.44        2976.25           2516         206.00       891.92
  195.48        2976.50           2520         269.00      1166.57
  195.51        2976.75           2523         214.00       926.79
  195.54        2977.00           2527         233.00      1009.62
  195.57        2977.25           2530         218.00       944.23
  195.60        2977.50           2534         201.00       870.12
  195.63        2977.75           2537         215.00       931.15
  195.66        2978.00           2541         208.00       900.64
  195.69        2978.25           2544         204.00       883.20
  195.72        2978.50           2548         191.00       826.53
  195.75        2978.75           2552         195.00       843.96
  195.78        2979.00           2555         182.00       787.29
  195.81        2979.25           2559         194.00       839.61
  195.84        2979.50           2562         198.00       857.04
  195.87        2979.75           2566         187.00       809.09
  195.90        2980.00           2569         195.00       843.96
  195.93        2980.25           2573         191.00       826.53
  195.96        2980.50           2577         185.00       800.37
  195.99        2980.75           2580         186.00       804.73
  196.03        2981.00           2584         180.00       778.57
  196.06        2981.25           2587         182.00       787.29
  196.09        2981.50           2591         178.00       769.85
  196.12        2981.75           2594         164.00       708.82
  196.15        2982.00           2598         177.00       765.50
  196.18        2982.25           2601         171.00       739.34
  196.21        2982.50           2605         173.00       748.06
  196.24        2982.75           2609         171.00       739.34
  196.27        2983.00           2612         171.00       739.34
  196.31        2983.25           2616         173.00       748.06
  196.35        2983.50           2619         177.00       765.50
  196.38        2983.75           2623         161.00       695.74
  196.41        2984.00           2626         169.00       730.62
HS scan finished at 03:16:38
end
************************************************************
  HS Scan of (1) Internal mercury lamp
************************************************************
Integration time is 0.2294 seconds per sample
dh300917Reading 51.44 .94 3.41pr1000
************************************************************
Dead Time -------------------------  3.4E-08 
Number of Cycles Used -------------  4 
Starting Wavelength (Angstroms) ---  2950 
Final Wavelength (Angstoms) -------  2984 
Wavelength Increment (Angstroms) --  .25 
Filter Wheel #1 Position ---------- (1) Ground quartz diffuser (ND=2.32)
Filter Wheel #2 Position ---------- (1) Neutral Density 0.494



************************************************************
HS scan start time = 18:37:26
Dark Count =  2.2 


Time (GMT)  Wavelength (Ang)  Step Number  Raw Counts  Counts/Second

 1118.33        2950.00           2144          80.00       339.15
 1118.53        2950.25           2147          88.00       374.02
 1118.56        2950.50           2151          83.00       352.23
 1118.59        2950.75           2155         109.00       465.57
 1118.62        2951.00           2158          84.00       356.59
 1118.65        2951.25           2162          89.00       378.38
 1118.68        2951.50           2165          85.00       360.95
 1118.71        2951.75           2169          91.00       387.10
 1118.74        2952.00           2172          99.00       421.98
 1118.77        2952.25           2176         109.00       465.57
 1118.80        2952.50           2179          91.00       387.10
 1118.84        2952.75           2183         112.00       478.65
 1118.87        2953.00           2186          88.00       374.02
 1118.90        2953.25           2190          88.00       374.02
 1118.93        2953.50           2193          94.00       400.18
 1118.96        2953.75           2197          95.00       404.54
 1118.99        2954.00           2200          98.00       417.62
 1119.02        2954.25           2204          91.00       387.10
 1119.05        2954.50           2208         104.00       443.77
 1119.08        2954.75           2211          99.00       421.98
 1119.11        2955.00           2215         106.00       452.49
 1119.15        2955.25           2218         119.00       509.16
 1119.18        2955.50           2222         112.00       478.65
 1119.21        2955.75           2225         128.00       548.40
 1119.24        2956.00           2229         129.00       552.76
 1119.27        2956.25           2232         153.00       657.38
 1119.30        2956.50           2236         118.00       504.80
 1119.33        2956.75           2239         129.00       552.76
 1119.36        2957.00           2243         140.00       600.71
 1119.39        2957.25           2246         117.00       500.44
 1119.42        2957.50           2250         139.00       596.35
 1119.45        2957.75           2254         147.00       631.23
 1119.48        2958.00           2257         129.00       552.76
 1119.51        2958.25           2261         124.00       530.96
 1119.54        2958.50           2264         124.00       530.96
 1119.57        2958.75           2268         133.00       570.19
 1119.60        2959.00           2271         135.00       578.91
 1119.63        2959.25           2275         133.00       570.19
 1119.67        2959.50           2278         135.00       578.91
 1119.70        2959.75           2282         134.00       574.55
 1119.73        2960.00           2285         143.00       613.79
 1119.76        2960.25           2289         146.00       626.87
 1119.79        2960.50           2293         156.00       670.46
 1119.82        2960.75           2296         143.00       613.79
 1119.85        2961.00           2300         152.00       653.02
 1119.88        2961.25           2303         292.00      1263.35
 1119.91        2961.50           2307        1278.00      5562.52
 1119.94        2961.75           2310        2736.00     11922.01
 1119.97        2962.00           2314        4761.00     20759.20
 1120.00        2962.25           2317        6460.00     28177.81
 1120.03        2962.50           2321        8783.00     38327.16
 1120.06        2962.75           2324       10516.00     45903.32
 1120.09        2963.00           2328       12848.00     56104.31
 1120.12        2963.25           2331       14616.00     63842.88
 1120.15        2963.50           2335       17118.00     74801.16
 1120.19        2963.75           2339       19242.00     84110.30
 1120.22        2964.00           2342       21132.00     92398.81
 1120.25        2964.25           2346       23589.00    103180.90
 1120.28        2964.50           2349       25840.00    113065.90
 1120.31        2964.75           2353       28556.00    125001.80
 1120.34        2965.00           2356       30262.00    132504.10
 1120.37        2965.25           2360       32376.00    141805.90
 1120.40        2965.50           2363       34145.00    149594.20
 1120.43        2965.75           2367       36463.00    159805.80
 1120.46        2966.00           2370       38153.00    167255.30
 1120.49        2966.25           2374       40402.00    177174.80
 1120.52        2966.50           2378       41623.00    182563.00
 1120.55        2966.75           2381       41961.00    184054.90
 1120.58        2967.00           2385       41960.00    184050.50
 1120.61        2967.25           2388       42043.00    184416.90
 1120.64        2967.50           2392       41823.00    183445.80
 1120.67        2967.75           2395       41555.00    182262.90
 1120.71        2968.00           2399       40571.00    177920.50
 1120.74        2968.25           2402       39098.00    171422.60
 1120.77        2968.50           2406       37025.00    162282.70
 1120.80        2968.75           2409       35192.00    154205.70
 1120.83        2969.00           2413       32828.00    143795.50
 1120.86        2969.25           2417       30806.00    134897.20
 1120.89        2969.50           2420       28671.00    125507.40
 1120.92        2969.75           2424       26147.00    114414.60
 1120.95        2970.00           2427       24329.00    106429.80
 1120.98        2970.25           2431       21792.00     95294.31
 1121.01        2970.50           2434       20078.00     87775.96
 1121.04        2970.75           2438       17618.00     76992.05
 1121.07        2971.00           2441       15847.00     69233.40
 1121.10        2971.25           2445       13530.00     59088.96
 1121.13        2971.50           2449       10968.00     47879.98
 1121.16        2971.75           2452        9245.00     40346.51
 1121.19        2972.00           2456        6977.00     30436.01
 1121.23        2972.25           2459        5185.00     22610.23
 1121.26        2972.50           2463        2917.00     12711.68
 1121.29        2972.75           2466        1521.00      6622.24
 1121.32        2973.00           2470         517.00      2244.29
 1121.35        2973.25           2473         268.00      1158.72
 1121.38        2973.50           2477         184.00       792.52
 1121.41        2973.75           2481         175.00       753.29
 1121.44        2974.00           2484         163.00       700.98
 1121.47        2974.25           2488         159.00       683.54
 1121.50        2974.50           2491         167.00       718.41
 1121.53        2974.75           2495         166.00       714.05
 1121.56        2975.00           2498         154.00       661.74
 1121.59        2975.25           2502         159.00       683.54
 1121.62        2975.50           2505         146.00       626.87
 1121.65        2975.75           2509         146.00       626.87
 1121.68        2976.00           2512         144.00       618.15
 1121.71        2976.25           2516         154.00       661.74
 1121.75        2976.50           2520         140.00       600.71
 1121.78        2976.75           2523         135.00       578.91
 1121.81        2977.00           2527         148.00       635.58
 1121.84        2977.25           2530         137.00       587.63
 1121.87        2977.50           2534         132.00       565.83
 1121.90        2977.75           2537         141.00       605.07
 1121.93        2978.00           2541         122.00       522.24
 1121.96        2978.25           2544         151.00       648.66
 1121.99        2978.50           2548         119.00       509.16
 1122.02        2978.75           2552         131.00       561.48
 1122.05        2979.00           2555         117.00       500.44
 1122.08        2979.25           2559         116.00       496.09
 1122.11        2979.50           2562         141.00       605.07
 1122.14        2979.75           2566         124.00       530.96
 1122.17        2980.00           2569         166.00       714.05
 1122.20        2980.25           2573         136.00       583.27
 1122.23        2980.50           2577         109.00       465.57
 1122.27        2980.75           2580         131.00       561.48
 1122.30        2981.00           2584         113.00       483.01
 1122.33        2981.25           2587         133.00       570.19
 1122.36        2981.50           2591         148.00       635.58
 1122.39        2981.75           2594         113.00       483.01
 1122.42        2982.00           2598         129.00       552.76
 1122.45        2982.25           2601         110.00       469.93
 1122.48        2982.50           2605         107.00       456.85
 1122.51        2982.75           2609         125.00       535.32
 1122.54        2983.00           2612         106.00       452.49
 1122.57        2983.25           2616         127.00       544.04
 1122.60        2983.50           2619         126.00       539.68
 1122.63        2983.75           2623         121.00       517.88
 1122.66        2984.00           2626         111.00       474.29
HS scan finished at 18:42:53
end
