************************************************************
  HS Scan of (1) Internal mercury lamp
************************************************************
Integration time is 0.2294 seconds per sample
dh051017Reading 51.44 .94 3.21pr1000
************************************************************
Dead Time -------------------------  3.4E-08 
Number of Cycles Used -------------  4 
Starting Wavelength (Angstroms) ---  2950 
Final Wavelength (Angstoms) -------  2984 
Wavelength Increment (Angstroms) --  .25 
Filter Wheel #1 Position ---------- (1) Ground quartz diffuser (ND=2.32)
Filter Wheel #2 Position ---------- (1) Neutral Density 0.494



************************************************************
HS scan start time = 03:23:01
Dark Count =  1.4 


Time (GMT)  Wavelength (Ang)  Step Number  Raw Counts  Counts/Second

  203.91        2950.00           2144         124.00       534.45
  204.10        2950.25           2147         132.00       569.32
  204.13        2950.50           2151         106.00       455.98
  204.16        2950.75           2155         141.00       608.56
  204.19        2951.00           2158         125.00       538.81
  204.22        2951.25           2162         110.00       473.42
  204.25        2951.50           2165         137.00       591.12
  204.28        2951.75           2169         138.00       595.48
  204.32        2952.00           2172         133.00       573.68
  204.35        2952.25           2176         112.00       482.14
  204.38        2952.50           2179         128.00       551.88
  204.41        2952.75           2183         129.00       556.24
  204.44        2953.00           2186         164.00       708.82
  204.47        2953.25           2190         141.00       608.56
  204.50        2953.50           2193         143.00       617.28
  204.53        2953.75           2197         120.00       517.01
  204.56        2954.00           2200         129.00       556.24
  204.59        2954.25           2204         151.00       652.15
  204.62        2954.50           2208         126.00       543.17
  204.65        2954.75           2211         136.00       586.76
  204.68        2955.00           2215         160.00       691.39
  204.71        2955.25           2218         130.00       560.60
  204.74        2955.50           2222         177.00       765.50
  204.77        2955.75           2225         128.00       551.88
  204.80        2956.00           2229         130.00       560.60
  204.84        2956.25           2232         129.00       556.24
  204.87        2956.50           2236         138.00       595.48
  204.90        2956.75           2239         130.00       560.60
  204.93        2957.00           2243         156.00       673.95
  204.96        2957.25           2246         160.00       691.39
  204.99        2957.50           2250         153.00       660.87
  205.02        2957.75           2254         143.00       617.28
  205.05        2958.00           2257         154.00       665.23
  205.08        2958.25           2261         153.00       660.87
  205.11        2958.50           2264         148.00       639.07
  205.14        2958.75           2268         143.00       617.28
  205.17        2959.00           2271         156.00       673.95
  205.20        2959.25           2275         156.00       673.95
  205.23        2959.50           2278         160.00       691.39
  205.26        2959.75           2282         167.00       721.90
  205.29        2960.00           2285         165.00       713.18
  205.33        2960.25           2289         155.00       669.59
  205.36        2960.50           2293         164.00       708.82
  205.39        2960.75           2296         173.00       748.06
  205.42        2961.00           2300         244.00      1057.58
  205.45        2961.25           2303         635.00      2762.25
  205.48        2961.50           2307        2027.00      8832.64
  205.51        2961.75           2310        3448.00     15032.09
  205.54        2962.00           2314        5545.00     24185.53
  205.57        2962.25           2317        7323.00     31951.00
  205.60        2962.50           2321        9560.00     41726.99
  205.63        2962.75           2324       11396.00     49755.42
  205.66        2963.00           2328       13910.00     60755.71
  205.69        2963.25           2331       15760.00     68855.88
  205.72        2963.50           2335       18311.00     80032.65
  205.75        2963.75           2339       20999.00     91818.89
  205.78        2964.00           2342       23112.00    101090.50
  205.81        2964.25           2346       25830.00    113025.50
  205.84        2964.50           2349       27507.00    120394.20
  205.88        2964.75           2353       29668.00    129895.00
  205.91        2965.00           2356       31467.00    137809.00
  205.94        2965.25           2360       33950.00    148739.00
  205.97        2965.50           2363       35805.00    156909.90
  206.00        2965.75           2367       38176.00    167360.30
  206.03        2966.00           2370       39746.00    174284.30
  206.06        2966.25           2374       41799.00    183343.40
  206.09        2966.50           2378       43080.00    188998.80
  206.12        2966.75           2381       43120.00    189175.40
  206.15        2967.00           2385       43217.00    189603.70
  206.18        2967.25           2388       43494.00    190827.00
  206.21        2967.50           2392       43316.00    190040.90
  206.24        2967.75           2395       43032.00    188786.80
  206.27        2968.00           2399       41360.00    181405.80
  206.30        2968.25           2402       39688.00    174028.40
  206.33        2968.50           2406       37453.00    164172.80
  206.36        2968.75           2409       35640.00    156182.90
  206.40        2969.00           2413       33077.00    144895.20
  206.43        2969.25           2417       30758.00    134689.50
  206.46        2969.50           2420       28630.00    125330.70
  206.49        2969.75           2424       26283.00    115015.60
  206.52        2970.00           2427       24234.00    106016.20
  206.55        2970.25           2431       21799.00     95328.53
  206.58        2970.50           2434       19873.00     86880.49
  206.61        2970.75           2438       17033.00     74432.25
  206.64        2971.00           2441       14963.00     65365.69
  206.67        2971.25           2445       12829.00     56024.66
  206.70        2971.50           2449       10257.00     44774.30
  206.73        2971.75           2452        8249.00     35996.95
  206.76        2972.00           2456        5853.00     25530.44
  206.79        2972.25           2459        4071.00     17750.90
  206.82        2972.50           2463        1899.00      8274.34
  206.85        2972.75           2466         815.00      3547.07
  206.88        2973.00           2470         268.00      1162.21
  206.92        2973.25           2473         205.00       887.56
  206.95        2973.50           2477         188.00       813.45
  206.98        2973.75           2481         180.00       778.57
  207.01        2974.00           2484         182.00       787.29
  207.04        2974.25           2488         173.00       748.06
  207.07        2974.50           2491         161.00       695.74
  207.10        2974.75           2495         162.00       700.10
  207.13        2975.00           2498         166.00       717.54
  207.16        2975.25           2502         143.00       617.28
  207.19        2975.50           2505         147.00       634.71
  207.22        2975.75           2509         154.00       665.23
  207.25        2976.00           2512         144.00       621.63
  207.28        2976.25           2516         159.00       687.03
  207.31        2976.50           2520         138.00       595.48
  207.34        2976.75           2523         148.00       639.07
  207.37        2977.00           2527         153.00       660.87
  207.40        2977.25           2530         171.00       739.34
  207.44        2977.50           2534         153.00       660.87
  207.47        2977.75           2537         136.00       586.76
  207.50        2978.00           2541         144.00       621.63
  207.53        2978.25           2544         135.00       582.40
  207.56        2978.50           2548         143.00       617.28
  207.59        2978.75           2552         132.00       569.32
  207.62        2979.00           2555         125.00       538.81
  207.65        2979.25           2559         131.00       564.96
  207.68        2979.50           2562         154.00       665.23
  207.71        2979.75           2566         146.00       630.35
  207.74        2980.00           2569         157.00       678.31
  207.77        2980.25           2573         145.00       625.99
  207.80        2980.50           2577         134.00       578.04
  207.83        2980.75           2580         127.00       547.53
  207.86        2981.00           2584         114.00       490.85
  207.89        2981.25           2587         130.00       560.60
  207.92        2981.50           2591         134.00       578.04
  207.96        2981.75           2594         174.00       752.42
  207.99        2982.00           2598         119.00       512.65
  208.02        2982.25           2601         149.00       643.43
  208.05        2982.50           2605         134.00       578.04
  208.08        2982.75           2609         143.00       617.28
  208.11        2983.00           2612         128.00       551.88
  208.14        2983.25           2616         148.00       639.07
  208.17        2983.50           2619         133.00       573.68
  208.20        2983.75           2623         133.00       573.68
  208.23        2984.00           2626         144.00       621.63
HS scan finished at 03:28:27
end
************************************************************
  HS Scan of (1) Internal mercury lamp
************************************************************
Integration time is 0.2294 seconds per sample
dh051017Reading 51.44 .94 3.25pr1000
************************************************************
Dead Time -------------------------  3.4E-08 
Number of Cycles Used -------------  4 
Starting Wavelength (Angstroms) ---  2950 
Final Wavelength (Angstoms) -------  2984 
Wavelength Increment (Angstroms) --  .25 
Filter Wheel #1 Position ---------- (1) Ground quartz diffuser (ND=2.32)
Filter Wheel #2 Position ---------- (1) Neutral Density 0.494



************************************************************
HS scan start time = 18:37:27
Dark Count =  1.3 


Time (GMT)  Wavelength (Ang)  Step Number  Raw Counts  Counts/Second

 1118.35        2950.00           2144          88.00       377.95
 1118.54        2950.25           2147          81.00       347.43
 1118.58        2950.50           2151          78.00       334.35
 1118.61        2950.75           2155          82.00       351.79
 1118.64        2951.00           2158          84.00       360.51
 1118.67        2951.25           2162          83.00       356.15
 1118.70        2951.50           2165          85.00       364.87
 1118.73        2951.75           2169          70.00       299.48
 1118.76        2952.00           2172          71.00       303.84
 1118.79        2952.25           2176          81.00       347.43
 1118.82        2952.50           2179          71.00       303.84
 1118.85        2952.75           2183          74.00       316.92
 1118.88        2953.00           2186          84.00       360.51
 1118.92        2953.25           2190          82.00       351.79
 1118.96        2953.50           2193          85.00       364.87
 1118.99        2953.75           2197          82.00       351.79
 1119.02        2954.00           2200          76.00       325.64
 1119.05        2954.25           2204          81.00       347.43
 1119.08        2954.50           2208          79.00       338.71
 1119.11        2954.75           2211          83.00       356.15
 1119.14        2955.00           2215          79.00       338.71
 1119.17        2955.25           2218          83.00       356.15
 1119.20        2955.50           2222          83.00       356.15
 1119.23        2955.75           2225          72.00       308.20
 1119.26        2956.00           2229          77.00       329.99
 1119.29        2956.25           2232          78.00       334.35
 1119.32        2956.50           2236          86.00       369.23
 1119.36        2956.75           2239          87.00       373.59
 1119.39        2957.00           2243          94.00       404.10
 1119.42        2957.25           2246          81.00       347.43
 1119.45        2957.50           2250          84.00       360.51
 1119.48        2957.75           2254          86.00       369.23
 1119.51        2958.00           2257          94.00       404.10
 1119.54        2958.25           2261          89.00       382.31
 1119.57        2958.50           2264          95.00       408.46
 1119.60        2958.75           2268         111.00       478.21
 1119.63        2959.00           2271          97.00       417.18
 1119.66        2959.25           2275          99.00       425.90
 1119.69        2959.50           2278          98.00       421.54
 1119.72        2959.75           2282         124.00       534.88
 1119.75        2960.00           2285          99.00       425.90
 1119.78        2960.25           2289         122.00       526.16
 1119.81        2960.50           2293         106.00       456.42
 1119.84        2960.75           2296         161.00       696.18
 1119.87        2961.00           2300         143.00       617.71
 1119.91        2961.25           2303         315.00      1367.54
 1119.94        2961.50           2307        1084.00      4720.46
 1119.97        2961.75           2310        2073.00      9033.72
 1120.00        2962.00           2314        3644.00     15887.83
 1120.03        2962.25           2317        4774.00     20819.88
 1120.06        2962.50           2321        6106.00     26635.71
 1120.09        2962.75           2324        7136.00     31134.51
 1120.12        2963.00           2328        8787.00     38348.58
 1120.15        2963.25           2331       10067.00     43943.99
 1120.18        2963.50           2335       11696.00     51068.11
 1120.21        2963.75           2339       13400.00     58523.92
 1120.24        2964.00           2342       14409.00     62940.57
 1120.27        2964.25           2346       16002.00     69916.23
 1120.30        2964.50           2349       17470.00     76347.45
 1120.33        2964.75           2353       19032.00     83193.57
 1120.36        2965.00           2356       20227.00     88433.32
 1120.39        2965.25           2360       22050.00     96430.29
 1120.43        2965.50           2363       23047.00    100805.70
 1120.46        2965.75           2367       24407.00    106776.20
 1120.49        2966.00           2370       25417.00    111211.80
 1120.52        2966.25           2374       26757.00    117098.70
 1120.55        2966.50           2378       27115.00    118671.90
 1120.58        2966.75           2381       27236.00    119203.60
 1120.61        2967.00           2385       27285.00    119418.90
 1120.64        2967.25           2388       27384.00    119854.00
 1120.67        2967.50           2392       27237.00    119208.00
 1120.70        2967.75           2395       27104.00    118623.50
 1120.73        2968.00           2399       26146.00    114414.10
 1120.76        2968.25           2402       25000.00    109380.30
 1120.79        2968.50           2406       23314.00    101977.60
 1120.82        2968.75           2409       22184.00     97018.28
 1120.85        2969.00           2413       20718.00     90586.77
 1120.88        2969.25           2417       19285.00     84302.75
 1120.91        2969.50           2420       18143.00     79296.76
 1120.95        2969.75           2424       16709.00     73013.20
 1120.98        2970.00           2427       15477.00     67616.91
 1121.01        2970.25           2431       14050.00     61368.98
 1121.04        2970.50           2434       12684.00     55390.62
 1121.07        2970.75           2438       10971.00     47897.03
 1121.10        2971.00           2441        9822.00     42872.83
 1121.13        2971.25           2445        8511.00     37142.35
 1121.16        2971.50           2449        6959.00     30361.32
 1121.19        2971.75           2452        5921.00     25827.82
 1121.22        2972.00           2456        4403.00     19200.41
 1121.25        2972.25           2459        3079.00     13422.43
 1121.28        2972.50           2463        1622.00      7066.65
 1121.31        2972.75           2466         743.00      3233.57
 1121.34        2973.00           2470         226.00       979.54
 1121.37        2973.25           2473         160.00       691.82
 1121.40        2973.50           2477         110.00       473.85
 1121.43        2973.75           2481         102.00       438.98
 1121.47        2974.00           2484         128.00       552.32
 1121.50        2974.25           2488         101.00       434.62
 1121.53        2974.50           2491         116.00       500.01
 1121.56        2974.75           2495          99.00       425.90
 1121.59        2975.00           2498         119.00       513.09
 1121.62        2975.25           2502          97.00       417.18
 1121.65        2975.50           2505          98.00       421.54
 1121.68        2975.75           2509         116.00       500.01
 1121.71        2976.00           2512          93.00       399.74
 1121.74        2976.25           2516          83.00       356.15
 1121.77        2976.50           2520          85.00       364.87
 1121.80        2976.75           2523          89.00       382.31
 1121.83        2977.00           2527          84.00       360.51
 1121.86        2977.25           2530          83.00       356.15
 1121.89        2977.50           2534          88.00       377.95
 1121.92        2977.75           2537          72.00       308.20
 1121.95        2978.00           2541          80.00       343.07
 1121.99        2978.25           2544          85.00       364.87
 1122.02        2978.50           2548          79.00       338.71
 1122.05        2978.75           2552          79.00       338.71
 1122.08        2979.00           2555          75.00       321.28
 1122.11        2979.25           2559          71.00       303.84
 1122.14        2979.50           2562          75.00       321.28
 1122.17        2979.75           2566          85.00       364.87
 1122.20        2980.00           2569          75.00       321.28
 1122.23        2980.25           2573          78.00       334.35
 1122.26        2980.50           2577          79.00       338.71
 1122.29        2980.75           2580          74.00       316.92
 1122.32        2981.00           2584          69.00       295.12
 1122.35        2981.25           2587          73.00       312.56
 1122.38        2981.50           2591          72.00       308.20
 1122.41        2981.75           2594          73.00       312.56
 1122.44        2982.00           2598          63.00       268.97
 1122.48        2982.25           2601          62.00       264.61
 1122.51        2982.50           2605          73.00       312.56
 1122.54        2982.75           2609          65.00       277.68
 1122.57        2983.00           2612          67.00       286.40
 1122.60        2983.25           2616          66.00       282.04
 1122.63        2983.50           2619          68.00       290.76
 1122.66        2983.75           2623          63.00       268.97
 1122.69        2984.00           2626          67.00       286.40
HS scan finished at 18:42:55
end
