************************************************************
  HS Scan of (1) Internal mercury lamp
************************************************************
Integration time is 0.2294 seconds per sample
dh290918Reading 51.44 .94 2.72pr1000
************************************************************
Dead Time -------------------------  3.4E-08 
Number of Cycles Used -------------  4 
Starting Wavelength (Angstroms) ---  2950 
Final Wavelength (Angstoms) -------  2984 
Wavelength Increment (Angstroms) --  .25 
Filter Wheel #1 Position ---------- (1) Ground quartz diffuser (ND=2.32)
Filter Wheel #2 Position ---------- (1) Neutral Density 0.494



************************************************************
HS scan start time = 03:08:00
Dark Count =  .5 


Time (GMT)  Wavelength (Ang)  Step Number  Raw Counts  Counts/Second

  188.89        2950.00           2144          93.00       403.23
  189.09        2950.25           2147          92.00       398.87
  189.12        2950.50           2151         102.00       442.47
  189.15        2950.75           2155          95.00       411.95
  189.18        2951.00           2158          93.00       403.23
  189.21        2951.25           2162         112.00       486.06
  189.24        2951.50           2165          97.00       420.67
  189.27        2951.75           2169          94.00       407.59
  189.30        2952.00           2172          89.00       385.79
  189.33        2952.25           2176         101.00       438.11
  189.36        2952.50           2179          94.00       407.59
  189.39        2952.75           2183          96.00       416.31
  189.42        2953.00           2186         104.00       451.18
  189.45        2953.25           2190          95.00       411.95
  189.49        2953.50           2193         105.00       455.54
  189.52        2953.75           2197         103.00       446.82
  189.55        2954.00           2200         127.00       551.45
  189.58        2954.25           2204         101.00       438.11
  189.61        2954.50           2208         127.00       551.45
  189.64        2954.75           2211         112.00       486.06
  189.67        2955.00           2215         104.00       451.18
  189.70        2955.25           2218          96.00       416.31
  189.73        2955.50           2222         105.00       455.54
  189.76        2955.75           2225         125.00       542.73
  189.79        2956.00           2229         104.00       451.18
  189.82        2956.25           2232         112.00       486.06
  189.85        2956.50           2236         109.00       472.98
  189.88        2956.75           2239         128.00       555.81
  189.91        2957.00           2243         142.00       616.84
  189.94        2957.25           2246         113.00       490.42
  189.97        2957.50           2250         106.00       459.90
  190.00        2957.75           2254         120.00       520.93
  190.04        2958.00           2257         118.00       512.21
  190.07        2958.25           2261         134.00       581.96
  190.10        2958.50           2264         162.00       704.03
  190.13        2958.75           2268         113.00       490.42
  190.16        2959.00           2271         126.00       547.09
  190.19        2959.25           2275         140.00       608.12
  190.22        2959.50           2278         128.00       555.81
  190.25        2959.75           2282         164.00       712.75
  190.28        2960.00           2285         140.00       608.12
  190.31        2960.25           2289         159.00       690.95
  190.34        2960.50           2293         153.00       664.79
  190.37        2960.75           2296         151.00       656.07
  190.40        2961.00           2300         156.00       677.87
  190.43        2961.25           2303         250.00      1087.66
  190.46        2961.50           2307         850.00      3703.60
  190.49        2961.75           2310        1842.00      8029.66
  190.52        2962.00           2314        3550.00     15481.12
  190.56        2962.25           2317        4970.00     21679.01
  190.59        2962.50           2321        6865.00     29954.21
  190.62        2962.75           2324        8426.00     36774.37
  190.65        2963.00           2328       10786.00     47091.47
  190.68        2963.25           2331       12545.00     54785.92
  190.71        2963.50           2335       14652.00     64007.94
  190.74        2963.75           2339       16945.00     74050.63
  190.77        2964.00           2342       18738.00     81908.27
  190.80        2964.25           2346       20896.00     91371.04
  190.83        2964.50           2349       22334.00     97680.02
  190.86        2964.75           2353       24618.00    107706.30
  190.89        2965.00           2356       26430.00    115665.40
  190.92        2965.25           2360       28591.00    125163.20
  190.95        2965.50           2363       30096.00    131781.40
  190.98        2965.75           2367       32425.00    142029.00
  191.01        2966.00           2370       33804.00    148100.00
  191.04        2966.25           2374       35340.00    154865.20
  191.08        2966.50           2378       36372.00    159412.30
  191.11        2966.75           2381       36625.00    160527.20
  191.14        2967.00           2385       36717.00    160932.70
  191.17        2967.25           2388       36793.00    161267.60
  191.20        2967.50           2392       36650.00    160637.40
  191.23        2967.75           2395       36483.00    159901.40
  191.26        2968.00           2399       35574.00    155896.10
  191.29        2968.25           2402       34016.00    149033.60
  191.32        2968.50           2406       32066.00    140449.00
  191.35        2968.75           2409       30433.00    133263.80
  191.38        2969.00           2413       28597.00    125189.50
  191.41        2969.25           2417       26535.00    116126.70
  191.44        2969.50           2420       25042.00    109568.30
  191.47        2969.75           2424       22815.00     99790.93
  191.50        2970.00           2427       21228.00     92827.38
  191.53        2970.25           2431       19187.00     83876.61
  191.56        2970.50           2434       17524.00     76587.58
  191.60        2970.75           2438       15118.00     66048.34
  191.63        2971.00           2441       13247.00     57857.82
  191.66        2971.25           2445       11027.00     48145.44
  191.69        2971.50           2449        9062.00     39554.03
  191.72        2971.75           2452        7473.00     32610.25
  191.75        2972.00           2456        5228.00     22805.38
  191.78        2972.25           2459        3666.00     15987.33
  191.81        2972.50           2463        1920.00      8369.86
  191.84        2972.75           2466         924.00      4026.27
  191.87        2973.00           2470         301.00      1310.00
  191.90        2973.25           2473         200.00       869.69
  191.93        2973.50           2477         158.00       686.59
  191.96        2973.75           2481         144.00       625.56
  191.99        2974.00           2484         140.00       608.12
  192.02        2974.25           2488         147.00       638.64
  192.05        2974.50           2491         137.00       595.04
  192.08        2974.75           2495         127.00       551.45
  192.12        2975.00           2498         118.00       512.21
  192.15        2975.25           2502         140.00       608.12
  192.18        2975.50           2505         142.00       616.84
  192.21        2975.75           2509         152.00       660.43
  192.24        2976.00           2512         137.00       595.04
  192.28        2976.25           2516         124.00       538.37
  192.31        2976.50           2520         118.00       512.21
  192.34        2976.75           2523         162.00       704.03
  192.38        2977.00           2527         137.00       595.04
  192.41        2977.25           2530         127.00       551.45
  192.44        2977.50           2534         104.00       451.18
  192.47        2977.75           2537         110.00       477.34
  192.50        2978.00           2541         104.00       451.18
  192.53        2978.25           2544         109.00       472.98
  192.56        2978.50           2548         110.00       477.34
  192.59        2978.75           2552         146.00       634.28
  192.62        2979.00           2555         105.00       455.54
  192.65        2979.25           2559         103.00       446.82
  192.68        2979.50           2562          91.00       394.51
  192.71        2979.75           2566          94.00       407.59
  192.74        2980.00           2569          99.00       429.39
  192.77        2980.25           2573          90.00       390.15
  192.80        2980.50           2577         109.00       472.98
  192.83        2980.75           2580          94.00       407.59
  192.86        2981.00           2584         108.00       468.62
  192.90        2981.25           2587          97.00       420.67
  192.93        2981.50           2591          98.00       425.03
  192.96        2981.75           2594          97.00       420.67
  192.99        2982.00           2598          95.00       411.95
  193.02        2982.25           2601          96.00       416.31
  193.05        2982.50           2605          92.00       398.87
  193.08        2982.75           2609          91.00       394.51
  193.11        2983.00           2612         102.00       442.47
  193.14        2983.25           2616          87.00       377.08
  193.17        2983.50           2619          87.00       377.08
  193.20        2983.75           2623          95.00       411.95
  193.23        2984.00           2626          90.00       390.15
HS scan finished at 03:13:27
end
************************************************************
  HS Scan of (1) Internal mercury lamp
************************************************************
Integration time is 0.2294 seconds per sample
dh290918Reading 51.44 .94 3.45pr1000
************************************************************
Dead Time -------------------------  3.4E-08 
Number of Cycles Used -------------  4 
Starting Wavelength (Angstroms) ---  2950 
Final Wavelength (Angstoms) -------  2984 
Wavelength Increment (Angstroms) --  .25 
Filter Wheel #1 Position ---------- (1) Ground quartz diffuser (ND=2.32)
Filter Wheel #2 Position ---------- (1) Neutral Density 0.494



************************************************************
HS scan start time = 18:37:29
Dark Count =  3 


Time (GMT)  Wavelength (Ang)  Step Number  Raw Counts  Counts/Second

 1118.39        2950.00           2144          52.00       213.60
 1118.58        2950.25           2147          41.00       165.65
 1118.61        2950.50           2151          47.00       191.81
 1118.64        2950.75           2155          47.00       191.81
 1118.67        2951.00           2158          38.00       152.57
 1118.70        2951.25           2162          39.00       156.93
 1118.73        2951.50           2165          36.00       143.85
 1118.76        2951.75           2169          38.00       152.57
 1118.79        2952.00           2172          34.00       135.14
 1118.83        2952.25           2176          33.00       130.78
 1118.86        2952.50           2179          35.00       139.50
 1118.89        2952.75           2183          33.00       130.78
 1118.92        2953.00           2186          36.00       143.85
 1118.95        2953.25           2190          44.00       178.73
 1118.98        2953.50           2193          33.00       130.78
 1119.01        2953.75           2197          30.00       117.70
 1119.04        2954.00           2200          39.00       156.93
 1119.07        2954.25           2204          33.00       130.78
 1119.10        2954.50           2208          33.00       130.78
 1119.13        2954.75           2211          29.00       113.34
 1119.16        2955.00           2215          34.00       135.14
 1119.19        2955.25           2218          44.00       178.73
 1119.22        2955.50           2222          36.00       143.85
 1119.25        2955.75           2225          40.00       161.29
 1119.28        2956.00           2229          39.00       156.93
 1119.31        2956.25           2232          37.00       148.21
 1119.34        2956.50           2236          42.00       170.01
 1119.38        2956.75           2239          36.00       143.85
 1119.41        2957.00           2243          35.00       139.50
 1119.44        2957.25           2246          40.00       161.29
 1119.47        2957.50           2250          40.00       161.29
 1119.50        2957.75           2254          44.00       178.73
 1119.53        2958.00           2257          43.00       174.37
 1119.56        2958.25           2261          42.00       170.01
 1119.59        2958.50           2264          40.00       161.29
 1119.62        2958.75           2268          41.00       165.65
 1119.65        2959.00           2271          39.00       156.93
 1119.68        2959.25           2275          50.00       204.88
 1119.71        2959.50           2278          45.00       183.09
 1119.74        2959.75           2282          46.00       187.45
 1119.77        2960.00           2285          50.00       204.88
 1119.80        2960.25           2289          42.00       170.01
 1119.83        2960.50           2293          45.00       183.09
 1119.86        2960.75           2296          49.00       200.52
 1119.90        2961.00           2300          63.00       261.55
 1119.93        2961.25           2303         148.00       632.10
 1119.96        2961.50           2307         450.00      1948.69
 1119.99        2961.75           2310         837.00      3636.02
 1120.02        2962.00           2314        1433.00      6234.97
 1120.05        2962.25           2317        1848.00      8044.92
 1120.08        2962.50           2321        2443.00     10640.29
 1120.11        2962.75           2324        2977.00     12969.97
 1120.14        2963.00           2328        3636.00     15845.50
 1120.17        2963.25           2331        4092.00     17835.57
 1120.20        2963.50           2335        4663.00     20327.91
 1120.23        2963.75           2339        5243.00     22859.96
 1120.26        2964.00           2342        5760.00     25117.35
 1120.29        2964.25           2346        6496.00     28331.55
 1120.32        2964.50           2349        7070.00     30838.77
 1120.35        2964.75           2353        7736.00     33748.38
 1120.38        2965.00           2356        8090.00     35295.17
 1120.42        2965.25           2360        8608.00     37558.83
 1120.45        2965.50           2363        9041.00     39451.32
 1120.48        2965.75           2367        9568.00     41754.97
 1120.51        2966.00           2370        9858.00     43022.79
 1120.54        2966.25           2374       10803.00     47154.89
 1120.57        2966.50           2378       11150.00     48672.46
 1120.61        2966.75           2381       11378.00     49669.69
 1120.64        2967.00           2385       11102.00     48462.53
 1120.67        2967.25           2388       11135.00     48606.86
 1120.70        2967.50           2392       11098.00     48445.03
 1120.73        2967.75           2395       10957.00     47828.37
 1120.77        2968.00           2399       10634.00     46415.83
 1120.80        2968.25           2402       10172.00     44395.65
 1120.83        2968.50           2406        9595.00     41873.00
 1120.86        2968.75           2409        9149.00     39923.38
 1120.89        2969.00           2413        8530.00     37217.95
 1120.92        2969.25           2417        7883.00     34390.67
 1120.95        2969.50           2420        7494.00     32691.07
 1120.98        2969.75           2424        6812.00     29711.78
 1121.01        2970.00           2427        6226.00     27152.35
 1121.04        2970.25           2431        5643.00     24606.46
 1121.08        2970.50           2434        5139.00     22405.91
 1121.11        2970.75           2438        4561.00     19882.66
 1121.14        2971.00           2441        4113.00     17927.23
 1121.17        2971.25           2445        3474.00     15138.57
 1121.20        2971.50           2449        2747.00     11966.51
 1121.23        2971.75           2452        2192.00      9545.38
 1121.26        2972.00           2456        1561.00      6793.20
 1121.29        2972.25           2459        1094.00      4756.65
 1121.32        2972.50           2463         607.00      2633.19
 1121.35        2972.75           2466         305.00      1316.54
 1121.38        2973.00           2470          89.00       374.90
 1121.41        2973.25           2473          56.00       231.04
 1121.44        2973.50           2477          54.00       222.32
 1121.47        2973.75           2481          44.00       178.73
 1121.50        2974.00           2484          55.00       226.68
 1121.53        2974.25           2488          42.00       170.01
 1121.56        2974.50           2491          46.00       187.45
 1121.60        2974.75           2495          38.00       152.57
 1121.63        2975.00           2498          36.00       143.85
 1121.66        2975.25           2502          41.00       165.65
 1121.69        2975.50           2505          39.00       156.93
 1121.72        2975.75           2509          42.00       170.01
 1121.75        2976.00           2512          36.00       143.85
 1121.78        2976.25           2516          41.00       165.65
 1121.81        2976.50           2520          39.00       156.93
 1121.84        2976.75           2523          37.00       148.21
 1121.87        2977.00           2527          35.00       139.50
 1121.90        2977.25           2530          37.00       148.21
 1121.93        2977.50           2534          34.00       135.14
 1121.96        2977.75           2537          44.00       178.73
 1121.99        2978.00           2541          37.00       148.21
 1122.02        2978.25           2544          43.00       174.37
 1122.05        2978.50           2548          35.00       139.50
 1122.08        2978.75           2552          32.00       126.42
 1122.11        2979.00           2555          40.00       161.29
 1122.15        2979.25           2559          37.00       148.21
 1122.18        2979.50           2562          42.00       170.01
 1122.21        2979.75           2566          30.00       117.70
 1122.24        2980.00           2569          41.00       165.65
 1122.27        2980.25           2573          36.00       143.85
 1122.30        2980.50           2577          33.00       130.78
 1122.33        2980.75           2580          29.00       113.34
 1122.36        2981.00           2584          33.00       130.78
 1122.39        2981.25           2587          32.00       126.42
 1122.42        2981.50           2591          30.00       117.70
 1122.45        2981.75           2594          39.00       156.93
 1122.48        2982.00           2598          29.00       113.34
 1122.51        2982.25           2601          34.00       135.14
 1122.54        2982.50           2605          35.00       139.50
 1122.57        2982.75           2609          33.00       130.78
 1122.60        2983.00           2612          32.00       126.42
 1122.63        2983.25           2616          33.00       130.78
 1122.67        2983.50           2619          33.00       130.78
 1122.70        2983.75           2623          35.00       139.50
 1122.73        2984.00           2626          32.00       126.42
HS scan finished at 18:42:57
end
