************************************************************
  HS Scan of (1) Internal mercury lamp
************************************************************
Integration time is 0.2294 seconds per sample
dh290917Reading 51.44 .94 3.37pr1000
************************************************************
Dead Time -------------------------  3.4E-08 
Number of Cycles Used -------------  4 
Starting Wavelength (Angstroms) ---  2950 
Final Wavelength (Angstoms) -------  2984 
Wavelength Increment (Angstroms) --  .25 
Filter Wheel #1 Position ---------- (1) Ground quartz diffuser (ND=2.32)
Filter Wheel #2 Position ---------- (1) Neutral Density 0.494



************************************************************
HS scan start time = 03:08:37
Dark Count =  2.5 


Time (GMT)  Wavelength (Ang)  Step Number  Raw Counts  Counts/Second

  189.51        2950.00           2144         129.00       551.45
  189.71        2950.25           2147         115.00       490.42
  189.74        2950.50           2151         103.00       438.11
  189.77        2950.75           2155         116.00       494.78
  189.80        2951.00           2158         112.00       477.34
  189.83        2951.25           2162         112.00       477.34
  189.86        2951.50           2165         124.00       529.65
  189.89        2951.75           2169         109.00       464.26
  189.92        2952.00           2172         139.00       595.04
  189.95        2952.25           2176         114.00       486.06
  189.98        2952.50           2179         110.00       468.62
  190.01        2952.75           2183         137.00       586.32
  190.04        2953.00           2186         200.00       860.97
  190.07        2953.25           2190         133.00       568.89
  190.11        2953.50           2193         120.00       512.21
  190.14        2953.75           2197         157.00       673.51
  190.17        2954.00           2200         119.00       507.86
  190.20        2954.25           2204         132.00       564.53
  190.23        2954.50           2208         135.00       577.61
  190.26        2954.75           2211         138.00       590.68
  190.29        2955.00           2215         126.00       538.37
  190.32        2955.25           2218         125.00       534.01
  190.35        2955.50           2222         129.00       551.45
  190.38        2955.75           2225         134.00       573.25
  190.41        2956.00           2229         125.00       534.01
  190.44        2956.25           2232         112.00       477.34
  190.47        2956.50           2236         140.00       599.40
  190.50        2956.75           2239         126.00       538.37
  190.53        2957.00           2243         170.00       730.18
  190.56        2957.25           2246         141.00       603.76
  190.59        2957.50           2250         147.00       629.92
  190.63        2957.75           2254         153.00       656.07
  190.66        2958.00           2257         147.00       629.92
  190.69        2958.25           2261         152.00       651.71
  190.72        2958.50           2264         155.00       664.79
  190.75        2958.75           2268         158.00       677.87
  190.78        2959.00           2271         148.00       634.28
  190.81        2959.25           2275         152.00       651.71
  190.84        2959.50           2278         171.00       734.54
  190.87        2959.75           2282         142.00       608.12
  190.90        2960.00           2285         151.00       647.36
  190.93        2960.25           2289         155.00       664.79
  190.96        2960.50           2293         160.00       686.59
  190.99        2960.75           2296         172.00       738.90
  191.02        2961.00           2300         199.00       856.61
  191.05        2961.25           2303         369.00      1597.73
  191.08        2961.50           2307        1196.00      5203.62
  191.12        2961.75           2310        2617.00     11401.54
  191.15        2962.00           2314        4891.00     21325.40
  191.18        2962.25           2317        6808.00     29696.49
  191.21        2962.50           2321        9283.00     40511.30
  191.24        2962.75           2324       11143.00     48644.03
  191.27        2963.00           2328       13713.00     59888.61
  191.30        2963.25           2331       15646.00     68351.78
  191.33        2963.50           2335       18335.00     80133.03
  191.36        2963.75           2339       20710.00     90546.42
  191.39        2964.00           2342       22607.00     98869.29
  191.42        2964.25           2346       25159.00    110073.40
  191.45        2964.50           2349       27126.00    118714.90
  191.48        2964.75           2353       29784.00    130400.30
  191.51        2965.00           2356       31307.00    137100.10
  191.54        2965.25           2360       33522.00    146849.50
  191.57        2965.50           2363       35491.00    155521.60
  191.60        2965.75           2367       37811.00    165746.10
  191.63        2966.00           2370       39646.00    173838.30
  191.67        2966.25           2374       41685.00    182835.30
  191.70        2966.50           2378       42457.00    186243.20
  191.73        2966.75           2381       42786.00    187695.70
  191.76        2967.00           2385       42960.00    188464.00
  191.79        2967.25           2388       42906.00    188225.60
  191.82        2967.50           2392       42896.00    188181.40
  191.85        2967.75           2395       42599.00    186870.10
  191.88        2968.00           2399       41084.00    180182.90
  191.91        2968.25           2402       39578.00    173538.40
  191.94        2968.50           2406       37460.00    164198.80
  191.97        2968.75           2409       35556.00    155808.00
  192.00        2969.00           2413       33094.00    144965.20
  192.03        2969.25           2417       30457.00    133360.50
  192.06        2969.50           2420       28693.00    125602.80
  192.09        2969.75           2424       25893.00    113297.40
  192.12        2970.00           2427       24104.00    105440.50
  192.15        2970.25           2431       21672.00     94766.49
  192.19        2970.50           2434       19904.00     87011.62
  192.22        2970.75           2438       17543.00     76662.08
  192.25        2971.00           2441       15550.00     67931.35
  192.28        2971.25           2445       13004.00     56785.65
  192.31        2971.50           2449       10318.00     45036.22
  192.34        2971.75           2452        8521.00     37180.80
  192.37        2972.00           2456        6330.00     27608.73
  192.40        2972.25           2459        4805.00     20949.97
  192.43        2972.50           2463        2616.00     11397.18
  192.46        2972.75           2466        1278.00      5561.21
  192.49        2973.00           2470         404.00      1750.32
  192.52        2973.25           2473         213.00       917.64
  192.55        2973.50           2477         173.00       743.26
  192.58        2973.75           2481         173.00       743.26
  192.61        2974.00           2484         165.00       708.39
  192.64        2974.25           2488         163.00       699.67
  192.67        2974.50           2491         173.00       743.26
  192.71        2974.75           2495         162.00       695.31
  192.74        2975.00           2498         158.00       677.87
  192.77        2975.25           2502         170.00       730.18
  192.80        2975.50           2505         146.00       625.56
  192.83        2975.75           2509         151.00       647.36
  192.86        2976.00           2512         151.00       647.36
  192.89        2976.25           2516         174.00       747.62
  192.92        2976.50           2520         141.00       603.76
  192.95        2976.75           2523         138.00       590.68
  192.98        2977.00           2527         156.00       669.15
  193.01        2977.25           2530         136.00       581.96
  193.04        2977.50           2534         134.00       573.25
  193.07        2977.75           2537         132.00       564.53
  193.10        2978.00           2541         131.00       560.17
  193.13        2978.25           2544         150.00       643.00
  193.16        2978.50           2548         119.00       507.86
  193.19        2978.75           2552         160.00       686.59
  193.23        2979.00           2555         132.00       564.53
  193.26        2979.25           2559         134.00       573.25
  193.29        2979.50           2562         130.00       555.81
  193.32        2979.75           2566         120.00       512.21
  193.35        2980.00           2569         145.00       621.20
  193.38        2980.25           2573         142.00       608.12
  193.41        2980.50           2577         133.00       568.89
  193.44        2980.75           2580         133.00       568.89
  193.47        2981.00           2584         115.00       490.42
  193.50        2981.25           2587         123.00       525.29
  193.53        2981.50           2591         151.00       647.36
  193.56        2981.75           2594         120.00       512.21
  193.59        2982.00           2598         125.00       534.01
  193.62        2982.25           2601         101.00       429.39
  193.65        2982.50           2605         129.00       551.45
  193.68        2982.75           2609         101.00       429.39
  193.71        2983.00           2612         141.00       603.76
  193.75        2983.25           2616         144.00       616.84
  193.78        2983.50           2619         114.00       486.06
  193.81        2983.75           2623         110.00       468.62
  193.84        2984.00           2626         118.00       503.50
HS scan finished at 03:14:04
end
************************************************************
  HS Scan of (1) Internal mercury lamp
************************************************************
Integration time is 0.2294 seconds per sample
dh290917Reading 51.44 .94 3.49pr1000
************************************************************
Dead Time -------------------------  3.4E-08 
Number of Cycles Used -------------  4 
Starting Wavelength (Angstroms) ---  2950 
Final Wavelength (Angstoms) -------  2984 
Wavelength Increment (Angstroms) --  .25 
Filter Wheel #1 Position ---------- (1) Ground quartz diffuser (ND=2.32)
Filter Wheel #2 Position ---------- (1) Neutral Density 0.494



************************************************************
HS scan start time = 18:37:26
Dark Count =  2.4 


Time (GMT)  Wavelength (Ang)  Step Number  Raw Counts  Counts/Second

 1118.33        2950.00           2144         141.00       604.20
 1118.52        2950.25           2147         155.00       665.23
 1118.55        2950.50           2151         131.00       560.60
 1118.59        2950.75           2155         143.00       612.92
 1118.62        2951.00           2158         140.00       599.84
 1118.65        2951.25           2162         143.00       612.92
 1118.68        2951.50           2165         185.00       796.01
 1118.71        2951.75           2169         133.00       569.32
 1118.74        2952.00           2172         142.00       608.56
 1118.77        2952.25           2176         144.00       617.28
 1118.80        2952.50           2179         165.00       708.82
 1118.83        2952.75           2183         144.00       617.28
 1118.86        2953.00           2186         173.00       743.70
 1118.89        2953.25           2190         135.00       578.04
 1118.92        2953.50           2193         148.00       634.71
 1118.95        2953.75           2197         140.00       599.84
 1118.98        2954.00           2200         142.00       608.56
 1119.01        2954.25           2204         143.00       612.92
 1119.04        2954.50           2208         155.00       665.23
 1119.07        2954.75           2211         140.00       599.84
 1119.11        2955.00           2215         153.00       656.51
 1119.14        2955.25           2218         151.00       647.79
 1119.17        2955.50           2222         167.00       717.54
 1119.20        2955.75           2225         166.00       713.18
 1119.23        2956.00           2229         155.00       665.23
 1119.26        2956.25           2232         171.00       734.98
 1119.29        2956.50           2236         161.00       691.39
 1119.32        2956.75           2239         161.00       691.39
 1119.35        2957.00           2243         166.00       713.18
 1119.38        2957.25           2246         156.00       669.59
 1119.41        2957.50           2250         163.00       700.10
 1119.44        2957.75           2254         171.00       734.98
 1119.47        2958.00           2257         171.00       734.98
 1119.50        2958.25           2261         181.00       778.57
 1119.53        2958.50           2264         176.00       756.78
 1119.56        2958.75           2268         176.00       756.78
 1119.59        2959.00           2271         179.00       769.85
 1119.63        2959.25           2275         191.00       822.17
 1119.66        2959.50           2278         192.00       826.53
 1119.69        2959.75           2282         183.00       787.29
 1119.72        2960.00           2285         194.00       835.25
 1119.75        2960.25           2289         189.00       813.45
 1119.78        2960.50           2293         192.00       826.53
 1119.81        2960.75           2296         242.00      1044.50
 1119.84        2961.00           2300         292.00      1262.48
 1119.87        2961.25           2303         677.00      2941.01
 1119.90        2961.50           2307        2292.00      9984.21
 1119.93        2961.75           2310        4219.00     18392.49
 1119.96        2962.00           2314        7042.00     30719.08
 1119.99        2962.25           2317        9158.00     39965.34
 1120.02        2962.50           2321       12518.00     54659.46
 1120.05        2962.75           2324       15331.00     66972.73
 1120.08        2963.00           2328       18951.00     82833.66
 1120.11        2963.25           2331       21585.00     94385.24
 1120.14        2963.50           2335       24796.00    108479.60
 1120.18        2963.75           2339       28108.00    123031.50
 1120.21        2964.00           2342       30678.00    134333.20
 1120.24        2964.25           2346       34184.00    149765.10
 1120.27        2964.50           2349       36860.00    161554.50
 1120.30        2964.75           2353       40008.00    175435.70
 1120.33        2965.00           2356       42219.00    185192.90
 1120.36        2965.25           2360       45423.00    199343.90
 1120.39        2965.50           2363       47752.00    209638.90
 1120.42        2965.75           2367       50887.00    223508.10
 1120.45        2966.00           2370       53171.00    233620.80
 1120.48        2966.25           2374       55917.00    245788.30
 1120.51        2966.50           2378       57120.00    251122.00
 1120.54        2966.75           2381       57560.00    253073.20
 1120.57        2967.00           2385       57476.00    252700.70
 1120.60        2967.25           2388       57504.00    252824.90
 1120.63        2967.50           2392       57484.00    252736.20
 1120.66        2967.75           2395       57080.00    250944.60
 1120.70        2968.00           2399       55476.00    243833.50
 1120.73        2968.25           2402       53260.00    234015.00
 1120.76        2968.50           2406       50280.00    220821.70
 1120.79        2968.75           2409       47876.00    210187.20
 1120.82        2969.00           2413       45036.00    197634.00
 1120.85        2969.25           2417       41995.00    184204.10
 1120.88        2969.50           2420       39266.00    172162.60
 1120.91        2969.75           2424       35934.00    157473.90
 1120.94        2970.00           2427       33192.00    145397.10
 1120.97        2970.25           2431       29412.00    128764.80
 1121.00        2970.50           2434       26941.00    117902.40
 1121.03        2970.75           2438       23324.00    102016.70
 1121.06        2971.00           2441       20809.00     90981.09
 1121.09        2971.25           2445       17219.00     75242.82
 1121.12        2971.50           2449       13598.00     59385.70
 1121.15        2971.75           2452       11094.00     48430.16
 1121.19        2972.00           2456        7927.00     34585.55
 1121.22        2972.25           2459        5582.00     24342.72
 1121.25        2972.50           2463        2837.00     12361.78
 1121.28        2972.75           2466        1381.00      6010.82
 1121.31        2973.00           2470         424.00      1837.95
 1121.34        2973.25           2473         262.00      1131.69
 1121.37        2973.50           2477         222.00       957.31
 1121.40        2973.75           2481         217.00       935.51
 1121.43        2974.00           2484         206.00       887.56
 1121.46        2974.25           2488         190.00       817.81
 1121.49        2974.50           2491         199.00       857.04
 1121.52        2974.75           2495         198.00       852.68
 1121.55        2975.00           2498         191.00       822.17
 1121.58        2975.25           2502         187.00       804.73
 1121.61        2975.50           2505         171.00       734.98
 1121.64        2975.75           2509         178.00       765.50
 1121.67        2976.00           2512         170.00       730.62
 1121.70        2976.25           2516         162.00       695.74
 1121.74        2976.50           2520         172.00       739.34
 1121.77        2976.75           2523         165.00       708.82
 1121.80        2977.00           2527         156.00       669.59
 1121.83        2977.25           2530         160.00       687.03
 1121.86        2977.50           2534         160.00       687.03
 1121.89        2977.75           2537         168.00       721.90
 1121.92        2978.00           2541         150.00       643.43
 1121.95        2978.25           2544         146.00       625.99
 1121.98        2978.50           2548         144.00       617.28
 1122.01        2978.75           2552         157.00       673.95
 1122.04        2979.00           2555         151.00       647.79
 1122.07        2979.25           2559         150.00       643.43
 1122.10        2979.50           2562         160.00       687.03
 1122.13        2979.75           2566         150.00       643.43
 1122.16        2980.00           2569         139.00       595.48
 1122.19        2980.25           2573         161.00       691.39
 1122.22        2980.50           2577         138.00       591.12
 1122.26        2980.75           2580         161.00       691.39
 1122.29        2981.00           2584         147.00       630.35
 1122.32        2981.25           2587         152.00       652.15
 1122.35        2981.50           2591         126.00       538.81
 1122.38        2981.75           2594         136.00       582.40
 1122.41        2982.00           2598         159.00       682.67
 1122.44        2982.25           2601         149.00       639.07
 1122.47        2982.50           2605         147.00       630.35
 1122.50        2982.75           2609         159.00       682.67
 1122.53        2983.00           2612         144.00       617.28
 1122.56        2983.25           2616         130.00       556.24
 1122.59        2983.50           2619         154.00       660.87
 1122.62        2983.75           2623         130.00       556.24
 1122.65        2984.00           2626         145.00       621.63
HS scan finished at 18:42:53
end
