************************************************************
  HS Scan of (1) Internal mercury lamp
************************************************************
Integration time is 0.2294 seconds per sample
dh021018Reading 51.44 .94 3.05pr1000
************************************************************
Dead Time -------------------------  3.4E-08 
Number of Cycles Used -------------  4 
Starting Wavelength (Angstroms) ---  2950 
Final Wavelength (Angstoms) -------  2984 
Wavelength Increment (Angstroms) --  .25 
Filter Wheel #1 Position ---------- (1) Ground quartz diffuser (ND=2.32)
Filter Wheel #2 Position ---------- (1) Neutral Density 0.494



************************************************************
HS scan start time = 03:15:24
Dark Count =  .9 


Time (GMT)  Wavelength (Ang)  Step Number  Raw Counts  Counts/Second

  196.29        2950.00           2144          62.00       266.35
  196.48        2950.25           2147          61.00       261.99
  196.51        2950.50           2151          89.00       384.05
  196.54        2950.75           2155          94.00       405.85
  196.57        2951.00           2158          81.00       349.18
  196.60        2951.25           2162          87.00       375.33
  196.64        2951.50           2165          85.00       366.61
  196.67        2951.75           2169          81.00       349.18
  196.70        2952.00           2172          88.00       379.69
  196.73        2952.25           2176          91.00       392.77
  196.76        2952.50           2179          88.00       379.69
  196.79        2952.75           2183          92.00       397.13
  196.82        2953.00           2186          91.00       392.77
  196.85        2953.25           2190         100.00       432.00
  196.88        2953.50           2193          97.00       418.92
  196.91        2953.75           2197          57.00       244.55
  196.94        2954.00           2200          53.00       227.12
  196.97        2954.25           2204          90.00       388.41
  197.00        2954.50           2208          94.00       405.85
  197.03        2954.75           2211          71.00       305.58
  197.06        2955.00           2215          73.00       314.30
  197.09        2955.25           2218          67.00       288.15
  197.12        2955.50           2222         105.00       453.80
  197.16        2955.75           2225          66.00       283.79
  197.19        2956.00           2229          59.00       253.27
  197.22        2956.25           2232          68.00       292.51
  197.25        2956.50           2236          71.00       305.58
  197.28        2956.75           2239         101.00       436.36
  197.31        2957.00           2243          70.00       301.22
  197.34        2957.25           2246          71.00       305.58
  197.37        2957.50           2250         111.00       479.96
  197.40        2957.75           2254          80.00       344.82
  197.43        2958.00           2257          69.00       296.86
  197.46        2958.25           2261          73.00       314.30
  197.49        2958.50           2264          69.00       296.86
  197.52        2958.75           2268         116.00       501.75
  197.55        2959.00           2271          80.00       344.82
  197.58        2959.25           2275          75.00       323.02
  197.61        2959.50           2278          77.00       331.74
  197.64        2959.75           2282         124.00       536.63
  197.68        2960.00           2285         125.00       540.99
  197.71        2960.25           2289         133.00       575.86
  197.74        2960.50           2293         126.00       545.35
  197.77        2960.75           2296         144.00       623.81
  197.80        2961.00           2300         179.00       776.39
  197.83        2961.25           2303         276.00      1199.26
  197.86        2961.50           2307         745.00      3244.04
  197.89        2961.75           2310        1397.00      6087.14
  197.92        2962.00           2314        2472.00     10775.96
  197.95        2962.25           2317        3345.00     14584.83
  197.98        2962.50           2321        7675.00     33491.04
  198.01        2962.75           2324        8732.00     38109.94
  198.04        2963.00           2328       10577.00     46175.75
  198.07        2963.25           2331       12013.00     52456.60
  198.10        2963.50           2335       14128.00     61712.18
  198.13        2963.75           2339       15943.00     69659.55
  198.16        2964.00           2342       17772.00     77672.60
  198.20        2964.25           2346       12555.00     54827.92
  198.23        2964.50           2349       13946.00     60915.49
  198.26        2964.75           2353       23632.00    103375.30
  198.29        2965.00           2356       22751.00     99508.28
  198.32        2965.25           2360       16900.00     73851.73
  198.35        2965.50           2363       16942.00     74035.75
  198.38        2965.75           2367       17494.00     76454.36
  198.41        2966.00           2370       33286.00    145817.50
  198.44        2966.25           2374       33488.00    146706.90
  198.47        2966.50           2378       34446.00    150925.50
  198.50        2966.75           2381       34606.00    151630.20
  198.53        2967.00           2385       34927.00    153044.10
  198.56        2967.25           2388       34827.00    152603.60
  198.59        2967.50           2392       34855.00    152727.00
  198.62        2967.75           2395       34788.00    152431.80
  198.65        2968.00           2399       33466.00    146610.00
  198.68        2968.25           2402       32221.00    141129.40
  198.71        2968.50           2406       30178.00    132140.30
  198.75        2968.75           2409       28729.00    125768.10
  198.78        2969.00           2413       26947.00    117935.30
  198.81        2969.25           2417       24944.00    109136.10
  198.84        2969.50           2420       23493.00    102765.10
  198.87        2969.75           2424       21373.00     93461.74
  198.91        2970.00           2427       19458.00     85063.01
  198.94        2970.25           2431       17438.00     76208.99
  198.97        2970.50           2434       16033.00     70053.75
  199.00        2970.75           2438       14006.00     61178.13
  199.03        2971.00           2441       12389.00     54101.61
  199.06        2971.25           2445       10369.00     45266.21
  199.09        2971.50           2449        8356.00     36466.72
  199.12        2971.75           2452        7020.00     30629.53
  199.15        2972.00           2456        5258.00     22934.62
  199.18        2972.25           2459        3746.00     16334.70
  199.21        2972.50           2463        1910.00      8324.50
  199.24        2972.75           2466         893.00      3889.35
  199.27        2973.00           2470         244.00      1059.76
  199.30        2973.25           2473         175.00       758.96
  199.33        2973.50           2477         150.00       649.97
  199.36        2973.75           2481         146.00       632.53
  199.39        2974.00           2484         125.00       540.99
  199.43        2974.25           2488         152.00       658.69
  199.46        2974.50           2491         151.00       654.33
  199.49        2974.75           2495         123.00       532.27
  199.52        2975.00           2498         157.00       680.49
  199.55        2975.25           2502         104.00       449.44
  199.58        2975.50           2505          74.00       318.66
  199.61        2975.75           2509          72.00       309.94
  199.64        2976.00           2512          80.00       344.82
  199.67        2976.25           2516         133.00       575.86
  199.70        2976.50           2520          77.00       331.74
  199.73        2976.75           2523          76.00       327.38
  199.76        2977.00           2527          70.00       301.22
  199.79        2977.25           2530          75.00       323.02
  199.82        2977.50           2534          73.00       314.30
  199.85        2977.75           2537          70.00       301.22
  199.88        2978.00           2541          70.00       301.22
  199.91        2978.25           2544          72.00       309.94
  199.95        2978.50           2548          70.00       301.22
  199.98        2978.75           2552          66.00       283.79
  200.01        2979.00           2555          73.00       314.30
  200.04        2979.25           2559         101.00       436.36
  200.07        2979.50           2562          66.00       283.79
  200.10        2979.75           2566          66.00       283.79
  200.13        2980.00           2569          65.00       279.43
  200.16        2980.25           2573          68.00       292.51
  200.19        2980.50           2577          66.00       283.79
  200.22        2980.75           2580          61.00       261.99
  200.25        2981.00           2584          66.00       283.79
  200.28        2981.25           2587          73.00       314.30
  200.31        2981.50           2591          99.00       427.64
  200.34        2981.75           2594          62.00       266.35
  200.37        2982.00           2598          60.00       257.63
  200.40        2982.25           2601          57.00       244.55
  200.43        2982.50           2605          56.00       240.19
  200.47        2982.75           2609          60.00       257.63
  200.50        2983.00           2612          63.00       270.71
  200.53        2983.25           2616          62.00       266.35
  200.56        2983.50           2619          93.00       401.49
  200.59        2983.75           2623          58.00       248.91
  200.62        2984.00           2626          66.00       283.79
HS scan finished at 03:20:50
end
************************************************************
  HS Scan of (1) Internal mercury lamp
************************************************************
Integration time is 0.2294 seconds per sample
dh021018Reading 51.44 .94 3.58pr1000
************************************************************
Dead Time -------------------------  3.4E-08 
Number of Cycles Used -------------  4 
Starting Wavelength (Angstroms) ---  2950 
Final Wavelength (Angstoms) -------  2984 
Wavelength Increment (Angstroms) --  .25 
Filter Wheel #1 Position ---------- (1) Ground quartz diffuser (ND=2.32)
Filter Wheel #2 Position ---------- (1) Neutral Density 0.494



************************************************************
HS scan start time = 18:37:30
Dark Count =  3.1 


Time (GMT)  Wavelength (Ang)  Step Number  Raw Counts  Counts/Second

 1118.40        2950.00           2144          34.00       134.70
 1118.59        2950.25           2147          34.00       134.70
 1118.62        2950.50           2151          38.00       152.14
 1118.65        2950.75           2155          36.00       143.42
 1118.69        2951.00           2158          33.00       130.34
 1118.72        2951.25           2162          31.00       121.62
 1118.75        2951.50           2165          30.00       117.26
 1118.78        2951.75           2169          31.00       121.62
 1118.81        2952.00           2172          31.00       121.62
 1118.84        2952.25           2176          30.00       117.26
 1118.87        2952.50           2179          33.00       130.34
 1118.90        2952.75           2183          36.00       143.42
 1118.93        2953.00           2186          38.00       152.14
 1118.96        2953.25           2190          39.00       156.50
 1118.99        2953.50           2193          44.00       178.29
 1119.02        2953.75           2197          39.00       156.50
 1119.05        2954.00           2200          36.00       143.42
 1119.08        2954.25           2204          33.00       130.34
 1119.11        2954.50           2208          37.00       147.78
 1119.15        2954.75           2211          36.00       143.42
 1119.19        2955.00           2215          32.00       125.98
 1119.22        2955.25           2218          35.00       139.06
 1119.25        2955.50           2222          39.00       156.50
 1119.28        2955.75           2225          41.00       165.21
 1119.31        2956.00           2229          34.00       134.70
 1119.34        2956.25           2232          37.00       147.78
 1119.37        2956.50           2236          36.00       143.42
 1119.40        2956.75           2239          43.00       173.93
 1119.43        2957.00           2243          38.00       152.14
 1119.46        2957.25           2246          39.00       156.50
 1119.49        2957.50           2250          34.00       134.70
 1119.52        2957.75           2254          38.00       152.14
 1119.55        2958.00           2257          36.00       143.42
 1119.59        2958.25           2261          41.00       165.21
 1119.62        2958.50           2264          44.00       178.29
 1119.65        2958.75           2268          37.00       147.78
 1119.68        2959.00           2271          39.00       156.50
 1119.71        2959.25           2275          45.00       182.65
 1119.74        2959.50           2278          37.00       147.78
 1119.77        2959.75           2282          49.00       200.09
 1119.80        2960.00           2285          47.00       191.37
 1119.83        2960.25           2289          49.00       200.09
 1119.86        2960.50           2293          44.00       178.29
 1119.89        2960.75           2296          45.00       182.65
 1119.92        2961.00           2300          49.00       200.09
 1119.95        2961.25           2303          90.00       378.82
 1119.98        2961.50           2307         319.00      1377.14
 1120.01        2961.75           2310         713.00      3094.92
 1120.04        2962.00           2314        1211.00      5266.42
 1120.07        2962.25           2317        1584.00      6893.07
 1120.11        2962.50           2321        2194.00      9553.67
 1120.14        2962.75           2324        2719.00     11843.91
 1120.17        2963.00           2328        3346.00     14579.59
 1120.20        2963.25           2331        3810.00     16604.40
 1120.23        2963.50           2335        4413.00     19236.20
 1120.26        2963.75           2339        5081.00     22152.25
 1120.29        2964.00           2342        5578.00     24322.20
 1120.32        2964.25           2346        6302.00     27483.82
 1120.35        2964.50           2349        6772.00     29536.62
 1120.38        2964.75           2353        7458.00     32533.35
 1120.41        2965.00           2356        7963.00     34739.79
 1120.44        2965.25           2360        8571.00     37396.70
 1120.47        2965.50           2363        9043.00     39459.62
 1120.50        2965.75           2367        9388.00     40967.67
 1120.53        2966.00           2370        9990.00     43599.46
 1120.56        2966.25           2374       10324.00     45059.83
 1120.59        2966.50           2378       10682.00     46625.30
 1120.63        2966.75           2381       10974.00     47902.28
 1120.66        2967.00           2385       11028.00     48138.45
 1120.69        2967.25           2388       10954.00     47814.82
 1120.72        2967.50           2392       10850.00     47359.99
 1120.75        2967.75           2395       10639.00     46437.26
 1120.78        2968.00           2399       10408.00     45427.13
 1120.81        2968.25           2402        9883.00     43131.65
 1120.84        2968.50           2406        9305.00     40604.85
 1120.87        2968.75           2409        9457.00     41269.29
 1120.90        2969.00           2413        8685.00     37894.92
 1120.93        2969.25           2417        7828.00     34149.92
 1120.96        2969.50           2420        7353.00     32074.63
 1120.99        2969.75           2424        6718.00     29300.76
 1121.02        2970.00           2427        6177.00     26937.92
 1121.05        2970.25           2431        5429.00     23671.62
 1121.08        2970.50           2434        5077.00     22134.79
 1121.11        2970.75           2438        4423.00     19279.85
 1121.15        2971.00           2441        3921.00     17088.83
 1121.18        2971.25           2445        3445.00     15011.58
 1121.21        2971.50           2449        2870.00     12502.70
 1121.24        2971.75           2452        2405.00     10474.09
 1121.27        2972.00           2456        1785.00      7769.71
 1121.30        2972.25           2459        1366.00      5942.35
 1121.33        2972.50           2463         693.00      3007.72
 1121.36        2972.75           2466         355.00      1534.08
 1121.39        2973.00           2470         144.00       614.22
 1121.42        2973.25           2473          71.00       295.99
 1121.45        2973.50           2477          45.00       182.65
 1121.48        2973.75           2481          53.00       217.53
 1121.51        2974.00           2484          51.00       208.81
 1121.54        2974.25           2488          45.00       182.65
 1121.57        2974.50           2491          46.00       187.01
 1121.60        2974.75           2495          49.00       200.09
 1121.63        2975.00           2498          44.00       178.29
 1121.67        2975.25           2502          37.00       147.78
 1121.70        2975.50           2505          39.00       156.50
 1121.73        2975.75           2509          45.00       182.65
 1121.76        2976.00           2512          33.00       130.34
 1121.79        2976.25           2516          44.00       178.29
 1121.82        2976.50           2520          41.00       165.21
 1121.85        2976.75           2523          41.00       165.21
 1121.88        2977.00           2527          38.00       152.14
 1121.91        2977.25           2530          37.00       147.78
 1121.94        2977.50           2534          37.00       147.78
 1121.97        2977.75           2537          32.00       125.98
 1122.00        2978.00           2541          39.00       156.50
 1122.03        2978.25           2544          36.00       143.42
 1122.06        2978.50           2548          39.00       156.50
 1122.09        2978.75           2552          38.00       152.14
 1122.12        2979.00           2555          39.00       156.50
 1122.15        2979.25           2559          33.00       130.34
 1122.19        2979.50           2562          34.00       134.70
 1122.22        2979.75           2566          37.00       147.78
 1122.25        2980.00           2569          34.00       134.70
 1122.28        2980.25           2573          34.00       134.70
 1122.31        2980.50           2577          35.00       139.06
 1122.34        2980.75           2580          33.00       130.34
 1122.38        2981.00           2584          35.00       139.06
 1122.41        2981.25           2587          40.00       160.86
 1122.44        2981.50           2591          32.00       125.98
 1122.47        2981.75           2594          37.00       147.78
 1122.50        2982.00           2598          31.00       121.62
 1122.53        2982.25           2601          36.00       143.42
 1122.56        2982.50           2605          38.00       152.14
 1122.59        2982.75           2609          37.00       147.78
 1122.62        2983.00           2612          35.00       139.06
 1122.65        2983.25           2616          32.00       125.98
 1122.68        2983.50           2619          31.00       121.62
 1122.71        2983.75           2623          31.00       121.62
 1122.74        2984.00           2626          37.00       147.78
HS scan finished at 18:42:58
end
