************************************************************
  HS Scan of (1) Internal mercury lamp
************************************************************
Integration time is 0.2294 seconds per sample
dh031017Reading 51.44 .94 3pr1000
************************************************************
Dead Time -------------------------  3.4E-08 
Number of Cycles Used -------------  4 
Starting Wavelength (Angstroms) ---  2950 
Final Wavelength (Angstoms) -------  2984 
Wavelength Increment (Angstroms) --  .25 
Filter Wheel #1 Position ---------- (1) Ground quartz diffuser (ND=2.32)
Filter Wheel #2 Position ---------- (1) Neutral Density 0.494



************************************************************
HS scan start time = 03:18:25
Dark Count =  1 


Time (GMT)  Wavelength (Ang)  Step Number  Raw Counts  Counts/Second

  199.32        2950.00           2144         127.00       549.27
  199.51        2950.25           2147         138.00       597.22
  199.54        2950.50           2151         139.00       601.58
  199.57        2950.75           2155         119.00       514.39
  199.60        2951.00           2158         126.00       544.91
  199.63        2951.25           2162         130.00       562.35
  199.66        2951.50           2165         148.00       640.82
  199.69        2951.75           2169         153.00       662.61
  199.72        2952.00           2172         156.00       675.69
  199.75        2952.25           2176         143.00       619.02
  199.78        2952.50           2179         143.00       619.02
  199.81        2952.75           2183         132.00       571.07
  199.84        2953.00           2186         119.00       514.39
  199.88        2953.25           2190         138.00       597.22
  199.91        2953.50           2193         163.00       706.21
  199.94        2953.75           2197         150.00       649.53
  199.97        2954.00           2200         127.00       549.27
  200.00        2954.25           2204         141.00       610.30
  200.03        2954.50           2208         149.00       645.18
  200.06        2954.75           2211         125.00       540.55
  200.09        2955.00           2215         138.00       597.22
  200.12        2955.25           2218         153.00       662.61
  200.15        2955.50           2222         144.00       623.38
  200.18        2955.75           2225         144.00       623.38
  200.21        2956.00           2229         153.00       662.61
  200.24        2956.25           2232         142.00       614.66
  200.27        2956.50           2236         143.00       619.02
  200.30        2956.75           2239         162.00       701.85
  200.33        2957.00           2243         146.00       632.10
  200.36        2957.25           2246         139.00       601.58
  200.40        2957.50           2250         142.00       614.66
  200.43        2957.75           2254         174.00       754.16
  200.47        2958.00           2257         165.00       714.93
  200.50        2958.25           2261         158.00       684.41
  200.53        2958.50           2264         167.00       723.64
  200.56        2958.75           2268         152.00       658.25
  200.59        2959.00           2271         167.00       723.64
  200.62        2959.25           2275         167.00       723.64
  200.66        2959.50           2278         169.00       732.36
  200.69        2959.75           2282         157.00       680.05
  200.72        2960.00           2285         167.00       723.64
  200.75        2960.25           2289         198.00       858.79
  200.78        2960.50           2293         166.00       719.29
  200.81        2960.75           2296         180.00       780.32
  200.85        2961.00           2300         227.00       985.21
  200.88        2961.25           2303         518.00      2253.88
  200.91        2961.50           2307        1666.00      7259.86
  200.94        2961.75           2310        3233.00     14095.68
  200.97        2962.00           2314        5400.00     23554.17
  201.00        2962.25           2317        7047.00     30747.04
  201.03        2962.50           2321        9534.00     41615.08
  201.06        2962.75           2324       11450.00     49993.37
  201.09        2963.00           2328       14154.00     61825.56
  201.12        2963.25           2331       16283.00     71148.36
  201.15        2963.50           2335       18798.00     82169.08
  201.18        2963.75           2339       21166.00     92553.22
  201.21        2964.00           2342       22894.00    100135.50
  201.24        2964.25           2346       25653.00    112249.70
  201.27        2964.50           2349       27949.00    122338.70
  201.30        2964.75           2353       30467.00    133411.10
  201.33        2965.00           2356       32346.00    141679.10
  201.37        2965.25           2360       34562.00    151436.00
  201.40        2965.50           2363       36430.00    159665.60
  201.43        2965.75           2367       38659.00    169491.80
  201.46        2966.00           2370       40308.00    176765.40
  201.49        2966.25           2374       42819.00    187848.10
  201.52        2966.50           2378       44080.00    193416.90
  201.55        2966.75           2381       44210.00    193991.10
  201.58        2967.00           2385       44444.00    195024.70
  201.61        2967.25           2388       44573.00    195594.60
  201.64        2967.50           2392       44632.00    195855.30
  201.68        2967.75           2395       44347.00    194596.30
  201.72        2968.00           2399       43359.00    190232.60
  201.75        2968.25           2402       41835.00    183504.00
  201.78        2968.50           2406       39379.00    172667.20
  201.81        2968.75           2409       37544.00    164575.70
  201.84        2969.00           2413       34842.00    152669.20
  201.87        2969.25           2417       32455.00    142158.90
  201.90        2969.50           2420       30694.00    134409.70
  201.93        2969.75           2424       27659.00    121064.00
  201.96        2970.00           2427       25834.00    113044.80
  201.99        2970.25           2431       23124.00    101145.00
  202.02        2970.50           2434       20904.00     91403.93
  202.05        2970.75           2438       18135.00     79263.02
  202.08        2971.00           2441       16363.00     71498.80
  202.11        2971.25           2445       13856.00     60521.10
  202.15        2971.50           2449       10694.00     46686.96
  202.18        2971.75           2452        8844.00     38599.01
  202.21        2972.00           2456        6265.00     27331.40
  202.24        2972.25           2459        4566.00     19913.22
  202.27        2972.50           2463        2482.00     10819.15
  202.30        2972.75           2466        1242.00      5410.76
  202.33        2973.00           2470         368.00      1599.91
  202.36        2973.25           2473         266.00      1155.23
  202.39        2973.50           2477         193.00       836.99
  202.42        2973.75           2481         196.00       850.07
  202.45        2974.00           2484         178.00       771.60
  202.48        2974.25           2488         173.00       749.80
  202.51        2974.50           2491         168.00       728.00
  202.54        2974.75           2495         174.00       754.16
  202.57        2975.00           2498         167.00       723.64
  202.60        2975.25           2502         162.00       701.85
  202.63        2975.50           2505         158.00       684.41
  202.66        2975.75           2509         157.00       680.05
  202.70        2976.00           2512         160.00       693.13
  202.73        2976.25           2516         175.00       758.52
  202.76        2976.50           2520         151.00       653.89
  202.79        2976.75           2523         152.00       658.25
  202.82        2977.00           2527         157.00       680.05
  202.85        2977.25           2530         156.00       675.69
  202.88        2977.50           2534         148.00       640.82
  202.91        2977.75           2537         160.00       693.13
  202.94        2978.00           2541         144.00       623.38
  202.97        2978.25           2544         158.00       684.41
  203.00        2978.50           2548         166.00       719.29
  203.03        2978.75           2552         127.00       549.27
  203.06        2979.00           2555         142.00       614.66
  203.09        2979.25           2559         133.00       575.43
  203.12        2979.50           2562         133.00       575.43
  203.15        2979.75           2566         143.00       619.02
  203.18        2980.00           2569         155.00       671.33
  203.22        2980.25           2573         140.00       605.94
  203.25        2980.50           2577         129.00       557.99
  203.28        2980.75           2580         135.00       584.14
  203.31        2981.00           2584         119.00       514.39
  203.34        2981.25           2587         147.00       636.46
  203.37        2981.50           2591         155.00       671.33
  203.40        2981.75           2594         112.00       483.88
  203.43        2982.00           2598         135.00       584.14
  203.46        2982.25           2601         142.00       614.66
  203.49        2982.50           2605         142.00       614.66
  203.52        2982.75           2609         158.00       684.41
  203.55        2983.00           2612         119.00       514.39
  203.58        2983.25           2616         118.00       510.03
  203.61        2983.50           2619         133.00       575.43
  203.64        2983.75           2623         127.00       549.27
  203.67        2984.00           2626         139.00       601.58
HS scan finished at 03:23:54
end
************************************************************
  HS Scan of (1) Internal mercury lamp
************************************************************
Integration time is 0.2294 seconds per sample
dh031017Reading 51.44 .94 3.35pr1000
************************************************************
Dead Time -------------------------  3.4E-08 
Number of Cycles Used -------------  4 
Starting Wavelength (Angstroms) ---  2950 
Final Wavelength (Angstoms) -------  2984 
Wavelength Increment (Angstroms) --  .25 
Filter Wheel #1 Position ---------- (1) Ground quartz diffuser (ND=2.32)
Filter Wheel #2 Position ---------- (1) Neutral Density 0.494



************************************************************
HS scan start time = 18:37:28
Dark Count =  2 


Time (GMT)  Wavelength (Ang)  Step Number  Raw Counts  Counts/Second

 1118.37        2950.00           2144         157.00       675.69
 1118.56        2950.25           2147         157.00       675.69
 1118.59        2950.50           2151         168.00       723.64
 1118.62        2950.75           2155         151.00       649.53
 1118.65        2951.00           2158         157.00       675.69
 1118.68        2951.25           2162         145.00       623.38
 1118.72        2951.50           2165         165.00       710.57
 1118.75        2951.75           2169         172.00       741.08
 1118.78        2952.00           2172         163.00       701.85
 1118.81        2952.25           2176         177.00       762.88
 1118.84        2952.50           2179         165.00       710.57
 1118.87        2952.75           2183         158.00       680.05
 1118.90        2953.00           2186         161.00       693.13
 1118.93        2953.25           2190         158.00       680.05
 1118.96        2953.50           2193         156.00       671.33
 1118.99        2953.75           2197         173.00       745.44
 1119.02        2954.00           2200         178.00       767.24
 1119.05        2954.25           2204         164.00       706.21
 1119.08        2954.50           2208         168.00       723.64
 1119.11        2954.75           2211         169.00       728.00
 1119.14        2955.00           2215         166.00       714.93
 1119.17        2955.25           2218         180.00       775.96
 1119.20        2955.50           2222         174.00       749.80
 1119.24        2955.75           2225         177.00       762.88
 1119.27        2956.00           2229         174.00       749.80
 1119.30        2956.25           2232         185.00       797.75
 1119.33        2956.50           2236         158.00       680.05
 1119.36        2956.75           2239         178.00       767.24
 1119.39        2957.00           2243         180.00       775.96
 1119.42        2957.25           2246         186.00       802.11
 1119.45        2957.50           2250         182.00       784.68
 1119.48        2957.75           2254         177.00       762.88
 1119.51        2958.00           2257         180.00       775.96
 1119.54        2958.25           2261         199.00       858.79
 1119.57        2958.50           2264         190.00       819.55
 1119.60        2958.75           2268         214.00       924.18
 1119.63        2959.00           2271         199.00       858.79
 1119.66        2959.25           2275         198.00       854.43
 1119.69        2959.50           2278         188.00       810.83
 1119.72        2959.75           2282         210.00       906.74
 1119.76        2960.00           2285         204.00       880.58
 1119.79        2960.25           2289         224.00       967.77
 1119.82        2960.50           2293         214.00       924.18
 1119.85        2960.75           2296         223.00       963.41
 1119.88        2961.00           2300         254.00      1098.56
 1119.91        2961.25           2303         421.00      1826.62
 1119.94        2961.50           2307        1554.00      6767.03
 1119.97        2961.75           2310        3489.00     15208.39
 1120.00        2962.00           2314        6438.00     28082.60
 1120.03        2962.25           2317        8731.00     38100.77
 1120.06        2962.50           2321       12084.00     52762.40
 1120.10        2962.75           2324       14557.00     63585.45
 1120.13        2963.00           2328       18375.00     80310.54
 1120.16        2963.25           2331       20889.00     91333.75
 1120.19        2963.50           2335       24172.00    105741.30
 1120.22        2963.75           2339       27217.00    119117.00
 1120.25        2964.00           2342       29077.00    127293.40
 1120.28        2964.25           2346       32550.00    142572.60
 1120.31        2964.50           2349       34688.00    151986.50
 1120.34        2964.75           2353       37750.00    165479.40
 1120.37        2965.00           2356       39838.00    174687.50
 1120.40        2965.25           2360       42334.00    185702.40
 1120.43        2965.50           2363       44620.00    195797.80
 1120.47        2965.75           2367       47384.00    208013.50
 1120.50        2966.00           2370       49029.00    215288.50
 1120.53        2966.25           2374       50609.00    222279.50
 1120.56        2966.50           2378       51325.00    225448.70
 1120.59        2966.75           2381       51194.00    224868.80
 1120.62        2967.00           2385       51040.00    224187.10
 1120.65        2967.25           2388       50574.00    222124.60
 1120.68        2967.50           2392       49840.00    218876.50
 1120.71        2967.75           2395       48890.00    214673.70
 1120.74        2968.00           2399       46969.00    206178.70
 1120.77        2968.25           2402       44785.00    196526.80
 1120.80        2968.50           2406       41724.00    183009.70
 1120.83        2968.75           2409       39091.00    171392.60
 1120.86        2969.00           2413       36105.00    158229.10
 1120.89        2969.25           2417       32882.00    144034.10
 1120.92        2969.50           2420       30690.00    134387.70
 1120.95        2969.75           2424       27629.00    120927.70
 1120.99        2970.00           2427       25483.00    111498.60
 1121.02        2970.25           2431       22519.00     98485.28
 1121.05        2970.50           2434       20445.00     89386.33
 1121.08        2970.75           2438       17431.00     76173.49
 1121.11        2971.00           2441       15236.00     66558.48
 1121.14        2971.25           2445       12489.00     54534.33
 1121.17        2971.50           2449        9907.00     43241.39
 1121.20        2971.75           2452        8096.00     35325.75
 1121.23        2972.00           2456        5660.00     24685.05
 1121.26        2972.25           2459        3898.00     16993.25
 1121.29        2972.50           2463        1885.00      8210.66
 1121.32        2972.75           2466         867.00      3771.19
 1121.35        2973.00           2470         280.00      1211.91
 1121.38        2973.25           2473         172.00       741.08
 1121.41        2973.50           2477         148.00       636.46
 1121.44        2973.75           2481         151.00       649.53
 1121.47        2974.00           2484         142.00       610.30
 1121.50        2974.25           2488         154.00       662.61
 1121.54        2974.50           2491         158.00       680.05
 1121.57        2974.75           2495         132.00       566.71
 1121.60        2975.00           2498         140.00       601.58
 1121.63        2975.25           2502         116.00       496.96
 1121.66        2975.50           2505         128.00       549.27
 1121.69        2975.75           2509         109.00       466.44
 1121.72        2976.00           2512         100.00       427.21
 1121.75        2976.25           2516         115.00       492.60
 1121.78        2976.50           2520         113.00       483.88
 1121.81        2976.75           2523         109.00       466.44
 1121.84        2977.00           2527         130.00       557.99
 1121.88        2977.25           2530          99.00       422.85
 1121.92        2977.50           2534          95.00       405.41
 1121.95        2977.75           2537         105.00       449.00
 1121.98        2978.00           2541          94.00       401.05
 1122.01        2978.25           2544          96.00       409.77
 1122.04        2978.50           2548         100.00       427.21
 1122.07        2978.75           2552          96.00       409.77
 1122.10        2979.00           2555          97.00       414.13
 1122.13        2979.25           2559          94.00       401.05
 1122.16        2979.50           2562          86.00       366.18
 1122.19        2979.75           2566          92.00       392.33
 1122.22        2980.00           2569          97.00       414.13
 1122.25        2980.25           2573          84.00       357.46
 1122.28        2980.50           2577          91.00       387.97
 1122.32        2980.75           2580          87.00       370.54
 1122.35        2981.00           2584          86.00       366.18
 1122.38        2981.25           2587         109.00       466.44
 1122.41        2981.50           2591          89.00       379.26
 1122.44        2981.75           2594          87.00       370.54
 1122.47        2982.00           2598          79.00       335.66
 1122.50        2982.25           2601          83.00       353.10
 1122.53        2982.50           2605          83.00       353.10
 1122.56        2982.75           2609          75.00       318.22
 1122.59        2983.00           2612          83.00       353.10
 1122.62        2983.25           2616          82.00       348.74
 1122.65        2983.50           2619          81.00       344.38
 1122.68        2983.75           2623          82.00       348.74
 1122.71        2984.00           2626          88.00       374.90
HS scan finished at 18:42:56
end
