************************************************************
  HS Scan of (1) Internal mercury lamp
************************************************************
Integration time is 0.2294 seconds per sample
dh270917Reading 51.44 .94 3.25pr1000
************************************************************
Dead Time -------------------------  3.4E-08 
Number of Cycles Used -------------  4 
Starting Wavelength (Angstroms) ---  2950 
Final Wavelength (Angstoms) -------  2984 
Wavelength Increment (Angstroms) --  .25 
Filter Wheel #1 Position ---------- (1) Ground quartz diffuser (ND=2.32)
Filter Wheel #2 Position ---------- (1) Neutral Density 0.494



************************************************************
HS scan start time = 03:03:24
Dark Count =  1.6 


Time (GMT)  Wavelength (Ang)  Step Number  Raw Counts  Counts/Second

  184.30        2950.00           2144          80.00       341.77
  184.49        2950.25           2147          91.00       389.72
  184.52        2950.50           2151          91.00       389.72
  184.55        2950.75           2155          85.00       363.56
  184.58        2951.00           2158          83.00       354.84
  184.61        2951.25           2162          93.00       398.44
  184.65        2951.50           2165         126.00       542.29
  184.68        2951.75           2169         129.00       555.37
  184.71        2952.00           2172          79.00       337.41
  184.75        2952.25           2176          88.00       376.64
  184.78        2952.50           2179         113.00       485.62
  184.81        2952.75           2183          90.00       385.36
  184.84        2953.00           2186         120.00       516.14
  184.88        2953.25           2190         106.00       455.11
  184.91        2953.50           2193          85.00       363.56
  184.94        2953.75           2197          96.00       411.51
  184.97        2954.00           2200          95.00       407.15
  185.00        2954.25           2204         125.00       537.93
  185.03        2954.50           2208         146.00       629.48
  185.06        2954.75           2211         134.00       577.17
  185.09        2955.00           2215         124.00       533.58
  185.12        2955.25           2218         130.00       559.73
  185.15        2955.50           2222         107.00       459.47
  185.18        2955.75           2225          99.00       424.59
  185.21        2956.00           2229         103.00       442.03
  185.24        2956.25           2232         132.00       568.45
  185.27        2956.50           2236         117.00       503.06
  185.30        2956.75           2239         113.00       485.62
  185.33        2957.00           2243          90.00       385.36
  185.36        2957.25           2246         106.00       455.11
  185.39        2957.50           2250         119.00       511.78
  185.43        2957.75           2254         128.00       551.01
  185.46        2958.00           2257         116.00       498.70
  185.49        2958.25           2261         107.00       459.47
  185.52        2958.50           2264         141.00       607.68
  185.55        2958.75           2268         135.00       581.53
  185.58        2959.00           2271         146.00       629.48
  185.61        2959.25           2275         136.00       585.89
  185.64        2959.50           2278         176.00       760.26
  185.67        2959.75           2282         114.00       489.98
  185.70        2960.00           2285         134.00       577.17
  185.73        2960.25           2289         138.00       594.61
  185.76        2960.50           2293         153.00       660.00
  185.79        2960.75           2296         162.00       699.23
  185.82        2961.00           2300         186.00       803.86
  185.85        2961.25           2303         318.00      1379.31
  185.88        2961.50           2307        1167.00      5081.09
  185.91        2961.75           2310        2716.00     11837.37
  185.95        2962.00           2314        4610.00     20102.66
  185.98        2962.25           2317        5218.00     22756.92
  186.01        2962.50           2321        8369.00     36520.48
  186.04        2962.75           2324        9570.00     41769.83
  186.07        2963.00           2328       10551.00     46059.00
  186.10        2963.25           2331       14382.00     62821.05
  186.13        2963.50           2335       16088.00     70291.60
  186.16        2963.75           2339       16114.00     70405.48
  186.19        2964.00           2342       21018.00     91901.35
  186.22        2964.25           2346       19730.00     86252.58
  186.25        2964.50           2349       25031.00    109515.10
  186.28        2964.75           2353       26809.00    117325.90
  186.31        2965.00           2356       24044.00    105181.10
  186.34        2965.25           2360       30937.00    135476.10
  186.37        2965.50           2363       29938.00    131081.60
  186.40        2965.75           2367       34692.00    152005.90
  186.43        2966.00           2370       35688.00    156393.50
  186.47        2966.25           2374       31990.00    140109.60
  186.50        2966.50           2378       39021.00    171085.60
  186.53        2966.75           2381       38614.00    169290.70
  186.56        2967.00           2385       32812.00    143727.70
  186.59        2967.25           2388       39458.00    173013.00
  186.62        2967.50           2392       38568.00    169087.90
  186.65        2967.75           2395       34611.00    151649.10
  186.68        2968.00           2399       37356.00    163744.30
  186.71        2968.25           2402       32532.00    142495.10
  186.74        2968.50           2406       33760.00    147901.40
  186.77        2968.75           2409       31865.00    139559.50
  186.80        2969.00           2413       25052.00    109607.40
  186.83        2969.25           2417       27723.00    121342.70
  186.87        2969.50           2420       25614.00    112075.80
  186.90        2969.75           2424       20039.00     87607.56
  186.93        2970.00           2427       21919.00     95854.18
  186.96        2970.25           2431       19543.00     85432.63
  186.99        2970.50           2434       17833.00     77936.85
  187.02        2970.75           2438       15201.00     66406.97
  187.05        2971.00           2441       13686.00     59774.37
  187.08        2971.25           2445       11435.00     49925.13
  187.11        2971.50           2449        7827.00     34152.10
  187.14        2971.75           2452        7852.00     34261.34
  187.18        2972.00           2456        4890.00     21324.96
  187.21        2972.25           2459        3975.00     17331.05
  187.24        2972.50           2463        2259.00      9843.75
  187.27        2972.75           2466        1127.00      4906.66
  187.30        2973.00           2470         335.00      1453.43
  187.33        2973.25           2473         203.00       877.97
  187.36        2973.50           2477         164.00       707.95
  187.39        2973.75           2481         170.00       734.11
  187.42        2974.00           2484         146.00       629.48
  187.45        2974.25           2488         158.00       681.79
  187.48        2974.50           2491         133.00       572.81
  187.51        2974.75           2495         156.00       673.08
  187.54        2975.00           2498         138.00       594.61
  187.57        2975.25           2502         134.00       577.17
  187.60        2975.50           2505         117.00       503.06
  187.63        2975.75           2509         133.00       572.81
  187.66        2976.00           2512         152.00       655.64
  187.70        2976.25           2516         179.00       773.34
  187.73        2976.50           2520         110.00       472.54
  187.76        2976.75           2523         127.00       546.65
  187.79        2977.00           2527         145.00       625.12
  187.82        2977.25           2530         162.00       699.23
  187.85        2977.50           2534         127.00       546.65
  187.88        2977.75           2537         148.00       638.20
  187.91        2978.00           2541         134.00       577.17
  187.94        2978.25           2544         101.00       433.31
  187.97        2978.50           2548         143.00       616.40
  188.00        2978.75           2552         110.00       472.54
  188.03        2979.00           2555         129.00       555.37
  188.06        2979.25           2559         112.00       481.26
  188.09        2979.50           2562         154.00       664.36
  188.12        2979.75           2566         134.00       577.17
  188.15        2980.00           2569         109.00       468.19
  188.18        2980.25           2573         114.00       489.98
  188.21        2980.50           2577         116.00       498.70
  188.25        2980.75           2580          94.00       402.80
  188.28        2981.00           2584         120.00       516.14
  188.31        2981.25           2587         126.00       542.29
  188.34        2981.50           2591         100.00       428.95
  188.37        2981.75           2594          84.00       359.20
  188.40        2982.00           2598         102.00       437.67
  188.43        2982.25           2601         100.00       428.95
  188.46        2982.50           2605         111.00       476.90
  188.49        2982.75           2609          96.00       411.51
  188.52        2983.00           2612         102.00       437.67
  188.55        2983.25           2616          99.00       424.59
  188.58        2983.50           2619         134.00       577.17
  188.61        2983.75           2623         116.00       498.70
  188.65        2984.00           2626         102.00       437.67
HS scan finished at 03:08:52
end
************************************************************
  HS Scan of (1) Internal mercury lamp
************************************************************
Integration time is 0.2294 seconds per sample
dh270917Reading 51.44 .94 3.47pr1000
************************************************************
Dead Time -------------------------  3.4E-08 
Number of Cycles Used -------------  4 
Starting Wavelength (Angstroms) ---  2950 
Final Wavelength (Angstoms) -------  2984 
Wavelength Increment (Angstroms) --  .25 
Filter Wheel #1 Position ---------- (1) Ground quartz diffuser (ND=2.32)
Filter Wheel #2 Position ---------- (1) Neutral Density 0.494



************************************************************
HS scan start time = 18:37:25
Dark Count =  2.6 


Time (GMT)  Wavelength (Ang)  Step Number  Raw Counts  Counts/Second

 1118.31        2950.00           2144          90.00       381.00
 1118.50        2950.25           2147          85.00       359.20
 1118.53        2950.50           2151          96.00       407.15
 1118.56        2950.75           2155         115.00       489.98
 1118.59        2951.00           2158         118.00       503.06
 1118.62        2951.25           2162          89.00       376.64
 1118.65        2951.50           2165          88.00       372.28
 1118.68        2951.75           2169          86.00       363.56
 1118.72        2952.00           2172         106.00       450.75
 1118.75        2952.25           2176         123.00       524.86
 1118.78        2952.50           2179         103.00       437.67
 1118.81        2952.75           2183         143.00       612.04
 1118.84        2953.00           2186         150.00       642.56
 1118.87        2953.25           2190         108.00       459.47
 1118.90        2953.50           2193         105.00       446.39
 1118.93        2953.75           2197         121.00       516.14
 1118.96        2954.00           2200         131.00       559.73
 1118.99        2954.25           2204         113.00       481.26
 1119.02        2954.50           2208         129.00       551.01
 1119.05        2954.75           2211         130.00       555.37
 1119.08        2955.00           2215         109.00       463.83
 1119.11        2955.25           2218         119.00       507.42
 1119.14        2955.50           2222         116.00       494.34
 1119.17        2955.75           2225         111.00       472.54
 1119.20        2956.00           2229         121.00       516.14
 1119.24        2956.25           2232         128.00       546.65
 1119.27        2956.50           2236         122.00       520.50
 1119.30        2956.75           2239         156.00       668.72
 1119.33        2957.00           2243         133.00       568.45
 1119.36        2957.25           2246         126.00       537.93
 1119.39        2957.50           2250         144.00       616.40
 1119.42        2957.75           2254         131.00       559.73
 1119.45        2958.00           2257         148.00       633.84
 1119.48        2958.25           2261         134.00       572.81
 1119.51        2958.50           2264         163.00       699.23
 1119.54        2958.75           2268         146.00       625.12
 1119.57        2959.00           2271         124.00       529.22
 1119.60        2959.25           2275         159.00       681.79
 1119.63        2959.50           2278         162.00       694.87
 1119.66        2959.75           2282         143.00       612.04
 1119.69        2960.00           2285         155.00       664.36
 1119.72        2960.25           2289         139.00       594.61
 1119.76        2960.50           2293         149.00       638.20
 1119.79        2960.75           2296         156.00       668.72
 1119.82        2961.00           2300         191.00       821.30
 1119.85        2961.25           2303         371.00      1606.02
 1119.88        2961.50           2307        1270.00      5525.89
 1119.91        2961.75           2310        2547.00     11095.73
 1119.94        2962.00           2314        4645.00     20251.08
 1119.97        2962.25           2317        6586.00     28726.39
 1120.00        2962.50           2321        8868.00     38696.92
 1120.03        2962.75           2324       10660.00     46531.28
 1120.06        2963.00           2328       12892.00     56295.10
 1120.09        2963.25           2331       14768.00     64506.63
 1120.12        2963.50           2335       17505.00     76495.13
 1120.15        2963.75           2339       19969.00     87296.21
 1120.18        2964.00           2342       21921.00     95858.56
 1120.21        2964.25           2346       24321.00    106392.90
 1120.24        2964.50           2349       26206.00    114672.00
 1120.28        2964.75           2353       28549.00    124969.30
 1120.31        2965.00           2356       30237.00    132392.40
 1120.34        2965.25           2360       32684.00    143159.90
 1120.37        2965.50           2363       34423.00    150816.70
 1120.40        2965.75           2367       36872.00    161606.60
 1120.43        2966.00           2370       38489.00    168735.10
 1120.46        2966.25           2374       40559.00    177865.80
 1120.49        2966.50           2378       41472.00    181894.80
 1120.52        2966.75           2381       36244.00    158838.90
 1120.55        2967.00           2385       42281.00    185465.70
 1120.58        2967.25           2388       42004.00    184242.90
 1120.61        2967.50           2392       41694.00    182874.60
 1120.64        2967.75           2395       41558.00    182274.30
 1120.67        2968.00           2399       40487.00    177548.10
 1120.70        2968.25           2402       39056.00    171235.50
 1120.73        2968.50           2406       36786.00    161227.50
 1120.76        2968.75           2409       35163.00    154076.20
 1120.80        2969.00           2413       32798.00    143661.60
 1120.83        2969.25           2417       30362.00    132942.20
 1120.86        2969.50           2420       28659.00    125452.90
 1120.89        2969.75           2424       26254.00    114882.90
 1120.92        2970.00           2427       24355.00    106542.20
 1120.95        2970.25           2431       22115.00     96709.80
 1120.98        2970.50           2434       20313.00     88804.79
 1121.01        2970.75           2438       17427.00     76153.34
 1121.04        2971.00           2441       15764.00     68868.13
 1121.07        2971.25           2445       13098.00     57196.57
 1121.10        2971.50           2449       10845.00     47340.31
 1121.13        2971.75           2452        9065.00     39557.97
 1121.16        2972.00           2456        6982.00     30456.11
 1121.19        2972.25           2459        5220.00     22761.29
 1121.22        2972.50           2463        3018.00     13150.61
 1121.25        2972.75           2466        1529.00      6655.39
 1121.28        2973.00           2470         424.00      1837.08
 1121.31        2973.25           2473         210.00       904.13
 1121.35        2973.50           2477         177.00       760.26
 1121.38        2973.75           2481         183.00       786.42
 1121.41        2974.00           2484         157.00       673.08
 1121.44        2974.25           2488         147.00       629.48
 1121.47        2974.50           2491         159.00       681.79
 1121.50        2974.75           2495         152.00       651.28
 1121.53        2975.00           2498         142.00       607.68
 1121.56        2975.25           2502         162.00       694.87
 1121.59        2975.50           2505         147.00       629.48
 1121.62        2975.75           2509         154.00       660.00
 1121.65        2976.00           2512         133.00       568.45
 1121.68        2976.25           2516         156.00       668.72
 1121.71        2976.50           2520         163.00       699.23
 1121.74        2976.75           2523         127.00       542.29
 1121.77        2977.00           2527         167.00       716.67
 1121.80        2977.25           2530         133.00       568.45
 1121.83        2977.50           2534         162.00       694.87
 1121.87        2977.75           2537         128.00       546.65
 1121.90        2978.00           2541         142.00       607.68
 1121.93        2978.25           2544         113.00       481.26
 1121.96        2978.50           2548         130.00       555.37
 1121.99        2978.75           2552         143.00       612.04
 1122.02        2979.00           2555         128.00       546.65
 1122.05        2979.25           2559         167.00       716.67
 1122.08        2979.50           2562         131.00       559.73
 1122.11        2979.75           2566         155.00       664.36
 1122.14        2980.00           2569         110.00       468.19
 1122.17        2980.25           2573         107.00       455.11
 1122.20        2980.50           2577         127.00       542.29
 1122.23        2980.75           2580         132.00       564.09
 1122.26        2981.00           2584         167.00       716.67
 1122.29        2981.25           2587         107.00       455.11
 1122.32        2981.50           2591         106.00       450.75
 1122.35        2981.75           2594         110.00       468.19
 1122.39        2982.00           2598         130.00       555.37
 1122.42        2982.25           2601         120.00       511.78
 1122.45        2982.50           2605         140.00       598.97
 1122.48        2982.75           2609         124.00       529.22
 1122.51        2983.00           2612         126.00       537.93
 1122.54        2983.25           2616         108.00       459.47
 1122.57        2983.50           2619         113.00       481.26
 1122.60        2983.75           2623         106.00       450.75
 1122.63        2984.00           2626         119.00       507.42
HS scan finished at 18:42:51
end
