************************************************************
  HS Scan of (1) Internal mercury lamp
************************************************************
Integration time is 0.2294 seconds per sample
dh031018Reading 51.44 .94 3.33pr1000
************************************************************
Dead Time -------------------------  3.4E-08 
Number of Cycles Used -------------  4 
Starting Wavelength (Angstroms) ---  2950 
Final Wavelength (Angstoms) -------  2984 
Wavelength Increment (Angstroms) --  .25 
Filter Wheel #1 Position ---------- (1) Ground quartz diffuser (ND=2.32)
Filter Wheel #2 Position ---------- (1) Neutral Density 0.494



************************************************************
HS scan start time = 03:17:49
Dark Count =  2.2 


Time (GMT)  Wavelength (Ang)  Step Number  Raw Counts  Counts/Second

  198.71        2950.00           2144          59.00       247.60
  198.90        2950.25           2147          51.00       212.73
  198.93        2950.50           2151          54.00       225.81
  198.96        2950.75           2155          50.00       208.37
  198.99        2951.00           2158          75.00       317.35
  199.03        2951.25           2162          56.00       234.53
  199.06        2951.50           2165          51.00       212.73
  199.09        2951.75           2169          64.00       269.40
  199.12        2952.00           2172          61.00       256.32
  199.15        2952.25           2176          57.00       238.89
  199.18        2952.50           2179          58.00       243.25
  199.21        2952.75           2183          76.00       321.71
  199.24        2953.00           2186          58.00       243.25
  199.27        2953.25           2190          60.00       251.96
  199.30        2953.50           2193          52.00       217.09
  199.33        2953.75           2197          64.00       269.40
  199.36        2954.00           2200          67.00       282.48
  199.39        2954.25           2204          76.00       321.71
  199.42        2954.50           2208          61.00       256.32
  199.45        2954.75           2211          65.00       273.76
  199.48        2955.00           2215          62.00       260.68
  199.51        2955.25           2218          65.00       273.76
  199.55        2955.50           2222          61.00       256.32
  199.58        2955.75           2225          58.00       243.25
  199.61        2956.00           2229          64.00       269.40
  199.64        2956.25           2232          59.00       247.60
  199.67        2956.50           2236          68.00       286.84
  199.70        2956.75           2239          59.00       247.60
  199.73        2957.00           2243          57.00       238.89
  199.76        2957.25           2246          94.00       400.18
  199.79        2957.50           2250          67.00       282.48
  199.82        2957.75           2254          67.00       282.48
  199.85        2958.00           2257          62.00       260.68
  199.88        2958.25           2261          62.00       260.68
  199.91        2958.50           2264          64.00       269.40
  199.94        2958.75           2268          62.00       260.68
  199.97        2959.00           2271          70.00       295.56
  200.00        2959.25           2275          70.00       295.56
  200.03        2959.50           2278          69.00       291.20
  200.07        2959.75           2282          76.00       321.71
  200.10        2960.00           2285          75.00       317.35
  200.13        2960.25           2289          78.00       330.43
  200.16        2960.50           2293          86.00       365.31
  200.19        2960.75           2296          75.00       317.35
  200.22        2961.00           2300         111.00       474.29
  200.25        2961.25           2303         274.00      1184.88
  200.28        2961.50           2307         871.00      3787.76
  200.31        2961.75           2310        1439.00      6264.63
  200.34        2962.00           2314        2321.00     10111.58
  200.37        2962.25           2317        3068.00     13370.51
  200.40        2962.50           2321        4251.00     18533.04
  200.43        2962.75           2324        5087.00     22182.37
  200.46        2963.00           2328        6229.00     27168.94
  200.49        2963.25           2331        6995.00     30514.65
  200.52        2963.50           2335        8130.00     35473.45
  200.55        2963.75           2339        9215.00     40215.37
  200.58        2964.00           2342       10117.00     44158.67
  200.62        2964.25           2346       11269.00     49196.43
  200.65        2964.50           2349       12186.00     53207.77
  200.68        2964.75           2353       13164.00     57487.14
  200.71        2965.00           2356       13647.00     59601.04
  200.74        2965.25           2360       14530.00     63466.36
  200.77        2965.50           2363       15378.00     67179.43
  200.80        2965.75           2367       15910.00     69509.33
  200.83        2966.00           2370       16674.00     72855.93
  200.86        2966.25           2374       18060.00     78929.06
  200.89        2966.50           2378       19151.00     83711.34
  200.92        2966.75           2381       18428.00     80541.97
  200.95        2967.00           2385       19091.00     83448.28
  200.98        2967.25           2388       18794.00     82146.29
  201.01        2967.50           2392       18678.00     81637.80
  201.04        2967.75           2395       18711.00     81782.46
  201.07        2968.00           2399       17815.00     77855.35
  201.11        2968.25           2402       16958.00     74100.15
  201.14        2968.50           2406       22553.00     98633.62
  201.17        2968.75           2409       16223.00     70880.29
  201.20        2969.00           2413       13053.00     57001.39
  201.23        2969.25           2417       12156.00     53076.52
  201.27        2969.50           2420       11990.00     52350.29
  201.30        2969.75           2424       10610.00     46314.38
  201.33        2970.00           2427        9454.00     41260.11
  201.37        2970.25           2431       17001.00     74288.55
  201.40        2970.50           2434        8736.00     38121.74
  201.43        2970.75           2438        7126.00     31086.90
  201.46        2971.00           2441        6284.00     27409.14
  201.49        2971.25           2445        5532.00     24125.27
  201.52        2971.50           2449        4295.00     18725.08
  201.55        2971.75           2452        3456.00     15063.51
  201.58        2972.00           2456        2379.00     10364.60
  201.61        2972.25           2459        3452.00     15046.06
  201.64        2972.50           2463        1740.00      7577.37
  201.67        2972.75           2466         518.00      2248.65
  201.70        2973.00           2470         160.00       687.90
  201.73        2973.25           2473          95.00       404.54
  201.76        2973.50           2477          90.00       382.74
  201.79        2973.75           2481          85.00       360.95
  201.82        2974.00           2484          73.00       308.63
  201.85        2974.25           2488          75.00       317.35
  201.88        2974.50           2491          71.00       299.92
  201.92        2974.75           2495          70.00       295.56
  201.95        2975.00           2498          71.00       299.92
  201.98        2975.25           2502          69.00       291.20
  202.01        2975.50           2505         105.00       448.13
  202.04        2975.75           2509          72.00       304.28
  202.07        2976.00           2512          79.00       334.79
  202.10        2976.25           2516          69.00       291.20
  202.13        2976.50           2520          70.00       295.56
  202.16        2976.75           2523          57.00       238.89
  202.19        2977.00           2527          63.00       265.04
  202.22        2977.25           2530          62.00       260.68
  202.25        2977.50           2534          62.00       260.68
  202.28        2977.75           2537          62.00       260.68
  202.31        2978.00           2541          65.00       273.76
  202.34        2978.25           2544          54.00       225.81
  202.37        2978.50           2548          60.00       251.96
  202.40        2978.75           2552          57.00       238.89
  202.44        2979.00           2555          61.00       256.32
  202.47        2979.25           2559          64.00       269.40
  202.50        2979.50           2562          67.00       282.48
  202.53        2979.75           2566          58.00       243.25
  202.56        2980.00           2569          94.00       400.18
  202.59        2980.25           2573          58.00       243.25
  202.62        2980.50           2577          56.00       234.53
  202.65        2980.75           2580          60.00       251.96
  202.68        2981.00           2584          52.00       217.09
  202.71        2981.25           2587          57.00       238.89
  202.74        2981.50           2591          58.00       243.25
  202.77        2981.75           2594          62.00       260.68
  202.80        2982.00           2598          58.00       243.25
  202.83        2982.25           2601          55.00       230.17
  202.86        2982.50           2605          50.00       208.37
  202.89        2982.75           2609          57.00       238.89
  202.92        2983.00           2612          62.00       260.68
  202.96        2983.25           2616          56.00       234.53
  202.99        2983.50           2619          56.00       234.53
  203.02        2983.75           2623          57.00       238.89
  203.05        2984.00           2626          47.00       195.29
HS scan finished at 03:23:16
end
************************************************************
  HS Scan of (1) Internal mercury lamp
************************************************************
Integration time is 0.2294 seconds per sample
dh031018Reading 51.44 .94 3.56pr1000
************************************************************
Dead Time -------------------------  3.4E-08 
Number of Cycles Used -------------  4 
Starting Wavelength (Angstroms) ---  2950 
Final Wavelength (Angstoms) -------  2984 
Wavelength Increment (Angstroms) --  .25 
Filter Wheel #1 Position ---------- (1) Ground quartz diffuser (ND=2.32)
Filter Wheel #2 Position ---------- (1) Neutral Density 0.494



************************************************************
HS scan start time = 18:37:26
Dark Count =  3.5 


Time (GMT)  Wavelength (Ang)  Step Number  Raw Counts  Counts/Second

 1118.33        2950.00           2144          28.00       106.80
 1118.53        2950.25           2147          34.00       132.96
 1118.56        2950.50           2151          31.00       119.88
 1118.59        2950.75           2155          33.00       128.60
 1118.62        2951.00           2158          29.00       111.16
 1118.65        2951.25           2162          28.00       106.80
 1118.68        2951.50           2165          33.00       128.60
 1118.71        2951.75           2169          32.00       124.24
 1118.74        2952.00           2172          32.00       124.24
 1118.77        2952.25           2176          34.00       132.96
 1118.80        2952.50           2179          30.00       115.52
 1118.83        2952.75           2183          33.00       128.60
 1118.86        2953.00           2186          35.00       137.32
 1118.89        2953.25           2190          32.00       124.24
 1118.92        2953.50           2193          33.00       128.60
 1118.95        2953.75           2197          35.00       137.32
 1118.99        2954.00           2200          37.00       146.03
 1119.02        2954.25           2204          37.00       146.03
 1119.05        2954.50           2208          34.00       132.96
 1119.08        2954.75           2211          34.00       132.96
 1119.11        2955.00           2215          35.00       137.32
 1119.14        2955.25           2218          38.00       150.39
 1119.17        2955.50           2222          37.00       146.03
 1119.20        2955.75           2225          38.00       150.39
 1119.23        2956.00           2229          37.00       146.03
 1119.26        2956.25           2232          36.00       141.67
 1119.29        2956.50           2236          34.00       132.96
 1119.32        2956.75           2239          37.00       146.03
 1119.35        2957.00           2243          38.00       150.39
 1119.38        2957.25           2246          36.00       141.67
 1119.41        2957.50           2250          41.00       163.47
 1119.44        2957.75           2254          37.00       146.03
 1119.48        2958.00           2257          36.00       141.67
 1119.51        2958.25           2261          38.00       150.39
 1119.54        2958.50           2264          39.00       154.75
 1119.57        2958.75           2268          40.00       159.11
 1119.60        2959.00           2271          35.00       137.32
 1119.63        2959.25           2275          37.00       146.03
 1119.66        2959.50           2278          43.00       172.19
 1119.70        2959.75           2282          41.00       163.47
 1119.73        2960.00           2285          42.00       167.83
 1119.76        2960.25           2289          45.00       180.91
 1119.79        2960.50           2293          45.00       180.91
 1119.82        2960.75           2296          43.00       172.19
 1119.85        2961.00           2300          61.00       250.66
 1119.88        2961.25           2303         132.00       560.17
 1119.91        2961.50           2307         440.00      1902.91
 1119.94        2961.75           2310         798.00      3463.79
 1119.97        2962.00           2314        1300.00      5652.79
 1120.00        2962.25           2317        1716.00      7467.02
 1120.03        2962.50           2321        2252.00      9804.93
 1120.06        2962.75           2324        2644.00     11514.97
 1120.09        2963.00           2328        3225.00     14049.87
 1120.12        2963.25           2331        3723.00     16222.98
 1120.15        2963.50           2335        4362.00     19011.85
 1120.18        2963.75           2339        4896.00     21342.86
 1120.21        2964.00           2342        5233.00     22814.11
 1120.25        2964.25           2346        5915.00     25792.01
 1120.28        2964.50           2349        6435.00     28062.95
 1120.31        2964.75           2353        7002.00     30539.54
 1120.34        2965.00           2356        7309.00     31880.66
 1120.37        2965.25           2360        7875.00     34353.53
 1120.40        2965.50           2363        8345.00     36407.29
 1120.43        2965.75           2367        8833.00     38540.01
 1120.46        2966.00           2370        9351.00     40804.17
 1120.49        2966.25           2374        9930.00     43335.39
 1120.52        2966.50           2378       10219.00     44598.97
 1120.55        2966.75           2381       10278.00     44856.94
 1120.58        2967.00           2385       10166.00     44367.23
 1120.61        2967.25           2388       10186.00     44454.68
 1120.64        2967.50           2392       10041.00     43820.69
 1120.67        2967.75           2395       10171.00     44389.09
 1120.70        2968.00           2399        9902.00     43212.97
 1120.74        2968.25           2402        9471.00     41328.74
 1120.77        2968.50           2406        8776.00     38290.88
 1120.80        2968.75           2409        8399.00     36643.27
 1120.83        2969.00           2413        7801.00     34030.20
 1120.86        2969.25           2417        7405.00     32300.06
 1120.89        2969.50           2420        6868.00     29954.21
 1120.92        2969.75           2424        6272.00     27351.06
 1120.95        2970.00           2427        5754.00     25088.96
 1120.98        2970.25           2431        5152.00     22460.48
 1121.01        2970.50           2434        4846.00     21124.58
 1121.04        2970.75           2438        4117.00     17942.50
 1121.07        2971.00           2441        3678.00     16026.60
 1121.10        2971.25           2445        3180.00     13853.52
 1121.13        2971.50           2449        2702.00     11768.00
 1121.16        2971.75           2452        2197.00      9565.01
 1121.19        2972.00           2456        1559.00      6782.30
 1121.22        2972.25           2459        1117.00      4854.77
 1121.26        2972.50           2463         570.00      2469.69
 1121.29        2972.75           2466         278.00      1196.65
 1121.32        2973.00           2470          95.00       398.87
 1121.35        2973.25           2473          66.00       272.45
 1121.38        2973.50           2477          52.00       211.42
 1121.41        2973.75           2481          50.00       202.70
 1121.44        2974.00           2484          47.00       189.63
 1121.48        2974.25           2488          46.00       185.27
 1121.51        2974.50           2491          45.00       180.91
 1121.54        2974.75           2495          44.00       176.55
 1121.57        2975.00           2498          39.00       154.75
 1121.60        2975.25           2502          39.00       154.75
 1121.63        2975.50           2505          45.00       180.91
 1121.66        2975.75           2509          36.00       141.67
 1121.69        2976.00           2512          40.00       159.11
 1121.72        2976.25           2516          39.00       154.75
 1121.75        2976.50           2520          44.00       176.55
 1121.78        2976.75           2523          34.00       132.96
 1121.81        2977.00           2527          39.00       154.75
 1121.84        2977.25           2530          41.00       163.47
 1121.87        2977.50           2534          37.00       146.03
 1121.90        2977.75           2537          37.00       146.03
 1121.93        2978.00           2541          41.00       163.47
 1121.96        2978.25           2544          35.00       137.32
 1122.00        2978.50           2548          34.00       132.96
 1122.03        2978.75           2552          36.00       141.67
 1122.06        2979.00           2555          34.00       132.96
 1122.09        2979.25           2559          35.00       137.32
 1122.12        2979.50           2562          35.00       137.32
 1122.15        2979.75           2566          32.00       124.24
 1122.18        2980.00           2569          35.00       137.32
 1122.21        2980.25           2573          37.00       146.03
 1122.24        2980.50           2577          35.00       137.32
 1122.27        2980.75           2580          34.00       132.96
 1122.30        2981.00           2584          38.00       150.39
 1122.33        2981.25           2587          31.00       119.88
 1122.36        2981.50           2591          30.00       115.52
 1122.39        2981.75           2594          37.00       146.03
 1122.42        2982.00           2598          31.00       119.88
 1122.45        2982.25           2601          32.00       124.24
 1122.48        2982.50           2605          35.00       137.32
 1122.52        2982.75           2609          35.00       137.32
 1122.55        2983.00           2612          33.00       128.60
 1122.58        2983.25           2616          32.00       124.24
 1122.61        2983.50           2619          26.00        98.08
 1122.64        2983.75           2623          28.00       106.80
 1122.67        2984.00           2626          28.00       106.80
HS scan finished at 18:42:53
end
