************************************************************
  HS Scan of (1) Internal mercury lamp
************************************************************
Integration time is 0.2294 seconds per sample
dh061017Reading 51.44 .94 2.88pr1000
************************************************************
Dead Time -------------------------  3.4E-08 
Number of Cycles Used -------------  4 
Starting Wavelength (Angstroms) ---  2950 
Final Wavelength (Angstoms) -------  2984 
Wavelength Increment (Angstroms) --  .25 
Filter Wheel #1 Position ---------- (1) Ground quartz diffuser (ND=2.32)
Filter Wheel #2 Position ---------- (1) Neutral Density 0.494



************************************************************
HS scan start time = 03:25:16
Dark Count =  .5 


Time (GMT)  Wavelength (Ang)  Step Number  Raw Counts  Counts/Second

  206.17        2950.00           2144         112.00       486.06
  206.36        2950.25           2147          95.00       411.95
  206.39        2950.50           2151          83.00       359.64
  206.43        2950.75           2155          96.00       416.31
  206.46        2951.00           2158         116.00       503.50
  206.49        2951.25           2162          93.00       403.23
  206.52        2951.50           2165         103.00       446.82
  206.55        2951.75           2169          96.00       416.31
  206.58        2952.00           2172          89.00       385.79
  206.61        2952.25           2176         119.00       516.57
  206.64        2952.50           2179          97.00       420.67
  206.67        2952.75           2183         105.00       455.54
  206.70        2953.00           2186          99.00       429.39
  206.73        2953.25           2190         104.00       451.18
  206.76        2953.50           2193         115.00       499.14
  206.79        2953.75           2197         100.00       433.75
  206.82        2954.00           2200          98.00       425.03
  206.85        2954.25           2204         119.00       516.57
  206.88        2954.50           2208         119.00       516.57
  206.91        2954.75           2211         116.00       503.50
  206.95        2955.00           2215         103.00       446.82
  206.98        2955.25           2218         126.00       547.09
  207.01        2955.50           2222         104.00       451.18
  207.04        2955.75           2225         108.00       468.62
  207.07        2956.00           2229         165.00       717.11
  207.10        2956.25           2232         121.00       525.29
  207.13        2956.50           2236         123.00       534.01
  207.16        2956.75           2239         132.00       573.25
  207.19        2957.00           2243         114.00       494.78
  207.22        2957.25           2246         135.00       586.32
  207.25        2957.50           2250         114.00       494.78
  207.28        2957.75           2254         118.00       512.21
  207.31        2958.00           2257         133.00       577.61
  207.34        2958.25           2261         134.00       581.96
  207.37        2958.50           2264         117.00       507.86
  207.40        2958.75           2268         130.00       564.53
  207.43        2959.00           2271         129.00       560.17
  207.47        2959.25           2275         117.00       507.86
  207.50        2959.50           2278         121.00       525.29
  207.53        2959.75           2282         140.00       608.12
  207.56        2960.00           2285         133.00       577.61
  207.59        2960.25           2289         150.00       651.71
  207.62        2960.50           2293         137.00       595.04
  207.65        2960.75           2296         152.00       660.43
  207.68        2961.00           2300         166.00       721.46
  207.71        2961.25           2303         272.00      1183.57
  207.74        2961.50           2307        1141.00      4972.51
  207.77        2961.75           2310        2507.00     10930.39
  207.80        2962.00           2314        4348.00     18963.84
  207.83        2962.25           2317        5753.00     25097.69
  207.86        2962.50           2321        7860.00     34301.10
  207.89        2962.75           2324        9185.00     40091.67
  207.92        2963.00           2328       11217.00     48976.43
  207.95        2963.25           2331       12752.00     55691.67
  207.98        2963.50           2335       14998.00     65522.89
  208.02        2963.75           2339       17194.00     75141.60
  208.05        2964.00           2342       18668.00     81601.41
  208.08        2964.25           2346       20882.00     91309.62
  208.11        2964.50           2349       22127.00     96771.68
  208.14        2964.75           2353       29654.00    129837.40
  208.17        2965.00           2356       29032.00    127102.10
  208.20        2965.25           2360       29191.00    127801.30
  208.23        2965.50           2363       30578.00    133901.60
  208.26        2965.75           2367       32490.00    142315.10
  208.29        2966.00           2370       33468.00    146620.60
  208.32        2966.25           2374       34963.00    153204.40
  208.35        2966.50           2378       40136.00    176008.70
  208.38        2966.75           2381       43261.00    189802.00
  208.41        2967.00           2385       37904.00    166165.00
  208.44        2967.25           2388       37605.00    164846.80
  208.47        2967.50           2392       37114.00    162682.40
  208.50        2967.75           2395       36522.00    160073.30
  208.54        2968.00           2399       34993.00    153336.60
  208.57        2968.25           2402       32481.00    142275.50
  208.60        2968.50           2406       39026.00    171112.50
  208.63        2968.75           2409       37060.00    162444.40
  208.66        2969.00           2413       34218.00    149923.10
  208.69        2969.25           2417       31775.00    139168.30
  208.72        2969.50           2420       30161.00    132067.30
  208.75        2969.75           2424       27645.00    121004.70
  208.78        2970.00           2427       25838.00    113064.60
  208.81        2970.25           2431       23366.00    102209.40
  208.84        2970.50           2434       21059.00     92086.03
  208.87        2970.75           2438       18421.00     80518.74
  208.90        2971.00           2441       16381.00     71579.84
  208.93        2971.25           2445       14134.00     61740.20
  208.96        2971.50           2449       11535.00     50367.35
  208.99        2971.75           2452        9755.00     42583.41
  209.02        2972.00           2456        7323.00     31954.93
  209.06        2972.25           2459        5710.00     24909.93
  209.09        2972.50           2463        3267.00     14246.22
  209.12        2972.75           2466        1834.00      7994.76
  209.15        2973.00           2470         538.00      2343.26
  209.18        2973.25           2473         249.00      1083.30
  209.21        2973.50           2477         187.00       813.01
  209.24        2973.75           2481         196.00       852.25
  209.27        2974.00           2484         171.00       743.26
  209.30        2974.25           2488         175.00       760.70
  209.33        2974.50           2491         171.00       743.26
  209.36        2974.75           2495         167.00       725.82
  209.39        2975.00           2498         148.00       643.00
  209.42        2975.25           2502         163.00       708.39
  209.45        2975.50           2505         151.00       656.07
  209.48        2975.75           2509         158.00       686.59
  209.51        2976.00           2512         160.00       695.31
  209.54        2976.25           2516         153.00       664.79
  209.58        2976.50           2520         152.00       660.43
  209.61        2976.75           2523         149.00       647.36
  209.64        2977.00           2527         155.00       673.51
  209.67        2977.25           2530         141.00       612.48
  209.70        2977.50           2534         145.00       629.92
  209.73        2977.75           2537         143.00       621.20
  209.76        2978.00           2541         143.00       621.20
  209.79        2978.25           2544         144.00       625.56
  209.83        2978.50           2548         134.00       581.96
  209.86        2978.75           2552         138.00       599.40
  209.89        2979.00           2555         139.00       603.76
  209.92        2979.25           2559         127.00       551.45
  209.95        2979.50           2562         135.00       586.32
  209.98        2979.75           2566         147.00       638.64
  210.01        2980.00           2569         147.00       638.64
  210.04        2980.25           2573         180.00       782.50
  210.07        2980.50           2577         133.00       577.61
  210.10        2980.75           2580         128.00       555.81
  210.13        2981.00           2584         120.00       520.93
  210.16        2981.25           2587         133.00       577.61
  210.19        2981.50           2591         125.00       542.73
  210.22        2981.75           2594         160.00       695.31
  210.25        2982.00           2598         163.00       708.39
  210.29        2982.25           2601         145.00       629.92
  210.32        2982.50           2605         146.00       634.28
  210.35        2982.75           2609         135.00       586.32
  210.38        2983.00           2612         139.00       603.76
  210.41        2983.25           2616         140.00       608.12
  210.44        2983.50           2619         122.00       529.65
  210.47        2983.75           2623         119.00       516.57
  210.50        2984.00           2626         105.00       455.54
HS scan finished at 03:30:43
end
************************************************************
  HS Scan of (1) Internal mercury lamp
************************************************************
Integration time is 0.2294 seconds per sample
dh061017Reading 51.44 .94 3.37pr1000
************************************************************
Dead Time -------------------------  3.4E-08 
Number of Cycles Used -------------  4 
Starting Wavelength (Angstroms) ---  2950 
Final Wavelength (Angstoms) -------  2984 
Wavelength Increment (Angstroms) --  .25 
Filter Wheel #1 Position ---------- (1) Ground quartz diffuser (ND=2.32)
Filter Wheel #2 Position ---------- (1) Neutral Density 0.494



************************************************************
HS scan start time = 18:37:31
Dark Count =  2 


Time (GMT)  Wavelength (Ang)  Step Number  Raw Counts  Counts/Second

 1118.41        2950.00           2144         130.00       557.99
 1118.60        2950.25           2147          99.00       422.85
 1118.63        2950.50           2151         125.00       536.19
 1118.67        2950.75           2155         108.00       462.08
 1118.70        2951.00           2158         102.00       435.93
 1118.73        2951.25           2162          99.00       422.85
 1118.76        2951.50           2165          90.00       383.61
 1118.79        2951.75           2169          96.00       409.77
 1118.82        2952.00           2172          96.00       409.77
 1118.85        2952.25           2176         107.00       457.72
 1118.88        2952.50           2179         115.00       492.60
 1118.91        2952.75           2183         109.00       466.44
 1118.94        2953.00           2186         110.00       470.80
 1118.97        2953.25           2190         102.00       435.93
 1119.00        2953.50           2193         111.00       475.16
 1119.03        2953.75           2197         130.00       557.99
 1119.06        2954.00           2200         107.00       457.72
 1119.09        2954.25           2204         118.00       505.68
 1119.12        2954.50           2208         120.00       514.39
 1119.15        2954.75           2211         119.00       510.03
 1119.18        2955.00           2215         120.00       514.39
 1119.22        2955.25           2218         117.00       501.32
 1119.25        2955.50           2222         119.00       510.03
 1119.28        2955.75           2225         103.00       440.29
 1119.31        2956.00           2229         113.00       483.88
 1119.34        2956.25           2232         127.00       544.91
 1119.37        2956.50           2236         133.00       571.07
 1119.40        2956.75           2239         142.00       610.30
 1119.43        2957.00           2243         152.00       653.89
 1119.46        2957.25           2246         141.00       605.94
 1119.49        2957.50           2250         145.00       623.38
 1119.52        2957.75           2254         138.00       592.86
 1119.55        2958.00           2257         126.00       540.55
 1119.58        2958.25           2261         143.00       614.66
 1119.61        2958.50           2264         158.00       680.05
 1119.64        2958.75           2268         151.00       649.53
 1119.67        2959.00           2271         145.00       623.38
 1119.70        2959.25           2275         160.00       688.77
 1119.74        2959.50           2278         140.00       601.58
 1119.77        2959.75           2282         144.00       619.02
 1119.80        2960.00           2285         163.00       701.85
 1119.83        2960.25           2289         149.00       640.82
 1119.86        2960.50           2293         182.00       784.68
 1119.89        2960.75           2296         162.00       697.49
 1119.92        2961.00           2300         220.00       950.34
 1119.95        2961.25           2303         409.00      1774.30
 1119.98        2961.50           2307        1409.00      6134.67
 1120.01        2961.75           2310        2879.00     12546.76
 1120.04        2962.00           2314        5429.00     23676.42
 1120.07        2962.25           2317        7350.00     32066.33
 1120.10        2962.50           2321        9717.00     42410.72
 1120.13        2962.75           2324       11180.00     48808.05
 1120.16        2963.00           2328       13862.00     60542.98
 1120.19        2963.25           2331       15877.00     69365.66
 1120.22        2963.50           2335       18681.00     81651.82
 1120.26        2963.75           2339       21351.00     93360.40
 1120.29        2964.00           2342       23347.00    102119.40
 1120.32        2964.25           2346       26242.00    114832.80
 1120.35        2964.50           2349       28082.00    122918.90
 1120.38        2964.75           2353       30610.00    134035.80
 1120.41        2965.00           2356       32560.00    142616.60
 1120.45        2965.25           2360       35097.00    153788.10
 1120.48        2965.50           2363       37029.00    162301.20
 1120.51        2965.75           2367       39399.00    172751.00
 1120.54        2966.00           2370       41438.00    181747.40
 1120.57        2966.25           2374       43244.00    189720.30
 1120.60        2966.50           2378       44200.00    193942.50
 1120.63        2966.75           2381       44456.00    195073.30
 1120.66        2967.00           2385       44578.00    195612.30
 1120.69        2967.25           2388       44724.00    196257.30
 1120.72        2967.50           2392       44270.00    194251.70
 1120.75        2967.75           2395       44172.00    193818.80
 1120.78        2968.00           2399       42656.00    187124.00
 1120.81        2968.25           2402       41196.00    180679.30
 1120.84        2968.50           2406       38740.00    169844.60
 1120.87        2968.75           2409       37113.00    162671.40
 1120.90        2969.00           2413       34520.00    151246.60
 1120.93        2969.25           2417       31899.00    139707.40
 1120.97        2969.50           2420       30154.00    132029.90
 1121.00        2969.75           2424       27747.00    121446.40
 1121.03        2970.00           2427       25982.00    113690.60
 1121.06        2970.25           2431       23312.00    101965.80
 1121.09        2970.50           2434       21070.00     92127.71
 1121.12        2970.75           2438       18338.00     80148.38
 1121.15        2971.00           2441       16140.00     70517.61
 1121.18        2971.25           2445       13790.00     60227.83
 1121.21        2971.50           2449       11573.00     50527.01
 1121.24        2971.75           2452        9629.00     42026.01
 1121.27        2972.00           2456        7156.00     31218.83
 1121.30        2972.25           2459        5254.00     22912.35
 1121.33        2972.50           2463        2905.00     12660.20
 1121.36        2972.75           2466        1440.00      6269.86
 1121.39        2973.00           2470         435.00      1887.65
 1121.42        2973.25           2473         244.00      1054.96
 1121.45        2973.50           2477         195.00       841.35
 1121.49        2973.75           2481         185.00       797.75
 1121.52        2974.00           2484         171.00       736.72
 1121.55        2974.25           2488         166.00       714.93
 1121.58        2974.50           2491         158.00       680.05
 1121.61        2974.75           2495         150.00       645.18
 1121.64        2975.00           2498         159.00       684.41
 1121.67        2975.25           2502         161.00       693.13
 1121.70        2975.50           2505         156.00       671.33
 1121.73        2975.75           2509         147.00       632.10
 1121.76        2976.00           2512         146.00       627.74
 1121.79        2976.25           2516         159.00       684.41
 1121.82        2976.50           2520         144.00       619.02
 1121.85        2976.75           2523         164.00       706.21
 1121.88        2977.00           2527         130.00       557.99
 1121.91        2977.25           2530         137.00       588.50
 1121.94        2977.50           2534         130.00       557.99
 1121.97        2977.75           2537         164.00       706.21
 1122.01        2978.00           2541         148.00       636.46
 1122.04        2978.25           2544         138.00       592.86
 1122.07        2978.50           2548         158.00       680.05
 1122.10        2978.75           2552         136.00       584.14
 1122.13        2979.00           2555         134.00       575.43
 1122.16        2979.25           2559         131.00       562.35
 1122.19        2979.50           2562         158.00       680.05
 1122.22        2979.75           2566         121.00       518.75
 1122.25        2980.00           2569         127.00       544.91
 1122.28        2980.25           2573         139.00       597.22
 1122.31        2980.50           2577         162.00       697.49
 1122.34        2980.75           2580         131.00       562.35
 1122.37        2981.00           2584         118.00       505.68
 1122.40        2981.25           2587         109.00       466.44
 1122.43        2981.50           2591         130.00       557.99
 1122.46        2981.75           2594         129.00       553.63
 1122.49        2982.00           2598         111.00       475.16
 1122.53        2982.25           2601         121.00       518.75
 1122.56        2982.50           2605         125.00       536.19
 1122.59        2982.75           2609         121.00       518.75
 1122.62        2983.00           2612         147.00       632.10
 1122.65        2983.25           2616         122.00       523.11
 1122.68        2983.50           2619         125.00       536.19
 1122.71        2983.75           2623         105.00       449.00
 1122.74        2984.00           2626         133.00       571.07
HS scan finished at 18:42:58
end
