************************************************************
  HS Scan of (1) Internal mercury lamp
************************************************************
Integration time is 0.2294 seconds per sample
dh061018Reading 51.44 .94 3.17pr1000
************************************************************
Dead Time -------------------------  3.4E-08 
Number of Cycles Used -------------  4 
Starting Wavelength (Angstroms) ---  2950 
Final Wavelength (Angstoms) -------  2984 
Wavelength Increment (Angstroms) --  .25 
Filter Wheel #1 Position ---------- (1) Ground quartz diffuser (ND=2.32)
Filter Wheel #2 Position ---------- (1) Neutral Density 0.494



************************************************************
HS scan start time = 03:24:43
Dark Count =  1 


Time (GMT)  Wavelength (Ang)  Step Number  Raw Counts  Counts/Second

  205.62        2950.00           2144          67.00       287.71
  205.82        2950.25           2147          58.00       248.48
  205.85        2950.50           2151          89.00       383.61
  205.88        2950.75           2155          61.00       261.55
  205.91        2951.00           2158          55.00       235.40
  205.94        2951.25           2162          85.00       366.18
  205.97        2951.50           2165          64.00       274.63
  206.00        2951.75           2169          60.00       257.19
  206.03        2952.00           2172          58.00       248.48
  206.06        2952.25           2176          83.00       357.46
  206.09        2952.50           2179          54.00       231.04
  206.12        2952.75           2183          60.00       257.19
  206.15        2953.00           2186          59.00       252.84
  206.18        2953.25           2190          88.00       379.26
  206.21        2953.50           2193          56.00       239.76
  206.25        2953.75           2197          60.00       257.19
  206.28        2954.00           2200          62.00       265.91
  206.31        2954.25           2204          58.00       248.48
  206.34        2954.50           2208          61.00       261.55
  206.37        2954.75           2211          65.00       278.99
  206.40        2955.00           2215          82.00       353.10
  206.43        2955.25           2218          69.00       296.43
  206.47        2955.50           2222          70.00       300.79
  206.51        2955.75           2225          66.00       283.35
  206.54        2956.00           2229          65.00       278.99
  206.57        2956.25           2232          57.00       244.12
  206.60        2956.50           2236         102.00       440.29
  206.63        2956.75           2239         100.00       431.57
  206.66        2957.00           2243          69.00       296.43
  206.69        2957.25           2246          65.00       278.99
  206.72        2957.50           2250          68.00       292.07
  206.75        2957.75           2254          74.00       318.22
  206.78        2958.00           2257          70.00       300.79
  206.81        2958.25           2261          69.00       296.43
  206.84        2958.50           2264         110.00       475.16
  206.87        2958.75           2268          72.00       309.51
  206.90        2959.00           2271          77.00       331.30
  206.93        2959.25           2275          98.00       422.85
  206.96        2959.50           2278         140.00       605.94
  206.99        2959.75           2282          89.00       383.61
  207.03        2960.00           2285          72.00       309.51
  207.06        2960.25           2289          86.00       370.54
  207.09        2960.50           2293          79.00       340.02
  207.12        2960.75           2296         142.00       614.66
  207.15        2961.00           2300         105.00       453.36
  207.18        2961.25           2303         165.00       714.93
  207.21        2961.50           2307         530.00      2306.20
  207.24        2961.75           2310        1211.00      5275.58
  207.27        2962.00           2314        2240.00      9763.48
  207.30        2962.25           2317        3148.00     13724.80
  207.33        2962.50           2321        4199.00     18311.31
  207.36        2962.75           2324        5130.00     22375.34
  207.39        2963.00           2328        6221.00     27139.24
  207.42        2963.25           2331        7024.00     30646.57
  207.45        2963.50           2335        8211.00     35832.65
  207.48        2963.75           2339        9849.00     42992.18
  207.51        2964.00           2342       10014.00     43713.57
  207.55        2964.25           2346       16620.00     72624.63
  207.58        2964.50           2349       13368.00     58385.19
  207.61        2964.75           2353       13985.00     61085.77
  207.64        2965.00           2356       14724.00     64320.98
  207.67        2965.25           2360       15622.00     68253.24
  207.70        2965.50           2363       16415.00     71726.58
  207.73        2965.75           2367       17452.00     76269.90
  207.76        2966.00           2370       18252.00     79775.81
  207.79        2966.25           2374       19119.00     83576.31
  207.82        2966.50           2378       19615.00     85750.96
  207.85        2966.75           2381       19845.00     86759.47
  207.88        2967.00           2385       19470.00     85115.19
  207.91        2967.25           2388       19652.00     85913.19
  207.94        2967.50           2392       19727.00     86242.05
  207.97        2967.75           2395       19682.00     86044.74
  208.00        2968.00           2399       18910.00     82660.06
  208.03        2968.25           2402       18125.00     79219.19
  208.07        2968.50           2406       16959.00     74109.78
  208.10        2968.75           2409       15959.00     69729.20
  208.13        2969.00           2413       21335.00     93294.59
  208.16        2969.25           2417       14605.00     63799.97
  208.19        2969.50           2420       13190.00     57606.18
  208.22        2969.75           2424       11638.00     50815.71
  208.25        2970.00           2427       10763.00     46988.70
  208.28        2970.25           2431        9708.00     42375.75
  208.31        2970.50           2434        9064.00     39560.59
  208.34        2970.75           2438        8116.00     35417.52
  208.37        2971.00           2441        7100.00     30978.56
  208.40        2971.25           2445        5822.00     25396.82
  208.43        2971.50           2449        4645.00     20258.07
  208.46        2971.75           2452        5605.00     24449.26
  208.49        2972.00           2456        3011.00     13127.04
  208.52        2972.25           2459        2192.00      9554.11
  208.55        2972.50           2463        1140.00      4965.96
  208.59        2972.75           2466         584.00      2541.63
  208.62        2973.00           2470         183.00       793.40
  208.65        2973.25           2473         109.00       470.80
  208.68        2973.50           2477          84.00       361.82
  208.71        2973.75           2481          96.00       414.13
  208.74        2974.00           2484          80.00       344.38
  208.77        2974.25           2488         105.00       453.36
  208.80        2974.50           2491          81.00       348.74
  208.83        2974.75           2495          79.00       340.02
  208.86        2975.00           2498          86.00       370.54
  208.89        2975.25           2502          81.00       348.74
  208.92        2975.50           2505          77.00       331.30
  208.95        2975.75           2509          76.00       326.94
  208.99        2976.00           2512          70.00       300.79
  209.02        2976.25           2516          71.00       305.15
  209.05        2976.50           2520          74.00       318.22
  209.08        2976.75           2523          68.00       292.07
  209.11        2977.00           2527          91.00       392.33
  209.14        2977.25           2530          69.00       296.43
  209.17        2977.50           2534          70.00       300.79
  209.20        2977.75           2537          68.00       292.07
  209.23        2978.00           2541          76.00       326.94
  209.26        2978.25           2544          63.00       270.27
  209.29        2978.50           2548          70.00       300.79
  209.33        2978.75           2552          68.00       292.07
  209.36        2979.00           2555          62.00       265.91
  209.39        2979.25           2559          70.00       300.79
  209.42        2979.50           2562          69.00       296.43
  209.45        2979.75           2566          68.00       292.07
  209.48        2980.00           2569          73.00       313.87
  209.51        2980.25           2573          66.00       283.35
  209.54        2980.50           2577          66.00       283.35
  209.57        2980.75           2580          66.00       283.35
  209.60        2981.00           2584          67.00       287.71
  209.63        2981.25           2587          67.00       287.71
  209.66        2981.50           2591          66.00       283.35
  209.69        2981.75           2594          59.00       252.84
  209.72        2982.00           2598          87.00       374.90
  209.75        2982.25           2601          57.00       244.12
  209.78        2982.50           2605          58.00       248.48
  209.81        2982.75           2609          50.00       213.60
  209.85        2983.00           2612          66.00       283.35
  209.88        2983.25           2616          57.00       244.12
  209.91        2983.50           2619          62.00       265.91
  209.94        2983.75           2623          59.00       252.84
  209.97        2984.00           2626          60.00       257.19
HS scan finished at 03:30:11
end
************************************************************
  HS Scan of (1) Internal mercury lamp
************************************************************
Integration time is 0.2294 seconds per sample
dh061018Reading 51.44 .94 2.94pr1000
************************************************************
Dead Time -------------------------  3.4E-08 
Number of Cycles Used -------------  4 
Starting Wavelength (Angstroms) ---  2950 
Final Wavelength (Angstoms) -------  2984 
Wavelength Increment (Angstroms) --  .25 
Filter Wheel #1 Position ---------- (1) Ground quartz diffuser (ND=2.32)
Filter Wheel #2 Position ---------- (1) Neutral Density 0.494



************************************************************
HS scan start time = 18:37:26
Dark Count =  .6 


Time (GMT)  Wavelength (Ang)  Step Number  Raw Counts  Counts/Second

 1118.33        2950.00           2144          79.00       341.77
 1118.52        2950.25           2147          80.00       346.12
 1118.56        2950.50           2151          78.00       337.41
 1118.59        2950.75           2155          76.00       328.69
 1118.62        2951.00           2158          80.00       346.12
 1118.65        2951.25           2162          78.00       337.41
 1118.68        2951.50           2165          73.00       315.61
 1118.71        2951.75           2169          78.00       337.41
 1118.74        2952.00           2172          88.00       381.00
 1118.77        2952.25           2176          69.00       298.17
 1118.80        2952.50           2179          79.00       341.77
 1118.83        2952.75           2183          82.00       354.84
 1118.86        2953.00           2186          83.00       359.20
 1118.89        2953.25           2190          86.00       372.28
 1118.93        2953.50           2193          84.00       363.56
 1118.97        2953.75           2197          82.00       354.84
 1119.00        2954.00           2200          78.00       337.41
 1119.03        2954.25           2204          78.00       337.41
 1119.06        2954.50           2208          81.00       350.48
 1119.09        2954.75           2211          82.00       354.84
 1119.12        2955.00           2215          79.00       341.77
 1119.15        2955.25           2218          89.00       385.36
 1119.19        2955.50           2222          91.00       394.08
 1119.22        2955.75           2225          84.00       363.56
 1119.25        2956.00           2229          92.00       398.44
 1119.28        2956.25           2232          86.00       372.28
 1119.31        2956.50           2236          86.00       372.28
 1119.34        2956.75           2239          94.00       407.15
 1119.37        2957.00           2243          94.00       407.15
 1119.40        2957.25           2246          93.00       402.80
 1119.43        2957.50           2250          96.00       415.87
 1119.46        2957.75           2254          87.00       376.64
 1119.50        2958.00           2257          94.00       407.15
 1119.53        2958.25           2261          87.00       376.64
 1119.56        2958.50           2264         103.00       446.39
 1119.59        2958.75           2268         107.00       463.83
 1119.62        2959.00           2271         103.00       446.39
 1119.65        2959.25           2275          96.00       415.87
 1119.68        2959.50           2278         103.00       446.39
 1119.71        2959.75           2282         109.00       472.54
 1119.74        2960.00           2285         105.00       455.11
 1119.77        2960.25           2289         114.00       494.34
 1119.80        2960.50           2293         109.00       472.54
 1119.83        2960.75           2296         134.00       581.53
 1119.86        2961.00           2300         164.00       712.31
 1119.89        2961.25           2303         295.00      1283.40
 1119.92        2961.50           2307        1016.00      4427.00
 1119.95        2961.75           2310        1970.00      8587.51
 1119.98        2962.00           2314        3480.00     15175.22
 1120.01        2962.25           2317        4822.00     21032.47
 1120.05        2962.50           2321        6615.00     28861.79
 1120.08        2962.75           2324        7840.00     34213.27
 1120.11        2963.00           2328        9450.00     41249.62
 1120.14        2963.25           2331       10664.00     46557.51
 1120.17        2963.50           2335       12624.00     55131.15
 1120.20        2963.75           2339       14396.00     62886.72
 1120.23        2964.00           2342       15930.00     69603.94
 1120.26        2964.25           2346       17812.00     77849.21
 1120.29        2964.50           2349       19122.00     83591.21
 1120.32        2964.75           2353       20846.00     91151.28
 1120.35        2965.00           2356       22316.00     97600.59
 1120.38        2965.25           2360       23824.00    104219.60
 1120.41        2965.50           2363       25355.00    110942.60
 1120.44        2965.75           2367       27032.00    118310.20
 1120.47        2966.00           2370       28245.00    123641.60
 1120.50        2966.25           2374       29698.00    130030.50
 1120.53        2966.50           2378       30378.00    133021.40
 1120.57        2966.75           2381       30606.00    134024.40
 1120.60        2967.00           2385       30440.00    133294.10
 1120.63        2967.25           2388       30488.00    133505.20
 1120.66        2967.50           2392       30413.00    133175.30
 1120.69        2967.75           2395       30354.00    132915.80
 1120.72        2968.00           2399       29219.00    127924.00
 1120.75        2968.25           2402       28620.00    125290.20
 1120.78        2968.50           2406       26857.00    117541.20
 1120.81        2968.75           2409       25594.00    111992.30
 1120.84        2969.00           2413       23718.00    103754.20
 1120.87        2969.25           2417       21975.00     96104.28
 1120.91        2969.50           2420       20786.00     90888.11
 1120.94        2969.75           2424       19008.00     83091.43
 1120.97        2970.00           2427       17798.00     77787.85
 1121.00        2970.25           2431       15966.00     69761.62
 1121.03        2970.50           2434       14565.00     63626.60
 1121.06        2970.75           2438       12808.00     55936.28
 1121.09        2971.00           2441       11221.00     48993.49
 1121.12        2971.25           2445        9520.00     41555.63
 1121.15        2971.50           2449        7750.00     33820.03
 1121.18        2971.75           2452        6464.00     28202.27
 1121.21        2972.00           2456        4893.00     21342.42
 1121.24        2972.25           2459        3742.00     16318.56
 1121.28        2972.50           2463        2037.00      8879.75
 1121.31        2972.75           2466         922.00      4017.11
 1121.34        2973.00           2470         269.00      1170.06
 1121.37        2973.25           2473         157.00       681.79
 1121.40        2973.50           2477         141.00       612.04
 1121.43        2973.75           2481         150.00       651.28
 1121.46        2974.00           2484         160.00       694.87
 1121.49        2974.25           2488         139.00       603.33
 1121.52        2974.50           2491         125.00       542.29
 1121.55        2974.75           2495         148.00       642.56
 1121.58        2975.00           2498         130.00       564.09
 1121.61        2975.25           2502         115.00       498.70
 1121.64        2975.50           2505         102.00       442.03
 1121.67        2975.75           2509         104.00       450.75
 1121.70        2976.00           2512          94.00       407.15
 1121.73        2976.25           2516         105.00       455.11
 1121.76        2976.50           2520         104.00       450.75
 1121.80        2976.75           2523          89.00       385.36
 1121.83        2977.00           2527         114.00       494.34
 1121.86        2977.25           2530          87.00       376.64
 1121.89        2977.50           2534          98.00       424.59
 1121.92        2977.75           2537          85.00       367.92
 1121.95        2978.00           2541          96.00       415.87
 1121.98        2978.25           2544          90.00       389.72
 1122.01        2978.50           2548         104.00       450.75
 1122.04        2978.75           2552          83.00       359.20
 1122.07        2979.00           2555          93.00       402.80
 1122.10        2979.25           2559          94.00       407.15
 1122.13        2979.50           2562          87.00       376.64
 1122.16        2979.75           2566          87.00       376.64
 1122.19        2980.00           2569          83.00       359.20
 1122.22        2980.25           2573          80.00       346.12
 1122.25        2980.50           2577          90.00       389.72
 1122.28        2980.75           2580          81.00       350.48
 1122.32        2981.00           2584          79.00       341.77
 1122.35        2981.25           2587          98.00       424.59
 1122.38        2981.50           2591          78.00       337.41
 1122.41        2981.75           2594          79.00       341.77
 1122.44        2982.00           2598          72.00       311.25
 1122.47        2982.25           2601          79.00       341.77
 1122.50        2982.50           2605          75.00       324.33
 1122.53        2982.75           2609          77.00       333.05
 1122.56        2983.00           2612          72.00       311.25
 1122.59        2983.25           2616          76.00       328.69
 1122.62        2983.50           2619          86.00       372.28
 1122.65        2983.75           2623          80.00       346.12
 1122.68        2984.00           2626          79.00       341.77
HS scan finished at 18:42:54
end
