************************************************************
  HS Scan of (1) Internal mercury lamp
************************************************************
Integration time is 0.2294 seconds per sample
dh280918Reading 51.44 .94 3.13pr1000
************************************************************
Dead Time -------------------------  3.4E-08 
Number of Cycles Used -------------  4 
Starting Wavelength (Angstroms) ---  2950 
Final Wavelength (Angstoms) -------  2984 
Wavelength Increment (Angstroms) --  .25 
Filter Wheel #1 Position ---------- (1) Ground quartz diffuser (ND=2.32)
Filter Wheel #2 Position ---------- (1) Neutral Density 0.494



************************************************************
HS scan start time = 03:05:27
Dark Count =  1.6 


Time (GMT)  Wavelength (Ang)  Step Number  Raw Counts  Counts/Second

  186.35        2950.00           2144          65.00       276.38
  186.55        2950.25           2147          63.00       267.66
  186.58        2950.50           2151          54.00       228.42
  186.61        2950.75           2155          65.00       276.38
  186.64        2951.00           2158          64.00       272.02
  186.67        2951.25           2162          56.00       237.14
  186.70        2951.50           2165          65.00       276.38
  186.74        2951.75           2169          60.00       254.58
  186.77        2952.00           2172          63.00       267.66
  186.80        2952.25           2176          64.00       272.02
  186.83        2952.50           2179          61.00       258.94
  186.86        2952.75           2183          63.00       267.66
  186.89        2953.00           2186          65.00       276.38
  186.92        2953.25           2190          65.00       276.38
  186.95        2953.50           2193          68.00       289.45
  186.98        2953.75           2197          65.00       276.38
  187.01        2954.00           2200          65.00       276.38
  187.04        2954.25           2204          65.00       276.38
  187.07        2954.50           2208          61.00       258.94
  187.11        2954.75           2211          59.00       250.22
  187.14        2955.00           2215          58.00       245.86
  187.17        2955.25           2218          61.00       258.94
  187.20        2955.50           2222          68.00       289.45
  187.23        2955.75           2225          59.00       250.22
  187.26        2956.00           2229          67.00       285.09
  187.29        2956.25           2232          74.00       315.61
  187.32        2956.50           2236          68.00       289.45
  187.35        2956.75           2239          69.00       293.81
  187.38        2957.00           2243          64.00       272.02
  187.41        2957.25           2246          65.00       276.38
  187.44        2957.50           2250          69.00       293.81
  187.47        2957.75           2254          67.00       285.09
  187.50        2958.00           2257          78.00       333.05
  187.53        2958.25           2261          76.00       324.33
  187.56        2958.50           2264          68.00       289.45
  187.59        2958.75           2268          79.00       337.41
  187.62        2959.00           2271          73.00       311.25
  187.66        2959.25           2275          81.00       346.12
  187.69        2959.50           2278          75.00       319.97
  187.72        2959.75           2282          71.00       302.53
  187.75        2960.00           2285          81.00       346.12
  187.78        2960.25           2289          82.00       350.48
  187.81        2960.50           2293          81.00       346.12
  187.84        2960.75           2296          79.00       337.41
  187.87        2961.00           2300         104.00       446.39
  187.90        2961.25           2303         182.00       786.42
  187.93        2961.50           2307         707.00      3075.30
  187.96        2961.75           2310        1403.00      6110.25
  187.99        2962.00           2314        2390.00     10415.20
  188.02        2962.25           2317        3107.00     13543.29
  188.05        2962.50           2321        4119.00     17959.52
  188.08        2962.75           2324        4900.00     21368.62
  188.11        2963.00           2328        5925.00     25843.97
  188.14        2963.25           2331        6758.00     29482.02
  188.18        2963.50           2335        8015.00     34973.56
  188.21        2963.75           2339        9172.00     40030.04
  188.24        2964.00           2342       17796.00     77774.71
  188.27        2964.25           2346       11919.00     52042.32
  188.30        2964.50           2349       12451.00     54369.82
  188.33        2964.75           2353       13461.00     58789.58
  188.36        2965.00           2356       14428.00     63022.44
  188.39        2965.25           2360       15519.00     67799.53
  188.42        2965.50           2363       16527.00     72214.59
  188.45        2965.75           2367       17355.00     75842.22
  188.48        2966.00           2370       18119.00     79190.27
  188.52        2966.25           2374       18983.00     82977.46
  188.55        2966.50           2378       19542.00     85428.25
  188.58        2966.75           2381       19748.00     86331.50
  188.61        2967.00           2385       19678.00     86024.56
  188.64        2967.25           2388       19667.00     85976.33
  188.67        2967.50           2392       19507.00     85274.79
  188.70        2967.75           2395       19379.00     84713.56
  188.73        2968.00           2399       18936.00     82771.41
  188.76        2968.25           2402       32421.00    142006.60
  188.79        2968.50           2406       18318.00     80062.46
  188.82        2968.75           2409       17416.00     76109.53
  188.85        2969.00           2413       16098.00     70335.40
  188.89        2969.25           2417       14565.00     63622.23
  188.92        2969.50           2420       13583.00     59323.55
  188.95        2969.75           2424       12212.00     53324.15
  188.98        2970.00           2427       11395.00     49750.17
  189.01        2970.25           2431       10106.00     44113.20
  189.04        2970.50           2434        9334.00     40738.17
  189.07        2970.75           2438        8228.00     35904.31
  189.10        2971.00           2441        7279.00     31757.90
  189.13        2971.25           2445        6092.00     26573.26
  189.16        2971.50           2449        4882.00     21290.03
  189.19        2971.75           2452        4070.00     17745.66
  189.22        2972.00           2456        2931.00     12775.38
  189.25        2972.25           2459        2075.00      9041.14
  189.28        2972.50           2463        1021.00      4444.44
  189.31        2972.75           2466         480.00      2085.59
  189.34        2973.00           2470         173.00       747.19
  189.37        2973.25           2473         130.00       559.73
  189.41        2973.50           2477          85.00       363.56
  189.44        2973.75           2481          87.00       372.28
  189.47        2974.00           2484          90.00       385.36
  189.50        2974.25           2488          70.00       298.17
  189.53        2974.50           2491          73.00       311.25
  189.56        2974.75           2495          73.00       311.25
  189.59        2975.00           2498          84.00       359.20
  189.62        2975.25           2502          86.00       367.92
  189.65        2975.50           2505          80.00       341.77
  189.68        2975.75           2509          72.00       306.89
  189.71        2976.00           2512          67.00       285.09
  189.74        2976.25           2516          71.00       302.53
  189.77        2976.50           2520          70.00       298.17
  189.80        2976.75           2523          81.00       346.12
  189.83        2977.00           2527          74.00       315.61
  189.86        2977.25           2530          72.00       306.89
  189.89        2977.50           2534          72.00       306.89
  189.93        2977.75           2537          67.00       285.09
  189.96        2978.00           2541          69.00       293.81
  189.99        2978.25           2544          65.00       276.38
  190.02        2978.50           2548          65.00       276.38
  190.05        2978.75           2552          72.00       306.89
  190.08        2979.00           2555          68.00       289.45
  190.11        2979.25           2559          64.00       272.02
  190.14        2979.50           2562          67.00       285.09
  190.17        2979.75           2566          60.00       254.58
  190.20        2980.00           2569          65.00       276.38
  190.23        2980.25           2573          62.00       263.30
  190.26        2980.50           2577          61.00       258.94
  190.29        2980.75           2580          67.00       285.09
  190.32        2981.00           2584          60.00       254.58
  190.35        2981.25           2587          62.00       263.30
  190.38        2981.50           2591          65.00       276.38
  190.41        2981.75           2594          61.00       258.94
  190.44        2982.00           2598          57.00       241.50
  190.48        2982.25           2601          65.00       276.38
  190.51        2982.50           2605          61.00       258.94
  190.54        2982.75           2609          58.00       245.86
  190.57        2983.00           2612          61.00       258.94
  190.60        2983.25           2616          55.00       232.78
  190.63        2983.50           2619          59.00       250.22
  190.66        2983.75           2623          64.00       272.02
  190.69        2984.00           2626          54.00       228.42
HS scan finished at 03:10:55
end
************************************************************
  HS Scan of (1) Internal mercury lamp
************************************************************
Integration time is 0.2294 seconds per sample
dh280918Reading 51.44 .94 3.39pr1000
************************************************************
Dead Time -------------------------  3.4E-08 
Number of Cycles Used -------------  4 
Starting Wavelength (Angstroms) ---  2950 
Final Wavelength (Angstoms) -------  2984 
Wavelength Increment (Angstroms) --  .25 
Filter Wheel #1 Position ---------- (1) Ground quartz diffuser (ND=2.32)
Filter Wheel #2 Position ---------- (1) Neutral Density 0.494



************************************************************
HS scan start time = 18:37:23
Dark Count =  2.4 


Time (GMT)  Wavelength (Ang)  Step Number  Raw Counts  Counts/Second

 1118.28        2950.00           2144          56.00       233.65
 1118.47        2950.25           2147          49.00       203.14
 1118.51        2950.50           2151          44.00       181.34
 1118.54        2950.75           2155          40.00       163.91
 1118.57        2951.00           2158          40.00       163.91
 1118.60        2951.25           2162          34.00       137.75
 1118.63        2951.50           2165          38.00       155.19
 1118.66        2951.75           2169          41.00       168.27
 1118.69        2952.00           2172          46.00       190.06
 1118.72        2952.25           2176          41.00       168.27
 1118.75        2952.50           2179          45.00       185.70
 1118.78        2952.75           2183          44.00       181.34
 1118.81        2953.00           2186          42.00       172.63
 1118.84        2953.25           2190          43.00       176.98
 1118.87        2953.50           2193          39.00       159.55
 1118.90        2953.75           2197          44.00       181.34
 1118.93        2954.00           2200          47.00       194.42
 1118.96        2954.25           2204          45.00       185.70
 1118.99        2954.50           2208          40.00       163.91
 1119.03        2954.75           2211          40.00       163.91
 1119.06        2955.00           2215          40.00       163.91
 1119.09        2955.25           2218          42.00       172.63
 1119.12        2955.50           2222          38.00       155.19
 1119.15        2955.75           2225          48.00       198.78
 1119.18        2956.00           2229          41.00       168.27
 1119.21        2956.25           2232          47.00       194.42
 1119.24        2956.50           2236          45.00       185.70
 1119.27        2956.75           2239          47.00       194.42
 1119.30        2957.00           2243          44.00       181.34
 1119.33        2957.25           2246          45.00       185.70
 1119.36        2957.50           2250          45.00       185.70
 1119.39        2957.75           2254          47.00       194.42
 1119.42        2958.00           2257          47.00       194.42
 1119.45        2958.25           2261          54.00       224.94
 1119.48        2958.50           2264          47.00       194.42
 1119.51        2958.75           2268          47.00       194.42
 1119.55        2959.00           2271          56.00       233.65
 1119.58        2959.25           2275          49.00       203.14
 1119.61        2959.50           2278          54.00       224.94
 1119.64        2959.75           2282          56.00       233.65
 1119.67        2960.00           2285          52.00       216.22
 1119.70        2960.25           2289          56.00       233.65
 1119.73        2960.50           2293          57.00       238.01
 1119.76        2960.75           2296          61.00       255.45
 1119.79        2961.00           2300          69.00       290.33
 1119.82        2961.25           2303         131.00       560.60
 1119.85        2961.50           2307         427.00      1851.03
 1119.88        2961.75           2310         813.00      3533.99
 1119.91        2962.00           2314        1504.00      6547.23
 1119.94        2962.25           2317        2044.00      8902.43
 1119.97        2962.50           2321        2708.00     11798.98
 1120.00        2962.75           2324        3170.00     13814.68
 1120.03        2963.00           2328        3931.00     17135.53
 1120.07        2963.25           2331        4523.00     19719.41
 1120.10        2963.50           2335        5187.00     22618.09
 1120.13        2963.75           2339        6027.00     26285.91
 1120.16        2964.00           2342        6680.00     29137.84
 1120.19        2964.25           2346        7370.00     32151.96
 1120.22        2964.50           2349        7860.00     34292.79
 1120.25        2964.75           2353        8807.00     38431.18
 1120.28        2965.00           2356        9496.00     41442.83
 1120.31        2965.25           2360       10281.00     44874.87
 1120.34        2965.50           2363       10823.00     47244.97
 1120.37        2965.75           2367       11522.00     50302.17
 1120.40        2966.00           2370       12075.00     52721.27
 1120.43        2966.25           2374       12720.00     55543.33
 1120.46        2966.50           2378       12788.00     55840.89
 1120.49        2966.75           2381       12957.00     56580.41
 1120.52        2967.00           2385       12142.00     53014.39
 1120.55        2967.25           2388       22588.00     98786.34
 1120.59        2967.50           2392       12886.00     56269.71
 1120.62        2967.75           2395       12079.00     52738.77
 1120.65        2968.00           2399       11607.00     50673.98
 1120.68        2968.25           2402       11063.00     48294.58
 1120.71        2968.50           2406       10308.00     44992.92
 1120.74        2968.75           2409        9652.00     42124.81
 1120.77        2969.00           2413        9018.00     39353.41
 1120.80        2969.25           2417        8091.00     35302.16
 1120.83        2969.50           2420        7741.00     33772.85
 1120.86        2969.75           2424       13420.00     58606.64
 1120.89        2970.00           2427        7632.00     33296.61
 1120.92        2970.25           2431        6675.00     29115.99
 1120.95        2970.50           2434        5969.00     26032.62
 1120.98        2970.75           2438        5269.00     22976.10
 1121.01        2971.00           2441        4694.00     20465.85
 1121.04        2971.25           2445        3953.00     17231.54
 1121.07        2971.50           2449        3085.00     13443.81
 1121.11        2971.75           2452        2480.00     10804.32
 1121.14        2972.00           2456        1625.00      7074.94
 1121.17        2972.25           2459        1143.00      4972.94
 1121.20        2972.50           2463         521.00      2260.85
 1121.23        2972.75           2466         234.00      1009.62
 1121.26        2973.00           2470          85.00       360.07
 1121.29        2973.25           2473          61.00       255.45
 1121.32        2973.50           2477          60.00       251.09
 1121.35        2973.75           2481          59.00       246.73
 1121.38        2974.00           2484          56.00       233.65
 1121.41        2974.25           2488          53.00       220.58
 1121.44        2974.50           2491          52.00       216.22
 1121.47        2974.75           2495          45.00       185.70
 1121.50        2975.00           2498          48.00       198.78
 1121.53        2975.25           2502          48.00       198.78
 1121.56        2975.50           2505          46.00       190.06
 1121.59        2975.75           2509          48.00       198.78
 1121.63        2976.00           2512          48.00       198.78
 1121.66        2976.25           2516          46.00       190.06
 1121.69        2976.50           2520          46.00       190.06
 1121.72        2976.75           2523          43.00       176.98
 1121.75        2977.00           2527          46.00       190.06
 1121.78        2977.25           2530          40.00       163.91
 1121.81        2977.50           2534          48.00       198.78
 1121.84        2977.75           2537          43.00       176.98
 1121.87        2978.00           2541          38.00       155.19
 1121.90        2978.25           2544          65.00       272.89
 1121.93        2978.50           2548          58.00       242.37
 1121.96        2978.75           2552          41.00       168.27
 1121.99        2979.00           2555          46.00       190.06
 1122.02        2979.25           2559          45.00       185.70
 1122.05        2979.50           2562          47.00       194.42
 1122.08        2979.75           2566          38.00       155.19
 1122.11        2980.00           2569          41.00       168.27
 1122.15        2980.25           2573          43.00       176.98
 1122.18        2980.50           2577          44.00       181.34
 1122.21        2980.75           2580          42.00       172.63
 1122.24        2981.00           2584          40.00       163.91
 1122.27        2981.25           2587          43.00       176.98
 1122.30        2981.50           2591          38.00       155.19
 1122.34        2981.75           2594          42.00       172.63
 1122.37        2982.00           2598          41.00       168.27
 1122.40        2982.25           2601          41.00       168.27
 1122.43        2982.50           2605          40.00       163.91
 1122.46        2982.75           2609          36.00       146.47
 1122.49        2983.00           2612          35.00       142.11
 1122.52        2983.25           2616          40.00       163.91
 1122.55        2983.50           2619          36.00       146.47
 1122.58        2983.75           2623          39.00       159.55
 1122.61        2984.00           2626          35.00       142.11
HS scan finished at 18:42:50
end
