************************************************************
  HS Scan of (1) Internal mercury lamp
************************************************************
Integration time is 0.2294 seconds per sample
dh270918Reading 51.44 .94 3.15pr1000
************************************************************
Dead Time -------------------------  3.4E-08 
Number of Cycles Used -------------  4 
Starting Wavelength (Angstroms) ---  2950 
Final Wavelength (Angstoms) -------  2984 
Wavelength Increment (Angstroms) --  .25 
Filter Wheel #1 Position ---------- (1) Ground quartz diffuser (ND=2.32)
Filter Wheel #2 Position ---------- (1) Neutral Density 0.494



************************************************************
HS scan start time = 03:02:47
Dark Count =  1.1 


Time (GMT)  Wavelength (Ang)  Step Number  Raw Counts  Counts/Second

  183.69        2950.00           2144          84.00       361.38
  183.88        2950.25           2147          81.00       348.30
  183.91        2950.50           2151          85.00       365.74
  183.94        2950.75           2155          89.00       383.18
  183.97        2951.00           2158          82.00       352.66
  184.00        2951.25           2162          86.00       370.10
  184.03        2951.50           2165          90.00       387.54
  184.06        2951.75           2169          82.00       352.66
  184.09        2952.00           2172          85.00       365.74
  184.12        2952.25           2176          87.00       374.46
  184.15        2952.50           2179          84.00       361.38
  184.18        2952.75           2183          83.00       357.02
  184.22        2953.00           2186          90.00       387.54
  184.25        2953.25           2190          87.00       374.46
  184.28        2953.50           2193          97.00       418.05
  184.31        2953.75           2197          96.00       413.69
  184.34        2954.00           2200          97.00       418.05
  184.37        2954.25           2204          83.00       357.02
  184.40        2954.50           2208          98.00       422.41
  184.43        2954.75           2211          93.00       400.62
  184.46        2955.00           2215          91.00       391.90
  184.49        2955.25           2218          98.00       422.41
  184.52        2955.50           2222          97.00       418.05
  184.55        2955.75           2225          99.00       426.77
  184.58        2956.00           2229          99.00       426.77
  184.61        2956.25           2232          94.00       404.98
  184.64        2956.50           2236          87.00       374.46
  184.67        2956.75           2239          76.00       326.51
  184.70        2957.00           2243          78.00       335.23
  184.74        2957.25           2246          72.00       309.07
  184.77        2957.50           2250          70.00       300.35
  184.80        2957.75           2254         124.00       535.76
  184.83        2958.00           2257         100.00       431.13
  184.86        2958.25           2261         139.00       601.15
  184.89        2958.50           2264          73.00       313.43
  184.92        2958.75           2268          81.00       348.30
  184.95        2959.00           2271          69.00       295.99
  184.98        2959.25           2275          73.00       313.43
  185.01        2959.50           2278          78.00       335.23
  185.04        2959.75           2282          82.00       352.66
  185.07        2960.00           2285          74.00       317.79
  185.10        2960.25           2289         157.00       679.61
  185.13        2960.50           2293         159.00       688.33
  185.16        2960.75           2296         100.00       431.13
  185.19        2961.00           2300         149.00       644.74
  185.22        2961.25           2303         202.00       875.79
  185.25        2961.50           2307         679.00      2955.40
  185.29        2961.75           2310        1392.00      6064.46
  185.32        2962.00           2314        2439.00     10631.13
  185.35        2962.25           2317        5799.00     25295.94
  185.38        2962.50           2321        6423.00     28021.02
  185.41        2962.75           2324        5768.00     25160.57
  185.44        2963.00           2328        6683.00     29156.61
  185.47        2963.25           2331        7584.00     33092.58
  185.50        2963.50           2335        8697.00     37956.11
  185.53        2963.75           2339        9850.00     42996.12
  185.56        2964.00           2342       10796.00     47132.58
  185.59        2964.25           2346       11779.00     51432.06
  185.62        2964.50           2349       12612.00     55076.45
  185.65        2964.75           2353       13799.00     60271.17
  185.68        2965.00           2356       14664.00     64057.85
  185.71        2965.25           2360       15816.00     69102.45
  185.74        2965.50           2363       29873.00    130797.90
  185.77        2965.75           2367       18979.00     82962.11
  185.81        2966.00           2370       19426.00     84921.83
  185.84        2966.25           2374       19904.00     87017.75
  185.87        2966.50           2378       20306.00     88780.66
  185.90        2966.75           2381       20307.00     88785.05
  185.93        2967.00           2385       20097.00     87864.09
  185.96        2967.25           2388       19933.00     87144.92
  185.99        2967.50           2392       19810.00     86605.56
  186.02        2967.75           2395       19540.00     85421.68
  186.05        2968.00           2399       18798.00     82168.65
  186.08        2968.25           2402       18328.00     80108.48
  186.11        2968.50           2406       17241.00     75344.91
  186.14        2968.75           2409       17017.00     74363.46
  186.17        2969.00           2413       15632.00     68296.60
  186.20        2969.25           2417       14363.00     62740.06
  186.23        2969.50           2420       13546.00     59163.80
  186.26        2969.75           2424       12446.00     54350.13
  186.29        2970.00           2427       11779.00     51432.06
  186.33        2970.25           2431       10495.00     45816.31
  186.36        2970.50           2434        9390.00     40985.15
  186.39        2970.75           2438       12497.00     54573.27
  186.42        2971.00           2441        7901.00     34477.62
  186.45        2971.25           2445        6544.00     28549.50
  186.48        2971.50           2449        5372.00     23431.48
  186.51        2971.75           2452        4309.00     18790.99
  186.54        2972.00           2456        3113.00     13571.65
  186.57        2972.25           2459        2246.00      9789.22
  186.60        2972.50           2463        1183.00      5153.04
  186.63        2972.75           2466         662.00      2881.28
  186.66        2973.00           2470         192.00       832.19
  186.69        2973.25           2473         110.00       474.72
  186.72        2973.50           2477          85.00       365.74
  186.75        2973.75           2481          75.00       322.15
  186.78        2974.00           2484          86.00       370.10
  186.81        2974.25           2488          76.00       326.51
  186.85        2974.50           2491          76.00       326.51
  186.88        2974.75           2495          77.00       330.87
  186.91        2975.00           2498          73.00       313.43
  186.94        2975.25           2502         125.00       540.11
  186.97        2975.50           2505          81.00       348.30
  187.00        2975.75           2509          76.00       326.51
  187.03        2976.00           2512          76.00       326.51
  187.06        2976.25           2516          74.00       317.79
  187.09        2976.50           2520          74.00       317.79
  187.12        2976.75           2523          69.00       295.99
  187.15        2977.00           2527         102.00       439.85
  187.18        2977.25           2530          67.00       287.27
  187.21        2977.50           2534          67.00       287.27
  187.24        2977.75           2537          76.00       326.51
  187.27        2978.00           2541          67.00       287.27
  187.30        2978.25           2544          67.00       287.27
  187.34        2978.50           2548          73.00       313.43
  187.37        2978.75           2552          68.00       291.63
  187.40        2979.00           2555          68.00       291.63
  187.43        2979.25           2559          69.00       295.99
  187.46        2979.50           2562          65.00       278.56
  187.49        2979.75           2566          70.00       300.35
  187.52        2980.00           2569          56.00       239.32
  187.55        2980.25           2573          98.00       422.41
  187.58        2980.50           2577          67.00       287.27
  187.61        2980.75           2580          60.00       256.76
  187.64        2981.00           2584          66.00       282.91
  187.67        2981.25           2587          62.00       265.48
  187.70        2981.50           2591          62.00       265.48
  187.73        2981.75           2594          66.00       282.91
  187.76        2982.00           2598          59.00       252.40
  187.79        2982.25           2601          54.00       230.60
  187.82        2982.50           2605          58.00       248.04
  187.86        2982.75           2609          90.00       387.54
  187.89        2983.00           2612          66.00       282.91
  187.92        2983.25           2616          63.00       269.84
  187.95        2983.50           2619          62.00       265.48
  187.98        2983.75           2623          62.00       265.48
  188.01        2984.00           2626          61.00       261.12
HS scan finished at 03:08:14
end
************************************************************
  HS Scan of (1) Internal mercury lamp
************************************************************
Integration time is 0.2294 seconds per sample
dh270918Reading 51.44 .94 3.74pr1000
************************************************************
Dead Time -------------------------  3.4E-08 
Number of Cycles Used -------------  4 
Starting Wavelength (Angstroms) ---  2950 
Final Wavelength (Angstoms) -------  2984 
Wavelength Increment (Angstroms) --  .25 
Filter Wheel #1 Position ---------- (1) Ground quartz diffuser (ND=2.32)
Filter Wheel #2 Position ---------- (1) Neutral Density 0.494



************************************************************
HS scan start time = 18:37:28
Dark Count =  5.5 


Time (GMT)  Wavelength (Ang)  Step Number  Raw Counts  Counts/Second

 1118.37        2950.00           2144          36.00       132.96
 1118.56        2950.25           2147          31.00       111.16
 1118.59        2950.50           2151          33.00       119.88
 1118.62        2950.75           2155          36.00       132.96
 1118.65        2951.00           2158          36.00       132.96
 1118.68        2951.25           2162          36.00       132.96
 1118.71        2951.50           2165          34.00       124.24
 1118.75        2951.75           2169          34.00       124.24
 1118.78        2952.00           2172          35.00       128.60
 1118.81        2952.25           2176          34.00       124.24
 1118.84        2952.50           2179          29.00       102.44
 1118.87        2952.75           2183          35.00       128.60
 1118.90        2953.00           2186          29.00       102.44
 1118.93        2953.25           2190          37.00       137.32
 1118.96        2953.50           2193          35.00       128.60
 1118.99        2953.75           2197          31.00       111.16
 1119.02        2954.00           2200          35.00       128.60
 1119.05        2954.25           2204          33.00       119.88
 1119.08        2954.50           2208          38.00       141.67
 1119.11        2954.75           2211          30.00       106.80
 1119.14        2955.00           2215          38.00       141.67
 1119.17        2955.25           2218          33.00       119.88
 1119.20        2955.50           2222          28.00        98.08
 1119.23        2955.75           2225          33.00       119.88
 1119.27        2956.00           2229          37.00       137.32
 1119.30        2956.25           2232          40.00       150.39
 1119.33        2956.50           2236          38.00       141.67
 1119.36        2956.75           2239          35.00       128.60
 1119.39        2957.00           2243          35.00       128.60
 1119.42        2957.25           2246          46.00       176.55
 1119.45        2957.50           2250          37.00       137.32
 1119.48        2957.75           2254          39.00       146.03
 1119.51        2958.00           2257          38.00       141.67
 1119.54        2958.25           2261          43.00       163.47
 1119.57        2958.50           2264          35.00       128.60
 1119.60        2958.75           2268          46.00       176.55
 1119.63        2959.00           2271          37.00       137.32
 1119.66        2959.25           2275          44.00       167.83
 1119.69        2959.50           2278          42.00       159.11
 1119.72        2959.75           2282          40.00       150.39
 1119.75        2960.00           2285          38.00       141.67
 1119.79        2960.25           2289          47.00       180.91
 1119.82        2960.50           2293          47.00       180.91
 1119.85        2960.75           2296          50.00       193.99
 1119.88        2961.00           2300          59.00       233.22
 1119.91        2961.25           2303         106.00       438.11
 1119.94        2961.50           2307         387.00      1663.13
 1119.97        2961.75           2310         741.00      3206.54
 1120.00        2962.00           2314        1232.00      5347.53
 1120.03        2962.25           2317        1657.00      7200.98
 1120.06        2962.50           2321        2273.00      9887.81
 1120.09        2962.75           2324        2687.00     11693.84
 1120.12        2963.00           2328        3241.00     14110.96
 1120.15        2963.25           2331        3663.00     15952.42
 1120.18        2963.50           2335        4277.00     18632.11
 1120.21        2963.75           2339        4947.00     21556.77
 1120.24        2964.00           2342        5489.00     23923.11
 1120.27        2964.25           2346        6035.00     26307.31
 1120.31        2964.50           2349        6419.00     27984.33
 1120.34        2964.75           2353        7069.00     30823.48
 1120.37        2965.00           2356        7620.00     33230.64
 1120.40        2965.25           2360        8187.00     35708.11
 1120.43        2965.50           2363        8588.00     37460.50
 1120.46        2965.75           2367        9268.00     40432.62
 1120.49        2966.00           2370        9567.00     41739.67
 1120.52        2966.25           2374       10293.00     44913.79
 1120.55        2966.50           2378       10640.00     46431.13
 1120.58        2966.75           2381       10675.00     46584.19
 1120.61        2967.00           2385       10670.00     46562.33
 1120.64        2967.25           2388       10505.00     45840.80
 1120.67        2967.50           2392       10568.00     46116.28
 1120.70        2967.75           2395       10443.00     45569.68
 1120.73        2968.00           2399       10224.00     44612.08
 1120.76        2968.25           2402        9829.00     42885.07
 1120.79        2968.50           2406        9549.00     41660.98
 1120.83        2968.75           2409        9113.00     39755.10
 1120.86        2969.00           2413        8430.00     36770.01
 1120.89        2969.25           2417        7772.00     33894.75
 1120.92        2969.50           2420        7427.00     32387.43
 1120.95        2969.75           2424        6847.00     29853.74
 1120.98        2970.00           2427        6427.00     28019.27
 1121.01        2970.25           2431        5630.00     24538.77
 1121.04        2970.50           2434        5054.00     22023.90
 1121.07        2970.75           2438        4360.00     18994.39
 1121.10        2971.00           2441        3922.00     17082.72
 1121.13        2971.25           2445        3362.00     14638.93
 1121.16        2971.50           2449        2655.00     11554.23
 1121.19        2971.75           2452        2290.00      9961.96
 1121.22        2972.00           2456        1620.00      7039.61
 1121.26        2972.25           2459        1200.00      5207.98
 1121.29        2972.50           2463         580.00      2504.57
 1121.32        2972.75           2466         296.00      1266.40
 1121.35        2973.00           2470          87.00       355.28
 1121.38        2973.25           2473          66.00       263.73
 1121.41        2973.50           2477          45.00       172.19
 1121.44        2973.75           2481          47.00       180.91
 1121.47        2974.00           2484          44.00       167.83
 1121.50        2974.25           2488          48.00       185.27
 1121.53        2974.50           2491          49.00       189.63
 1121.56        2974.75           2495          42.00       159.11
 1121.59        2975.00           2498          50.00       193.99
 1121.62        2975.25           2502          38.00       141.67
 1121.66        2975.50           2505          43.00       163.47
 1121.69        2975.75           2509          46.00       176.55
 1121.72        2976.00           2512          42.00       159.11
 1121.75        2976.25           2516          38.00       141.67
 1121.78        2976.50           2520          41.00       154.75
 1121.81        2976.75           2523          41.00       154.75
 1121.84        2977.00           2527          39.00       146.03
 1121.87        2977.25           2530          34.00       124.24
 1121.90        2977.50           2534          40.00       150.39
 1121.93        2977.75           2537          46.00       176.55
 1121.96        2978.00           2541          36.00       132.96
 1121.99        2978.25           2544          45.00       172.19
 1122.02        2978.50           2548          34.00       124.24
 1122.05        2978.75           2552          34.00       124.24
 1122.08        2979.00           2555          38.00       141.67
 1122.11        2979.25           2559          37.00       137.32
 1122.14        2979.50           2562          38.00       141.67
 1122.18        2979.75           2566          34.00       124.24
 1122.21        2980.00           2569          38.00       141.67
 1122.24        2980.25           2573          38.00       141.67
 1122.27        2980.50           2577          33.00       119.88
 1122.30        2980.75           2580          37.00       137.32
 1122.33        2981.00           2584          38.00       141.67
 1122.36        2981.25           2587          36.00       132.96
 1122.39        2981.50           2591          37.00       137.32
 1122.42        2981.75           2594          34.00       124.24
 1122.45        2982.00           2598          35.00       128.60
 1122.48        2982.25           2601          36.00       132.96
 1122.51        2982.50           2605          33.00       119.88
 1122.54        2982.75           2609          31.00       111.16
 1122.57        2983.00           2612          38.00       141.67
 1122.60        2983.25           2616          35.00       128.60
 1122.63        2983.50           2619          28.00        98.08
 1122.66        2983.75           2623          33.00       119.88
 1122.70        2984.00           2626          26.00        89.36
HS scan finished at 18:42:55
end
