************************************************************
  HS Scan of (1) Internal mercury lamp
************************************************************
Integration time is 0.2294 seconds per sample
dh011018Reading 51.44 .94 2.74pr1000
************************************************************
Dead Time -------------------------  3.4E-08 
Number of Cycles Used -------------  4 
Starting Wavelength (Angstroms) ---  2950 
Final Wavelength (Angstoms) -------  2984 
Wavelength Increment (Angstroms) --  .25 
Filter Wheel #1 Position ---------- (1) Ground quartz diffuser (ND=2.32)
Filter Wheel #2 Position ---------- (1) Neutral Density 0.494



************************************************************
HS scan start time = 03:12:58
Dark Count =  .5 


Time (GMT)  Wavelength (Ang)  Step Number  Raw Counts  Counts/Second

  193.87        2950.00           2144          97.00       420.67
  194.06        2950.25           2147          91.00       394.51
  194.09        2950.50           2151          93.00       403.23
  194.12        2950.75           2155          89.00       385.79
  194.15        2951.00           2158         102.00       442.47
  194.18        2951.25           2162          94.00       407.59
  194.21        2951.50           2165          94.00       407.59
  194.24        2951.75           2169          95.00       411.95
  194.27        2952.00           2172          96.00       416.31
  194.30        2952.25           2176          96.00       416.31
  194.33        2952.50           2179          96.00       416.31
  194.37        2952.75           2183         103.00       446.82
  194.40        2953.00           2186         110.00       477.34
  194.43        2953.25           2190          94.00       407.59
  194.46        2953.50           2193         119.00       516.57
  194.49        2953.75           2197          97.00       420.67
  194.52        2954.00           2200          94.00       407.59
  194.55        2954.25           2204         107.00       464.26
  194.58        2954.50           2208          99.00       429.39
  194.61        2954.75           2211          97.00       420.67
  194.64        2955.00           2215         104.00       451.18
  194.67        2955.25           2218         103.00       446.82
  194.70        2955.50           2222         117.00       507.86
  194.73        2955.75           2225          94.00       407.59
  194.76        2956.00           2229         127.00       551.45
  194.79        2956.25           2232         117.00       507.86
  194.82        2956.50           2236         106.00       459.90
  194.85        2956.75           2239         109.00       472.98
  194.88        2957.00           2243         113.00       490.42
  194.92        2957.25           2246         116.00       503.50
  194.95        2957.50           2250         130.00       564.53
  194.98        2957.75           2254         132.00       573.25
  195.01        2958.00           2257         131.00       568.89
  195.04        2958.25           2261         133.00       577.61
  195.07        2958.50           2264         115.00       499.14
  195.10        2958.75           2268         122.00       529.65
  195.13        2959.00           2271         138.00       599.40
  195.16        2959.25           2275         135.00       586.32
  195.19        2959.50           2278         128.00       555.81
  195.22        2959.75           2282         132.00       573.25
  195.25        2960.00           2285         143.00       621.20
  195.28        2960.25           2289         145.00       629.92
  195.31        2960.50           2293         154.00       669.15
  195.34        2960.75           2296         146.00       634.28
  195.37        2961.00           2300         164.00       712.75
  195.40        2961.25           2303         259.00      1126.90
  195.44        2961.50           2307         870.00      3790.81
  195.47        2961.75           2310        1880.00      8195.40
  195.50        2962.00           2314        3868.00     16868.87
  195.53        2962.25           2317        5286.00     23058.61
  195.56        2962.50           2321        7219.00     31500.59
  195.59        2962.75           2324        8749.00     38185.99
  195.62        2963.00           2328       10961.00     47856.80
  195.65        2963.25           2331       12604.00     55044.07
  195.68        2963.50           2335       14762.00     64489.55
  195.71        2963.75           2339       16885.00     73787.78
  195.74        2964.00           2342       18653.00     81535.66
  195.77        2964.25           2346       20749.00     90726.25
  195.80        2964.50           2349       22249.00     97307.02
  195.83        2964.75           2353       24196.00    105853.30
  195.86        2965.00           2356       25500.00    111579.90
  195.89        2965.25           2360       27525.00    120477.20
  195.92        2965.50           2363       29358.00    128535.70
  195.96        2965.75           2367       31258.00    136893.30
  195.99        2966.00           2370       32732.00    143380.40
  196.02        2966.25           2374       34295.00    150262.20
  196.05        2966.50           2378       35376.00    155023.80
  196.08        2966.75           2381       35590.00    155966.60
  196.11        2967.00           2385       35566.00    155860.80
  196.14        2967.25           2388       35761.00    156720.00
  196.17        2967.50           2392       35509.00    155609.70
  196.20        2967.75           2395       35013.00    153424.70
  196.23        2968.00           2399       33944.00    148716.50
  196.26        2968.25           2402       33074.00    144885.90
  196.29        2968.50           2406       30936.00    135476.60
  196.32        2968.75           2409       29379.00    128628.00
  196.35        2969.00           2413       27467.00    120222.30
  196.38        2969.25           2417       25301.00    110705.80
  196.41        2969.50           2420       23976.00    104887.30
  196.44        2969.75           2424       21775.00     95227.18
  196.48        2970.00           2427       20360.00     89020.12
  196.51        2970.25           2431       18461.00     80694.07
  196.54        2970.50           2434       16796.00     73397.85
  196.57        2970.75           2438       14458.00     63158.59
  196.60        2971.00           2441       12681.00     55380.99
  196.63        2971.25           2445       10645.00     46474.87
  196.66        2971.50           2449        8508.00     37132.73
  196.69        2971.75           2452        7007.00     30574.49
  196.72        2972.00           2456        5080.00     22159.24
  196.75        2972.25           2459        3568.00     15559.67
  196.78        2972.50           2463        1846.00      8047.10
  196.81        2972.75           2466         906.00      3947.78
  196.84        2973.00           2470         291.00      1266.40
  196.87        2973.25           2473         174.00       756.34
  196.90        2973.50           2477         154.00       669.15
  196.93        2973.75           2481         161.00       699.67
  196.96        2974.00           2484         162.00       704.03
  197.00        2974.25           2488         138.00       599.40
  197.03        2974.50           2491         140.00       608.12
  197.06        2974.75           2495         146.00       634.28
  197.09        2975.00           2498         120.00       520.93
  197.12        2975.25           2502         147.00       638.64
  197.15        2975.50           2505         136.00       590.68
  197.18        2975.75           2509         133.00       577.61
  197.21        2976.00           2512         136.00       590.68
  197.24        2976.25           2516         115.00       499.14
  197.27        2976.50           2520         126.00       547.09
  197.30        2976.75           2523         136.00       590.68
  197.33        2977.00           2527         113.00       490.42
  197.36        2977.25           2530         121.00       525.29
  197.39        2977.50           2534          97.00       420.67
  197.42        2977.75           2537         109.00       472.98
  197.45        2978.00           2541         111.00       481.70
  197.48        2978.25           2544         101.00       438.11
  197.52        2978.50           2548         105.00       455.54
  197.55        2978.75           2552         101.00       438.11
  197.58        2979.00           2555         121.00       525.29
  197.61        2979.25           2559          90.00       390.15
  197.64        2979.50           2562         102.00       442.47
  197.67        2979.75           2566         102.00       442.47
  197.70        2980.00           2569          93.00       403.23
  197.73        2980.25           2573         100.00       433.75
  197.76        2980.50           2577         112.00       486.06
  197.79        2980.75           2580          87.00       377.08
  197.82        2981.00           2584          99.00       429.39
  197.85        2981.25           2587          93.00       403.23
  197.88        2981.50           2591          92.00       398.87
  197.91        2981.75           2594          97.00       420.67
  197.94        2982.00           2598          96.00       416.31
  197.97        2982.25           2601          99.00       429.39
  198.00        2982.50           2605          88.00       381.43
  198.04        2982.75           2609          84.00       364.00
  198.07        2983.00           2612          88.00       381.43
  198.10        2983.25           2616          87.00       377.08
  198.13        2983.50           2619         112.00       486.06
  198.16        2983.75           2623          97.00       420.67
  198.19        2984.00           2626         104.00       451.18
HS scan finished at 03:18:24
end
************************************************************
  HS Scan of (1) Internal mercury lamp
************************************************************
Integration time is 0.2294 seconds per sample
dh011018Reading 51.44 .94 3.33pr1000
************************************************************
Dead Time -------------------------  3.4E-08 
Number of Cycles Used -------------  4 
Starting Wavelength (Angstroms) ---  2950 
Final Wavelength (Angstoms) -------  2984 
Wavelength Increment (Angstroms) --  .25 
Filter Wheel #1 Position ---------- (1) Ground quartz diffuser (ND=2.32)
Filter Wheel #2 Position ---------- (1) Neutral Density 0.494



************************************************************
HS scan start time = 18:37:26
Dark Count =  1.7 


Time (GMT)  Wavelength (Ang)  Step Number  Raw Counts  Counts/Second

 1118.33        2950.00           2144          34.00       140.80
 1118.53        2950.25           2147          37.00       153.88
 1118.56        2950.50           2151          38.00       158.24
 1118.59        2950.75           2155          36.00       149.52
 1118.62        2951.00           2158          34.00       140.80
 1118.65        2951.25           2162          56.00       236.71
 1118.68        2951.50           2165          53.00       223.63
 1118.71        2951.75           2169          39.00       162.60
 1118.74        2952.00           2172          36.00       149.52
 1118.77        2952.25           2176          39.00       162.60
 1118.80        2952.50           2179          34.00       140.80
 1118.83        2952.75           2183          39.00       162.60
 1118.86        2953.00           2186          54.00       227.99
 1118.89        2953.25           2190          54.00       227.99
 1118.92        2953.50           2193          37.00       153.88
 1118.96        2953.75           2197          39.00       162.60
 1118.99        2954.00           2200          41.00       171.32
 1119.02        2954.25           2204          61.00       258.50
 1119.05        2954.50           2208          62.00       262.86
 1119.08        2954.75           2211          35.00       145.16
 1119.11        2955.00           2215          38.00       158.24
 1119.14        2955.25           2218          35.00       145.16
 1119.17        2955.50           2222          41.00       171.32
 1119.20        2955.75           2225          45.00       188.75
 1119.23        2956.00           2229          46.00       193.11
 1119.26        2956.25           2232          67.00       284.66
 1119.29        2956.50           2236          43.00       180.04
 1119.32        2956.75           2239          43.00       180.04
 1119.35        2957.00           2243          42.00       175.68
 1119.38        2957.25           2246          45.00       188.75
 1119.41        2957.50           2250          46.00       193.11
 1119.44        2957.75           2254          38.00       158.24
 1119.48        2958.00           2257          43.00       180.04
 1119.51        2958.25           2261          41.00       171.32
 1119.54        2958.50           2264          38.00       158.24
 1119.57        2958.75           2268          45.00       188.75
 1119.60        2959.00           2271          48.00       201.83
 1119.63        2959.25           2275          43.00       180.04
 1119.66        2959.50           2278          47.00       197.47
 1119.69        2959.75           2282          47.00       197.47
 1119.72        2960.00           2285          46.00       193.11
 1119.75        2960.25           2289          42.00       175.68
 1119.78        2960.50           2293          46.00       193.11
 1119.81        2960.75           2296          48.00       201.83
 1119.84        2961.00           2300          63.00       267.22
 1119.87        2961.25           2303         125.00       537.50
 1119.90        2961.50           2307         398.00      1727.65
 1119.93        2961.75           2310        1413.00      6153.42
 1119.96        2962.00           2314        1479.00      6441.25
 1120.00        2962.25           2317        1916.00      8347.18
 1120.03        2962.50           2321        2468.00     10755.02
 1120.06        2962.75           2324        2909.00     12678.96
 1120.09        2963.00           2328        3653.00     15925.36
 1120.12        2963.25           2331        4115.00     17941.63
 1120.15        2963.50           2335        4757.00     20743.92
 1120.18        2963.75           2339        5383.00     23476.89
 1120.21        2964.00           2342        5832.00     25437.42
 1120.24        2964.25           2346        6513.00     28411.48
 1120.27        2964.50           2349        7024.00     30643.51
 1120.30        2964.75           2353        7588.00     33107.43
 1120.33        2965.00           2356        7925.00     34579.86
 1120.36        2965.25           2360       14472.00     63214.63
 1120.39        2965.50           2363       10289.00     44912.92
 1120.42        2965.75           2367       10967.00     47877.79
 1120.45        2966.00           2370       11080.00     48372.00
 1120.48        2966.25           2374       11261.00     49163.63
 1120.52        2966.50           2378       11546.00     50410.22
 1120.55        2966.75           2381       11348.00     49544.16
 1120.58        2967.00           2385       11051.00     48245.16
 1120.61        2967.25           2388       11085.00     48393.86
 1120.64        2967.50           2392       11075.00     48350.12
 1120.67        2967.75           2395       10989.00     47974.01
 1120.70        2968.00           2399       10959.00     47842.80
 1120.73        2968.25           2402       10573.00     46154.76
 1120.76        2968.50           2406        9803.00     42788.01
 1120.79        2968.75           2409        9333.00     40733.36
 1120.82        2969.00           2413        8586.00     37468.36
 1120.85        2969.25           2417       14272.00     62339.06
 1120.88        2969.50           2420        8634.00     37678.14
 1120.91        2969.75           2424        7874.00     34357.02
 1120.94        2970.00           2427        7174.00     31298.77
 1120.97        2970.25           2431        6352.00     27708.31
 1121.00        2970.50           2434        5726.00     24974.55
 1121.04        2970.75           2438        4852.00     21158.64
 1121.07        2971.00           2441        4299.00     18744.73
 1121.10        2971.25           2445        3682.00     16051.91
 1121.13        2971.50           2449        2885.00     12574.25
 1121.16        2971.75           2452        2352.00     10248.99
 1121.19        2972.00           2456        1699.00      7400.73
 1121.22        2972.25           2459        1199.00      5220.19
 1121.25        2972.50           2463         624.00      2712.98
 1121.28        2972.75           2466         326.00      1413.76
 1121.31        2973.00           2470         119.00       511.34
 1121.34        2973.25           2473          63.00       267.22
 1121.37        2973.50           2477          57.00       241.07
 1121.40        2973.75           2481          50.00       210.55
 1121.43        2974.00           2484          52.00       219.27
 1121.46        2974.25           2488          42.00       175.68
 1121.49        2974.50           2491          52.00       219.27
 1121.52        2974.75           2495          50.00       210.55
 1121.56        2975.00           2498          47.00       197.47
 1121.59        2975.25           2502          42.00       175.68
 1121.62        2975.50           2505          51.00       214.91
 1121.65        2975.75           2509          44.00       184.40
 1121.68        2976.00           2512          47.00       197.47
 1121.71        2976.25           2516          41.00       171.32
 1121.74        2976.50           2520          46.00       193.11
 1121.77        2976.75           2523          42.00       175.68
 1121.80        2977.00           2527          41.00       171.32
 1121.83        2977.25           2530          38.00       158.24
 1121.86        2977.50           2534          41.00       171.32
 1121.89        2977.75           2537          34.00       140.80
 1121.92        2978.00           2541          37.00       153.88
 1121.95        2978.25           2544          34.00       140.80
 1121.98        2978.50           2548          37.00       153.88
 1122.01        2978.75           2552          36.00       149.52
 1122.04        2979.00           2555          42.00       175.68
 1122.08        2979.25           2559          39.00       162.60
 1122.11        2979.50           2562          42.00       175.68
 1122.14        2979.75           2566          34.00       140.80
 1122.17        2980.00           2569          37.00       153.88
 1122.20        2980.25           2573          35.00       145.16
 1122.23        2980.50           2577          38.00       158.24
 1122.26        2980.75           2580          42.00       175.68
 1122.29        2981.00           2584          46.00       193.11
 1122.32        2981.25           2587          38.00       158.24
 1122.35        2981.50           2591          39.00       162.60
 1122.38        2981.75           2594          38.00       158.24
 1122.41        2982.00           2598          39.00       162.60
 1122.44        2982.25           2601          35.00       145.16
 1122.47        2982.50           2605          32.00       132.08
 1122.50        2982.75           2609          35.00       145.16
 1122.53        2983.00           2612          36.00       149.52
 1122.56        2983.25           2616          44.00       184.40
 1122.60        2983.50           2619          36.00       149.52
 1122.63        2983.75           2623          35.00       145.16
 1122.66        2984.00           2626          36.00       149.52
HS scan finished at 18:42:53
end
