************************************************************
  HS Scan of (1) Internal mercury lamp
************************************************************
Integration time is 0.2294 seconds per sample
dh111018Reading 51.44 .94 3.29pr1000
************************************************************
Dead Time -------------------------  3.4E-08 
Number of Cycles Used -------------  4 
Starting Wavelength (Angstroms) ---  2950 
Final Wavelength (Angstoms) -------  2984 
Wavelength Increment (Angstroms) --  .25 
Filter Wheel #1 Position ---------- (1) Ground quartz diffuser (ND=2.32)
Filter Wheel #2 Position ---------- (1) Neutral Density 0.494



************************************************************
HS scan start time = 03:35:33
Dark Count =  1.6 


Time (GMT)  Wavelength (Ang)  Step Number  Raw Counts  Counts/Second

  216.44        2950.00           2144          55.00       232.78
  216.64        2950.25           2147          56.00       237.14
  216.67        2950.50           2151          58.00       245.86
  216.70        2950.75           2155          54.00       228.42
  216.73        2951.00           2158          62.00       263.30
  216.76        2951.25           2162          79.00       337.41
  216.79        2951.50           2165          62.00       263.30
  216.82        2951.75           2169          60.00       254.58
  216.85        2952.00           2172          61.00       258.94
  216.88        2952.25           2176          62.00       263.30
  216.91        2952.50           2179          60.00       254.58
  216.94        2952.75           2183          62.00       263.30
  216.97        2953.00           2186          56.00       237.14
  217.01        2953.25           2190          58.00       245.86
  217.04        2953.50           2193          60.00       254.58
  217.07        2953.75           2197          59.00       250.22
  217.10        2954.00           2200          70.00       298.17
  217.13        2954.25           2204          59.00       250.22
  217.16        2954.50           2208          62.00       263.30
  217.19        2954.75           2211          61.00       258.94
  217.22        2955.00           2215          64.00       272.02
  217.25        2955.25           2218          59.00       250.22
  217.28        2955.50           2222          64.00       272.02
  217.31        2955.75           2225          67.00       285.09
  217.34        2956.00           2229          58.00       245.86
  217.37        2956.25           2232          64.00       272.02
  217.40        2956.50           2236          67.00       285.09
  217.43        2956.75           2239          71.00       302.53
  217.46        2957.00           2243          69.00       293.81
  217.49        2957.25           2246          64.00       272.02
  217.53        2957.50           2250          63.00       267.66
  217.56        2957.75           2254          70.00       298.17
  217.59        2958.00           2257          65.00       276.38
  217.62        2958.25           2261          63.00       267.66
  217.65        2958.50           2264          77.00       328.69
  217.68        2958.75           2268          75.00       319.97
  217.71        2959.00           2271          73.00       311.25
  217.74        2959.25           2275          77.00       328.69
  217.77        2959.50           2278          67.00       285.09
  217.80        2959.75           2282          73.00       311.25
  217.83        2960.00           2285          80.00       341.77
  217.87        2960.25           2289          75.00       319.97
  217.90        2960.50           2293          76.00       324.33
  217.93        2960.75           2296          80.00       341.77
  217.96        2961.00           2300          99.00       424.59
  217.99        2961.25           2303         138.00       594.61
  218.02        2961.50           2307         457.00      1985.31
  218.05        2961.75           2310         976.00      4248.22
  218.08        2962.00           2314        2012.00      8766.34
  218.11        2962.25           2317        2792.00     12168.94
  218.14        2962.50           2321        3797.00     16554.22
  218.17        2962.75           2324        4786.00     20870.95
  218.21        2963.00           2328        5874.00     25621.26
  218.24        2963.25           2331        6716.00     29298.57
  218.27        2963.50           2335        7901.00     34475.44
  218.30        2963.75           2339        9162.00     39986.33
  218.33        2964.00           2342       10011.00     43697.83
  218.36        2964.25           2346       11183.00     48822.92
  218.39        2964.50           2349       11960.00     52221.68
  218.42        2964.75           2353       13000.00     56772.08
  218.45        2965.00           2356       13078.00     57113.42
  218.48        2965.25           2360       14225.00     62133.74
  218.51        2965.50           2363       15403.00     67291.53
  218.54        2965.75           2367       16483.00     72021.84
  218.57        2966.00           2370       17267.00     75456.63
  218.60        2966.25           2374       18127.00     79225.34
  218.63        2966.50           2378       18362.00     80255.31
  218.66        2966.75           2381       18537.00     81022.37
  218.69        2967.00           2385       18641.00     81478.25
  218.73        2967.25           2388       18734.00     81885.90
  218.76        2967.50           2392       18486.00     80798.83
  218.79        2967.75           2395       18557.00     81110.04
  218.82        2968.00           2399       17804.00     77809.77
  218.85        2968.25           2402       16784.00     73340.46
  218.88        2968.50           2406       16127.00     70462.43
  218.91        2968.75           2409       15284.00     66770.41
  218.94        2969.00           2413       14109.00     61625.94
  218.97        2969.25           2417       13281.00     58001.81
  219.00        2969.50           2420       12464.00     54426.70
  219.03        2969.75           2424       11455.00     50012.61
  219.06        2970.00           2427       10523.00     45936.56
  219.09        2970.25           2431        9429.00     41153.45
  219.12        2970.50           2434        8643.00     37717.92
  219.15        2970.75           2438        7561.00     32989.90
  219.18        2971.00           2441        6654.00     29027.76
  219.21        2971.25           2445        5441.00     23730.56
  219.24        2971.50           2449        4464.00     19465.36
  219.28        2971.75           2452        3591.00     15655.24
  219.31        2972.00           2456        2706.00     11793.74
  219.34        2972.25           2459        1898.00      8269.11
  219.37        2972.50           2463        1021.00      4444.44
  219.40        2972.75           2466         494.00      2146.63
  219.43        2973.00           2470         176.00       760.26
  219.46        2973.25           2473         126.00       542.29
  219.49        2973.50           2477          86.00       367.92
  219.52        2973.75           2481          92.00       394.08
  219.55        2974.00           2484          87.00       372.28
  219.58        2974.25           2488          80.00       341.77
  219.61        2974.50           2491          81.00       346.12
  219.64        2974.75           2495          78.00       333.05
  219.67        2975.00           2498          69.00       293.81
  219.70        2975.25           2502          70.00       298.17
  219.73        2975.50           2505          67.00       285.09
  219.76        2975.75           2509          78.00       333.05
  219.80        2976.00           2512          81.00       346.12
  219.83        2976.25           2516          67.00       285.09
  219.86        2976.50           2520          72.00       306.89
  219.89        2976.75           2523          64.00       272.02
  219.92        2977.00           2527          68.00       289.45
  219.95        2977.25           2530          62.00       263.30
  219.98        2977.50           2534          75.00       319.97
  220.01        2977.75           2537          68.00       289.45
  220.04        2978.00           2541          63.00       267.66
  220.07        2978.25           2544          63.00       267.66
  220.10        2978.50           2548          69.00       293.81
  220.13        2978.75           2552          58.00       245.86
  220.16        2979.00           2555          66.00       280.74
  220.19        2979.25           2559          63.00       267.66
  220.22        2979.50           2562          61.00       258.94
  220.25        2979.75           2566          53.00       224.06
  220.28        2980.00           2569          56.00       237.14
  220.32        2980.25           2573          65.00       276.38
  220.35        2980.50           2577          51.00       215.35
  220.38        2980.75           2580          62.00       263.30
  220.41        2981.00           2584          59.00       250.22
  220.44        2981.25           2587          56.00       237.14
  220.47        2981.50           2591          52.00       219.71
  220.50        2981.75           2594          65.00       276.38
  220.53        2982.00           2598          62.00       263.30
  220.56        2982.25           2601          58.00       245.86
  220.59        2982.50           2605          57.00       241.50
  220.62        2982.75           2609          62.00       263.30
  220.65        2983.00           2612          59.00       250.22
  220.68        2983.25           2616          60.00       254.58
  220.71        2983.50           2619          59.00       250.22
  220.74        2983.75           2623          57.00       241.50
  220.77        2984.00           2626          56.00       237.14
HS scan finished at 03:41:00
end
