************************************************************
  HS Scan of (1) Internal mercury lamp
************************************************************
Integration time is 0.2294 seconds per sample
dh091018Reading 51.44 .94 3.05pr1000
************************************************************
Dead Time -------------------------  3.4E-08 
Number of Cycles Used -------------  4 
Starting Wavelength (Angstroms) ---  2950 
Final Wavelength (Angstoms) -------  2984 
Wavelength Increment (Angstroms) --  .25 
Filter Wheel #1 Position ---------- (1) Ground quartz diffuser (ND=2.32)
Filter Wheel #2 Position ---------- (1) Neutral Density 0.494



************************************************************
HS scan start time = 03:31:19
Dark Count =  .8 


Time (GMT)  Wavelength (Ang)  Step Number  Raw Counts  Counts/Second

  212.21        2950.00           2144          86.00       371.41
  212.40        2950.25           2147          85.00       367.05
  212.43        2950.50           2151          90.00       388.85
  212.46        2950.75           2155          93.00       401.92
  212.49        2951.00           2158          87.00       375.77
  212.52        2951.25           2162          93.00       401.92
  212.55        2951.50           2165          90.00       388.85
  212.58        2951.75           2169          98.00       423.72
  212.61        2952.00           2172          98.00       423.72
  212.65        2952.25           2176          91.00       393.20
  212.68        2952.50           2179         112.00       484.75
  212.71        2952.75           2183         100.00       432.44
  212.74        2953.00           2186          99.00       428.08
  212.77        2953.25           2190         131.00       567.58
  212.80        2953.50           2193         100.00       432.44
  212.83        2953.75           2197         103.00       445.52
  212.86        2954.00           2200          89.00       384.49
  212.89        2954.25           2204          96.00       415.00
  212.92        2954.50           2208         100.00       432.44
  212.95        2954.75           2211         112.00       484.75
  212.98        2955.00           2215         113.00       489.11
  213.01        2955.25           2218          98.00       423.72
  213.04        2955.50           2222          91.00       393.20
  213.07        2955.75           2225         109.00       471.67
  213.10        2956.00           2229         103.00       445.52
  213.13        2956.25           2232         103.00       445.52
  213.17        2956.50           2236         107.00       462.95
  213.20        2956.75           2239         103.00       445.52
  213.23        2957.00           2243         111.00       480.39
  213.26        2957.25           2246         124.00       537.06
  213.29        2957.50           2250         106.00       458.59
  213.32        2957.75           2254         103.00       445.52
  213.35        2958.00           2257         127.00       550.14
  213.38        2958.25           2261         120.00       519.63
  213.41        2958.50           2264         125.00       541.42
  213.44        2958.75           2268         139.00       602.45
  213.47        2959.00           2271         123.00       532.70
  213.50        2959.25           2275         120.00       519.63
  213.53        2959.50           2278         118.00       510.91
  213.56        2959.75           2282         111.00       480.39
  213.59        2960.00           2285         143.00       619.89
  213.62        2960.25           2289         135.00       585.02
  213.65        2960.50           2293         148.00       641.69
  213.69        2960.75           2296         134.00       580.66
  213.72        2961.00           2300         191.00       829.14
  213.75        2961.25           2303         409.00      1779.53
  213.78        2961.50           2307        1432.00      6240.21
  213.81        2961.75           2310        2624.00     11439.50
  213.84        2962.00           2314        4443.00     19377.19
  213.87        2962.25           2317        5768.00     25161.89
  213.90        2962.50           2321        7788.00     33985.20
  213.93        2962.75           2324        9434.00     41178.80
  213.96        2963.00           2328       11561.00     50479.77
  213.99        2963.25           2331       13186.00     57589.55
  214.02        2963.50           2335       15331.00     66979.74
  214.05        2963.75           2339       17146.00     74929.97
  214.08        2964.00           2342       18900.00     82617.10
  214.11        2964.25           2346       21212.00     92755.88
  214.14        2964.50           2349       22705.00     99306.84
  214.17        2964.75           2353       24760.00    108328.50
  214.20        2965.00           2356       26122.00    114310.90
  214.24        2965.25           2360       28358.00    124137.50
  214.27        2965.50           2363       29599.00    129594.20
  214.30        2965.75           2367       31985.00    140091.10
  214.33        2966.00           2370       32930.00    144250.70
  214.36        2966.25           2374       34532.00    151304.70
  214.40        2966.50           2378       35406.00    155154.60
  214.43        2966.75           2381       35338.00    154855.00
  214.46        2967.00           2385       35390.00    155084.10
  214.49        2967.25           2388       35196.00    154229.50
  214.52        2967.50           2392       35076.00    153700.90
  214.55        2967.75           2395       34712.00    152097.50
  214.58        2968.00           2399       33352.00    146108.50
  214.61        2968.25           2402       31957.00    139967.90
  214.64        2968.50           2406       30110.00    131841.60
  214.67        2968.75           2409       28512.00    124814.50
  214.70        2969.00           2413       26410.00    115576.20
  214.73        2969.25           2417       24403.00    106760.90
  214.76        2969.50           2420       22836.00     99881.78
  214.79        2969.75           2424       20814.00     91010.03
  214.82        2970.00           2427       19136.00     83651.71
  214.85        2970.25           2431       17275.00     75495.20
  214.88        2970.50           2434       15655.00     68398.65
  214.92        2970.75           2438       13526.00     59077.58
  214.95        2971.00           2441       11939.00     52133.31
  214.98        2971.25           2445       10034.00     43801.89
  215.01        2971.50           2449        8146.00     35549.48
  215.04        2971.75           2452        6756.00     29476.78
  215.07        2972.00           2456        4769.00     20800.24
  215.10        2972.25           2459        3245.00     14148.91
  215.13        2972.50           2463        1696.00      7391.57
  215.16        2972.75           2466         795.00      3462.48
  215.19        2973.00           2470         269.00      1169.18
  215.22        2973.25           2473         162.00       702.72
  215.25        2973.50           2477         133.00       576.30
  215.28        2973.75           2481         132.00       571.94
  215.31        2974.00           2484         139.00       602.45
  215.34        2974.25           2488         142.00       615.53
  215.37        2974.50           2491         133.00       576.30
  215.40        2974.75           2495         131.00       567.58
  215.44        2975.00           2498         126.00       545.78
  215.47        2975.25           2502         115.00       497.83
  215.50        2975.50           2505         168.00       728.88
  215.53        2975.75           2509          82.00       353.97
  215.56        2976.00           2512          82.00       353.97
  215.59        2976.25           2516          73.00       314.74
  215.62        2976.50           2520          72.00       310.38
  215.65        2976.75           2523         120.00       519.63
  215.68        2977.00           2527          75.00       323.46
  215.71        2977.25           2530          80.00       345.25
  215.74        2977.50           2534          65.00       279.86
  215.77        2977.75           2537         144.00       624.25
  215.80        2978.00           2541          77.00       332.17
  215.83        2978.25           2544          73.00       314.74
  215.86        2978.50           2548          65.00       279.86
  215.89        2978.75           2552          71.00       306.02
  215.92        2979.00           2555         120.00       519.63
  215.96        2979.25           2559          64.00       275.50
  215.99        2979.50           2562          68.00       292.94
  216.02        2979.75           2566          62.00       266.79
  216.05        2980.00           2569          74.00       319.10
  216.08        2980.25           2573          97.00       419.36
  216.11        2980.50           2577          69.00       297.30
  216.14        2980.75           2580          65.00       279.86
  216.17        2981.00           2584          58.00       249.35
  216.20        2981.25           2587          61.00       262.43
  216.23        2981.50           2591          89.00       384.49
  216.26        2981.75           2594          71.00       306.02
  216.29        2982.00           2598          63.00       271.14
  216.32        2982.25           2601          56.00       240.63
  216.35        2982.50           2605          66.00       284.22
  216.38        2982.75           2609          56.00       240.63
  216.41        2983.00           2612          88.00       380.13
  216.44        2983.25           2616          59.00       253.71
  216.47        2983.50           2619          63.00       271.14
  216.51        2983.75           2623          55.00       236.27
  216.54        2984.00           2626          57.00       244.99
HS scan finished at 03:36:45
end
************************************************************
  HS Scan of (1) Internal mercury lamp
************************************************************
Integration time is 0.2294 seconds per sample
dh091018Reading 51.44 .94 3.6pr1000
************************************************************
Dead Time -------------------------  3.4E-08 
Number of Cycles Used -------------  4 
Starting Wavelength (Angstroms) ---  2950 
Final Wavelength (Angstoms) -------  2984 
Wavelength Increment (Angstroms) --  .25 
Filter Wheel #1 Position ---------- (1) Ground quartz diffuser (ND=2.32)
Filter Wheel #2 Position ---------- (1) Neutral Density 0.494



************************************************************
HS scan start time = 18:07:28
Dark Count =  3.9 


Time (GMT)  Wavelength (Ang)  Step Number  Raw Counts  Counts/Second

 1088.36        2950.00           2144          37.00       144.29
 1088.55        2950.25           2147          37.00       144.29
 1088.58        2950.50           2151          38.00       148.65
 1088.61        2950.75           2155          34.00       131.21
 1088.64        2951.00           2158          35.00       135.57
 1088.67        2951.25           2162          36.00       139.93
 1088.70        2951.50           2165          31.00       118.13
 1088.73        2951.75           2169          34.00       131.21
 1088.76        2952.00           2172          40.00       157.37
 1088.79        2952.25           2176          39.00       153.01
 1088.83        2952.50           2179          37.00       144.29
 1088.86        2952.75           2183          43.00       170.45
 1088.89        2953.00           2186          38.00       148.65
 1088.92        2953.25           2190          37.00       144.29
 1088.95        2953.50           2193          41.00       161.73
 1088.98        2953.75           2197          43.00       170.45
 1089.01        2954.00           2200          40.00       157.37
 1089.04        2954.25           2204          38.00       148.65
 1089.07        2954.50           2208          37.00       144.29
 1089.10        2954.75           2211          37.00       144.29
 1089.13        2955.00           2215          34.00       131.21
 1089.16        2955.25           2218          39.00       153.01
 1089.19        2955.50           2222          41.00       161.73
 1089.22        2955.75           2225          41.00       161.73
 1089.25        2956.00           2229          41.00       161.73
 1089.28        2956.25           2232          45.00       179.16
 1089.31        2956.50           2236          38.00       148.65
 1089.35        2956.75           2239          40.00       157.37
 1089.38        2957.00           2243          44.00       174.80
 1089.41        2957.25           2246          34.00       131.21
 1089.44        2957.50           2250          45.00       179.16
 1089.47        2957.75           2254          40.00       157.37
 1089.50        2958.00           2257          43.00       170.45
 1089.53        2958.25           2261          45.00       179.16
 1089.56        2958.50           2264          43.00       170.45
 1089.59        2958.75           2268          51.00       205.32
 1089.62        2959.00           2271          44.00       174.80
 1089.65        2959.25           2275          47.00       187.88
 1089.68        2959.50           2278          43.00       170.45
 1089.71        2959.75           2282          45.00       179.16
 1089.74        2960.00           2285          43.00       170.45
 1089.77        2960.25           2289          45.00       179.16
 1089.80        2960.50           2293          51.00       205.32
 1089.83        2960.75           2296          52.00       209.68
 1089.87        2961.00           2300          64.00       261.99
 1089.90        2961.25           2303         132.00       558.42
 1089.93        2961.50           2307         438.00      1892.45
 1089.96        2961.75           2310         824.00      3575.41
 1089.99        2962.00           2314        1331.00      5786.23
 1090.02        2962.25           2317        1812.00      7883.98
 1090.05        2962.50           2321        2475.00     10775.96
 1090.08        2962.75           2324        2950.00     12848.25
 1090.11        2963.00           2328        3681.00     16037.95
 1090.14        2963.25           2331        4450.00     19394.22
 1090.17        2963.50           2335        5126.00     22345.22
 1090.20        2963.75           2339        5902.00     25733.49
 1090.23        2964.00           2342        6476.00     28240.27
 1090.26        2964.25           2346        7256.00     31647.38
 1090.29        2964.50           2349        7687.00     33530.36
 1090.32        2964.75           2353        8257.00     36020.99
 1090.35        2965.00           2356        8872.00     38708.71
 1090.39        2965.25           2360        9358.00     40833.02
 1090.42        2965.50           2363        9714.00     42389.30
 1090.45        2965.75           2367       10438.00     45554.81
 1090.48        2966.00           2370       11107.00     48480.46
 1090.51        2966.25           2374       11426.00     49875.70
 1090.54        2966.50           2378       11643.00     50824.89
 1090.57        2966.75           2381       11600.00     50636.80
 1090.60        2967.00           2385       12218.00     53340.33
 1090.63        2967.25           2388       12006.00     52412.85
 1090.66        2967.50           2392       11919.00     52032.24
 1090.69        2967.75           2395       11797.00     51498.55
 1090.72        2968.00           2399       11601.00     50641.17
 1090.75        2968.25           2402       10975.00     47903.15
 1090.78        2968.50           2406       10098.00     44068.16
 1090.81        2968.75           2409        9959.00     43460.42
 1090.84        2969.00           2413        9529.00     41580.54
 1090.87        2969.25           2417        8866.00     38682.49
 1090.91        2969.50           2420        8260.00     36034.10
 1090.94        2969.75           2424        7486.00     32652.18
 1090.97        2970.00           2427        7097.00     30952.79
 1091.00        2970.25           2431        6328.00     27593.88
 1091.03        2970.50           2434        5774.00     25174.55
 1091.06        2970.75           2438        5068.00     22092.01
 1091.09        2971.00           2441        4443.00     19363.66
 1091.12        2971.25           2445        3661.00     15950.67
 1091.15        2971.50           2449        2958.00     12883.15
 1091.18        2971.75           2452        2412.00     10501.13
 1091.21        2972.00           2456        1827.00      7949.40
 1091.24        2972.25           2459        1306.00      5677.21
 1091.27        2972.50           2463         708.00      3069.63
 1091.30        2972.75           2466         355.00      1530.59
 1091.33        2973.00           2470          99.00       414.57
 1091.36        2973.25           2473          62.00       253.27
 1091.39        2973.50           2477          57.00       231.48
 1091.43        2973.75           2481          51.00       205.32
 1091.46        2974.00           2484          56.00       227.12
 1091.49        2974.25           2488          49.00       196.60
 1091.52        2974.50           2491          55.00       222.76
 1091.55        2974.75           2495          47.00       187.88
 1091.58        2975.00           2498          49.00       196.60
 1091.61        2975.25           2502          47.00       187.88
 1091.64        2975.50           2505          46.00       183.52
 1091.67        2975.75           2509          48.00       192.24
 1091.70        2976.00           2512          45.00       179.16
 1091.73        2976.25           2516          38.00       148.65
 1091.76        2976.50           2520          45.00       179.16
 1091.79        2976.75           2523          42.00       166.09
 1091.82        2977.00           2527          41.00       161.73
 1091.85        2977.25           2530          41.00       161.73
 1091.88        2977.50           2534          44.00       174.80
 1091.91        2977.75           2537          43.00       170.45
 1091.95        2978.00           2541          40.00       157.37
 1091.98        2978.25           2544          40.00       157.37
 1092.01        2978.50           2548          40.00       157.37
 1092.04        2978.75           2552          39.00       153.01
 1092.07        2979.00           2555          39.00       153.01
 1092.10        2979.25           2559          42.00       166.09
 1092.13        2979.50           2562          41.00       161.73
 1092.16        2979.75           2566          41.00       161.73
 1092.19        2980.00           2569          47.00       187.88
 1092.22        2980.25           2573          40.00       157.37
 1092.25        2980.50           2577          36.00       139.93
 1092.28        2980.75           2580          37.00       144.29
 1092.31        2981.00           2584          39.00       153.01
 1092.34        2981.25           2587          42.00       166.09
 1092.37        2981.50           2591          35.00       135.57
 1092.40        2981.75           2594          42.00       166.09
 1092.43        2982.00           2598          39.00       153.01
 1092.47        2982.25           2601          36.00       139.93
 1092.50        2982.50           2605          33.00       126.85
 1092.53        2982.75           2609          40.00       157.37
 1092.56        2983.00           2612          34.00       131.21
 1092.59        2983.25           2616          39.00       153.01
 1092.62        2983.50           2619          35.00       135.57
 1092.65        2983.75           2623          32.00       122.49
 1092.68        2984.00           2626          45.00       179.16
HS scan finished at 18:12:54
end
