************************************************************
  HS Scan of (1) Internal mercury lamp
************************************************************
Integration time is 0.2294 seconds per sample
dh081017Reading 51.44 .94 3.03pr1000
************************************************************
Dead Time -------------------------  3.4E-08 
Number of Cycles Used -------------  4 
Starting Wavelength (Angstroms) ---  2950 
Final Wavelength (Angstoms) -------  2984 
Wavelength Increment (Angstroms) --  .25 
Filter Wheel #1 Position ---------- (1) Ground quartz diffuser (ND=2.32)
Filter Wheel #2 Position ---------- (1) Neutral Density 0.494



************************************************************
HS scan start time = 03:29:42
Dark Count =  1.1 


Time (GMT)  Wavelength (Ang)  Step Number  Raw Counts  Counts/Second

  210.60        2950.00           2144          93.00       400.62
  210.79        2950.25           2147          94.00       404.98
  210.82        2950.50           2151          94.00       404.98
  210.85        2950.75           2155         107.00       461.65
  210.88        2951.00           2158          94.00       404.98
  210.91        2951.25           2162         100.00       431.13
  210.95        2951.50           2165         143.00       618.58
  210.98        2951.75           2169         107.00       461.65
  211.01        2952.00           2172         127.00       548.83
  211.04        2952.25           2176         125.00       540.11
  211.07        2952.50           2179         114.00       492.16
  211.10        2952.75           2183         110.00       474.72
  211.13        2953.00           2186         119.00       513.96
  211.16        2953.25           2190         100.00       431.13
  211.19        2953.50           2193          95.00       409.33
  211.22        2953.75           2197          95.00       409.33
  211.25        2954.00           2200          97.00       418.05
  211.28        2954.25           2204         118.00       509.60
  211.31        2954.50           2208         116.00       500.88
  211.34        2954.75           2211          99.00       426.77
  211.37        2955.00           2215         104.00       448.57
  211.40        2955.25           2218         126.00       544.47
  211.43        2955.50           2222         103.00       444.21
  211.47        2955.75           2225         111.00       479.08
  211.50        2956.00           2229         130.00       561.91
  211.53        2956.25           2232         141.00       609.86
  211.56        2956.50           2236         156.00       675.26
  211.59        2956.75           2239         140.00       605.51
  211.62        2957.00           2243         138.00       596.79
  211.65        2957.25           2246         156.00       675.26
  211.68        2957.50           2250         129.00       557.55
  211.71        2957.75           2254         147.00       636.02
  211.74        2958.00           2257         153.00       662.18
  211.77        2958.25           2261         139.00       601.15
  211.80        2958.50           2264         152.00       657.82
  211.83        2958.75           2268         138.00       596.79
  211.86        2959.00           2271         143.00       618.58
  211.89        2959.25           2275         148.00       640.38
  211.92        2959.50           2278         154.00       666.54
  211.95        2959.75           2282         151.00       653.46
  211.98        2960.00           2285         153.00       662.18
  212.02        2960.25           2289         151.00       653.46
  212.05        2960.50           2293         161.00       697.05
  212.08        2960.75           2296         167.00       723.21
  212.11        2961.00           2300         260.00      1128.64
  212.14        2961.25           2303         545.00      2371.16
  212.17        2961.50           2307        1895.00      8258.20
  212.20        2961.75           2310        3453.00     15055.22
  212.23        2962.00           2314        5633.00     24571.09
  212.26        2962.25           2317        7263.00     31690.19
  212.29        2962.50           2321        9450.00     41247.44
  212.32        2962.75           2324       11310.00     49380.58
  212.35        2963.00           2328       13793.00     60244.90
  212.38        2963.25           2331       16039.00     70079.16
  212.41        2963.50           2335       18662.00     81572.50
  212.44        2963.75           2339       21142.00     92447.50
  212.47        2964.00           2342       22745.00     99481.07
  212.50        2964.25           2346       25601.00    112020.90
  212.54        2964.50           2349       27733.00    121388.80
  212.57        2964.75           2353       30467.00    133410.70
  212.60        2965.00           2356       32269.00    141339.80
  212.63        2965.25           2360       34593.00    151572.10
  212.66        2965.50           2363       36362.00    159365.50
  212.69        2965.75           2367       38750.00    169892.70
  212.72        2966.00           2370       40515.00    177678.20
  212.75        2966.25           2374       42697.00    187309.00
  212.78        2966.50           2378       44174.00    193831.60
  212.81        2966.75           2381       44420.00    194918.30
  212.84        2967.00           2385       44448.00    195042.00
  212.87        2967.25           2388       44420.00    194918.30
  212.90        2967.50           2392       44432.00    194971.30
  212.93        2967.75           2395       44469.00    195134.70
  212.96        2968.00           2399       43067.00    188942.70
  212.99        2968.25           2402       41630.00    182598.70
  213.02        2968.50           2406       39101.00    171440.60
  213.06        2968.75           2409       37247.00    163266.00
  213.09        2969.00           2413       34555.00    151404.70
  213.12        2969.25           2417       32080.00    140507.90
  213.15        2969.50           2420       30098.00    131787.50
  213.18        2969.75           2424       27153.00    118839.70
  213.21        2970.00           2427       25314.00    110760.30
  213.24        2970.25           2431       22474.00     98291.76
  213.27        2970.50           2434       20536.00     89789.39
  213.30        2970.75           2438       17861.00     78061.75
  213.33        2971.00           2441       15869.00     69334.57
  213.36        2971.25           2445       13245.00     57846.45
  213.39        2971.50           2449       10802.00     47158.82
  213.42        2971.75           2452        8924.00     38948.24
  213.45        2972.00           2456        6175.00     26937.92
  213.48        2972.25           2459        4282.00     18673.15
  213.51        2972.50           2463        2194.00      9562.39
  213.54        2972.75           2466        1021.00      4446.62
  213.58        2973.00           2470         376.00      1634.35
  213.61        2973.25           2473         224.00       971.70
  213.64        2973.50           2477         195.00       845.27
  213.67        2973.75           2481         176.00       762.44
  213.70        2974.00           2484         177.00       766.80
  213.73        2974.25           2488         172.00       745.01
  213.76        2974.50           2491         179.00       775.52
  213.79        2974.75           2495         175.00       758.08
  213.82        2975.00           2498         180.00       779.88
  213.85        2975.25           2502         158.00       683.97
  213.88        2975.50           2505         150.00       649.10
  213.91        2975.75           2509         167.00       723.21
  213.94        2976.00           2512         154.00       666.54
  213.97        2976.25           2516         167.00       723.21
  214.00        2976.50           2520         154.00       666.54
  214.03        2976.75           2523         135.00       583.71
  214.06        2977.00           2527         149.00       644.74
  214.10        2977.25           2530         144.00       622.94
  214.13        2977.50           2534         140.00       605.51
  214.16        2977.75           2537         165.00       714.49
  214.19        2978.00           2541         144.00       622.94
  214.22        2978.25           2544         128.00       553.19
  214.25        2978.50           2548         137.00       592.43
  214.28        2978.75           2552         130.00       561.91
  214.31        2979.00           2555         131.00       566.27
  214.34        2979.25           2559         133.00       574.99
  214.37        2979.50           2562         165.00       714.49
  214.40        2979.75           2566         127.00       548.83
  214.43        2980.00           2569         129.00       557.55
  214.46        2980.25           2573         141.00       609.86
  214.49        2980.50           2577         153.00       662.18
  214.52        2980.75           2580         111.00       479.08
  214.55        2981.00           2584         119.00       513.96
  214.58        2981.25           2587         135.00       583.71
  214.62        2981.50           2591         119.00       513.96
  214.65        2981.75           2594         112.00       483.44
  214.68        2982.00           2598         138.00       596.79
  214.71        2982.25           2601         118.00       509.60
  214.74        2982.50           2605         155.00       670.90
  214.77        2982.75           2609         130.00       561.91
  214.80        2983.00           2612         128.00       553.19
  214.83        2983.25           2616         145.00       627.30
  214.86        2983.50           2619         122.00       527.04
  214.89        2983.75           2623         132.00       570.63
  214.92        2984.00           2626         115.00       496.52
HS scan finished at 03:35:09
end
************************************************************
  HS Scan of (1) Internal mercury lamp
************************************************************
Integration time is 0.2294 seconds per sample
dh081017Reading 51.44 .94 3.52pr1000
************************************************************
Dead Time -------------------------  3.4E-08 
Number of Cycles Used -------------  4 
Starting Wavelength (Angstroms) ---  2950 
Final Wavelength (Angstoms) -------  2984 
Wavelength Increment (Angstroms) --  .25 
Filter Wheel #1 Position ---------- (1) Ground quartz diffuser (ND=2.32)
Filter Wheel #2 Position ---------- (1) Neutral Density 0.494



************************************************************
HS scan start time = 18:07:27
Dark Count =  3 


Time (GMT)  Wavelength (Ang)  Step Number  Raw Counts  Counts/Second

 1088.35        2950.00           2144         125.00       531.83
 1088.55        2950.25           2147         115.00       488.24
 1088.58        2950.50           2151         110.00       466.44
 1088.61        2950.75           2155         110.00       466.44
 1088.64        2951.00           2158         105.00       444.64
 1088.67        2951.25           2162         109.00       462.08
 1088.70        2951.50           2165         124.00       527.47
 1088.73        2951.75           2169         126.00       536.19
 1088.76        2952.00           2172         110.00       466.44
 1088.79        2952.25           2176         104.00       440.29
 1088.82        2952.50           2179         146.00       623.38
 1088.85        2952.75           2183         106.00       449.00
 1088.89        2953.00           2186         109.00       462.08
 1088.93        2953.25           2190         160.00       684.41
 1088.96        2953.50           2193         100.00       422.85
 1088.99        2953.75           2197         110.00       466.44
 1089.02        2954.00           2200         110.00       466.44
 1089.05        2954.25           2204         107.00       453.36
 1089.08        2954.50           2208         114.00       483.88
 1089.11        2954.75           2211         130.00       553.63
 1089.14        2955.00           2215         111.00       470.80
 1089.17        2955.25           2218         132.00       562.35
 1089.20        2955.50           2222         104.00       440.29
 1089.23        2955.75           2225         109.00       462.08
 1089.26        2956.00           2229         110.00       466.44
 1089.30        2956.25           2232         131.00       557.99
 1089.33        2956.50           2236         110.00       466.44
 1089.36        2956.75           2239         101.00       427.21
 1089.39        2957.00           2243         113.00       479.52
 1089.42        2957.25           2246         104.00       440.29
 1089.45        2957.50           2250         141.00       601.58
 1089.49        2957.75           2254         115.00       488.24
 1089.52        2958.00           2257         126.00       536.19
 1089.55        2958.25           2261         117.00       496.96
 1089.58        2958.50           2264         103.00       435.93
 1089.61        2958.75           2268         120.00       510.03
 1089.64        2959.00           2271         134.00       571.07
 1089.67        2959.25           2275         132.00       562.35
 1089.70        2959.50           2278         150.00       640.82
 1089.73        2959.75           2282         109.00       462.08
 1089.76        2960.00           2285         129.00       549.27
 1089.79        2960.25           2289         136.00       579.78
 1089.82        2960.50           2293         159.00       680.05
 1089.85        2960.75           2296         134.00       571.07
 1089.88        2961.00           2300         151.00       645.18
 1089.91        2961.25           2303         213.00       915.46
 1089.94        2961.50           2307         792.00      3439.81
 1089.98        2961.75           2310        1692.00      7364.53
 1090.01        2962.00           2314        3312.00     14431.67
 1090.04        2962.25           2317        4566.00     19904.49
 1090.07        2962.50           2321        6196.00     27021.33
 1090.10        2962.75           2324        7308.00     31878.48
 1090.13        2963.00           2328        9095.00     39687.35
 1090.16        2963.25           2331       10672.00     46582.00
 1090.19        2963.50           2335       12500.00     54578.08
 1090.22        2963.75           2339       14307.00     62486.58
 1090.25        2964.00           2342       15789.00     68975.87
 1090.28        2964.25           2346       17512.00     76524.04
 1090.31        2964.50           2349       18813.00     82226.08
 1090.34        2964.75           2353       20694.00     90474.05
 1090.37        2965.00           2356       22120.00     96729.99
 1090.40        2965.25           2360       23836.00    104261.70
 1090.43        2965.50           2363       25142.00    109996.50
 1090.46        2965.75           2367       26984.00    118088.70
 1090.50        2966.00           2370       28261.00    123701.40
 1090.53        2966.25           2374       29419.00    128792.90
 1090.56        2966.50           2378       30323.00    132768.90
 1090.59        2966.75           2381       30407.00    133138.40
 1090.62        2967.00           2385       30313.00    132724.90
 1090.65        2967.25           2388       30453.00    133340.70
 1090.68        2967.50           2392       30369.00    132971.20
 1090.71        2967.75           2395       30233.00    132373.00
 1090.74        2968.00           2399       29269.00    128133.30
 1090.77        2968.25           2402       28223.00    123534.40
 1090.80        2968.50           2406       26408.00    115557.80
 1090.83        2968.75           2409       25176.00    110145.80
 1090.86        2969.00           2413       23333.00    102053.60
 1090.89        2969.25           2417       21663.00     94724.81
 1090.92        2969.50           2420       20358.00     89000.38
 1090.95        2969.75           2424       18807.00     82199.77
 1090.98        2970.00           2427       17760.00     77610.81
 1091.02        2970.25           2431       16062.00     70171.58
 1091.05        2970.50           2434       14651.00     63992.61
 1091.08        2970.75           2438       12755.00     55693.86
 1091.11        2971.00           2441       11334.00     49477.24
 1091.14        2971.25           2445        9445.00     41217.27
 1091.17        2971.50           2449        7739.00     33761.49
 1091.20        2971.75           2452        6419.00     27995.25
 1091.23        2972.00           2456        4721.00     20581.09
 1091.26        2972.25           2459        3365.00     14662.93
 1091.29        2972.50           2463        1821.00      7927.16
 1091.32        2972.75           2466         965.00      4194.15
 1091.35        2973.00           2470         304.00      1312.18
 1091.38        2973.25           2473         175.00       749.80
 1091.41        2973.50           2477         148.00       632.10
 1091.44        2973.75           2481         145.00       619.02
 1091.47        2974.00           2484         114.00       483.88
 1091.50        2974.25           2488         109.00       462.08
 1091.54        2974.50           2491         108.00       457.72
 1091.57        2974.75           2495         103.00       435.93
 1091.60        2975.00           2498         118.00       501.32
 1091.63        2975.25           2502         112.00       475.16
 1091.66        2975.50           2505         101.00       427.21
 1091.69        2975.75           2509         118.00       501.32
 1091.72        2976.00           2512          97.00       409.77
 1091.75        2976.25           2516         101.00       427.21
 1091.78        2976.50           2520          98.00       414.13
 1091.81        2976.75           2523         102.00       431.57
 1091.84        2977.00           2527          92.00       387.97
 1091.87        2977.25           2530          90.00       379.26
 1091.90        2977.50           2534          90.00       379.26
 1091.93        2977.75           2537          97.00       409.77
 1091.96        2978.00           2541          83.00       348.74
 1091.99        2978.25           2544          97.00       409.77
 1092.02        2978.50           2548         103.00       435.93
 1092.05        2978.75           2552          89.00       374.90
 1092.09        2979.00           2555          83.00       348.74
 1092.12        2979.25           2559          85.00       357.46
 1092.15        2979.50           2562         114.00       483.88
 1092.18        2979.75           2566          80.00       335.66
 1092.21        2980.00           2569          87.00       366.18
 1092.24        2980.25           2573          76.00       318.22
 1092.27        2980.50           2577          79.00       331.30
 1092.30        2980.75           2580          88.00       370.54
 1092.33        2981.00           2584          83.00       348.74
 1092.36        2981.25           2587          84.00       353.10
 1092.39        2981.50           2591          81.00       340.02
 1092.42        2981.75           2594          85.00       357.46
 1092.45        2982.00           2598          82.00       344.38
 1092.48        2982.25           2601          79.00       331.30
 1092.51        2982.50           2605          72.00       300.79
 1092.54        2982.75           2609          87.00       366.18
 1092.58        2983.00           2612          74.00       309.51
 1092.61        2983.25           2616          78.00       326.94
 1092.64        2983.50           2619          75.00       313.87
 1092.67        2983.75           2623          70.00       292.07
 1092.70        2984.00           2626          76.00       318.22
HS scan finished at 18:12:55
end
