************************************************************
  HS Scan of (1) Internal mercury lamp
************************************************************
Integration time is 0.2294 seconds per sample
dh141018Reading 51.44 .94 3.31pr1000
************************************************************
Dead Time -------------------------  3.4E-08 
Number of Cycles Used -------------  4 
Starting Wavelength (Angstroms) ---  2950 
Final Wavelength (Angstoms) -------  2984 
Wavelength Increment (Angstroms) --  .25 
Filter Wheel #1 Position ---------- (1) Ground quartz diffuser (ND=2.32)
Filter Wheel #2 Position ---------- (1) Neutral Density 0.494



************************************************************
HS scan start time = 03:41:39
Dark Count =  1.5 


Time (GMT)  Wavelength (Ang)  Step Number  Raw Counts  Counts/Second

  222.55        2950.00           2144        1221.00      5317.00
  222.75        2950.25           2147        1220.00      5312.64
  222.78        2950.50           2151        1195.00      5203.62
  222.81        2950.75           2155        1207.00      5255.95
  222.84        2951.00           2158        1205.00      5247.23
  222.87        2951.25           2162        1216.00      5295.20
  222.90        2951.50           2165        1219.00      5308.28
  222.93        2951.75           2169        1209.00      5264.67
  222.96        2952.00           2172        1272.00      5539.40
  222.99        2952.25           2176        1244.00      5417.30
  223.02        2952.50           2179        1270.00      5530.68
  223.05        2952.75           2183        1278.00      5565.57
  223.08        2953.00           2186        1228.00      5347.53
  223.11        2953.25           2190        1223.00      5325.72
  223.15        2953.50           2193        1246.00      5426.02
  223.18        2953.75           2197        1245.00      5421.66
  223.21        2954.00           2200        1286.00      5600.46
  223.24        2954.25           2204        1289.00      5613.54
  223.27        2954.50           2208        1280.00      5574.29
  223.30        2954.75           2211        1295.00      5639.70
  223.33        2955.00           2215        1322.00      5757.45
  223.36        2955.25           2218        1308.00      5696.40
  223.39        2955.50           2222        1297.00      5648.43
  223.42        2955.75           2225        1299.00      5657.15
  223.45        2956.00           2229        1320.00      5748.73
  223.48        2956.25           2232        1348.00      5870.83
  223.51        2956.50           2236        1308.00      5696.40
  223.54        2956.75           2239        1335.00      5814.14
  223.57        2957.00           2243        1360.00      5923.16
  223.60        2957.25           2246        1367.00      5953.69
  223.63        2957.50           2250        1391.00      6058.35
  223.66        2957.75           2254        1378.00      6001.66
  223.70        2958.00           2257        1392.00      6062.71
  223.73        2958.25           2261        1430.00      6228.43
  223.76        2958.50           2264        1444.00      6289.49
  223.79        2958.75           2268        1449.00      6311.29
  223.82        2959.00           2271        1471.00      6407.24
  223.85        2959.25           2275        1463.00      6372.35
  223.88        2959.50           2278        1458.00      6350.54
  223.91        2959.75           2282        1520.00      6620.93
  223.94        2960.00           2285        1556.00      6777.94
  223.97        2960.25           2289        1599.00      6965.47
  224.00        2960.50           2293        1620.00      7057.05
  224.03        2960.75           2296        1681.00      7323.10
  224.06        2961.00           2300        1773.00      7724.35
  224.09        2961.25           2303        2048.00      8923.81
  224.12        2961.50           2307        4678.00     20399.93
  224.15        2961.75           2310       12330.00     53840.84
  224.18        2962.00           2314       29344.00    128469.70
  224.22        2962.25           2317       45286.00    198742.50
  224.25        2962.50           2321       66650.00    293447.20
  224.28        2962.75           2324       83386.00    368067.00
  224.31        2963.00           2328      107600.00    476707.40
  224.34        2963.25           2331      125434.00    557243.50
  224.37        2963.50           2335      148422.00    661715.70
  224.40        2963.75           2339      170392.00    762267.90
  224.43        2964.00           2342      186976.00    838633.60
  224.46        2964.25           2346      208314.00    937486.10
  224.49        2964.50           2349      224843.00   1014527.00
  224.52        2964.75           2353      246210.00   1114730.00
  224.55        2965.00           2356      261029.00   1184637.00
  224.58        2965.25           2360      280316.00   1276132.00
  224.61        2965.50           2363      295115.00   1346733.00
  224.64        2965.75           2367      316465.00   1449203.00
  224.67        2966.00           2370      332861.00   1528396.00
  224.70        2966.25           2374      350489.00   1614031.00
  224.74        2966.50           2378      359796.00   1659452.00
  224.77        2966.75           2381      363660.00   1678351.00
  224.80        2967.00           2385      364914.00   1684490.00
  224.83        2967.25           2388      364973.00   1684779.00
  224.86        2967.50           2392      364863.00   1684241.00
  224.90        2967.75           2395      363380.00   1676981.00
  224.93        2968.00           2399      357372.00   1647608.00
  224.96        2968.25           2402      346071.00   1592521.00
  225.00        2968.50           2406      327645.00   1503155.00
  225.03        2968.75           2409      313625.00   1435530.00
  225.06        2969.00           2413      292527.00   1334362.00
  225.09        2969.25           2417      271860.00   1235946.00
  225.12        2969.50           2420      256621.00   1163807.00
  225.15        2969.75           2424      235335.00   1063644.00
  225.18        2970.00           2427      219308.00    988682.80
  225.21        2970.25           2431      198018.00    889703.60
  225.24        2970.50           2434      181622.00    813935.60
  225.27        2970.75           2438      160186.00    715470.50
  225.30        2971.00           2441      143347.00    638587.00
  225.33        2971.25           2445      120561.00    535193.40
  225.36        2971.50           2449       99263.00    439210.60
  225.39        2971.75           2452       83543.00    368768.80
  225.42        2972.00           2456       62758.00    276148.60
  225.47        2972.25           2459       47333.00    207790.20
  225.50        2972.50           2463       25511.00    111623.80
  225.53        2972.75           2466       12581.00     54939.06
  225.56        2973.00           2470        4397.00     19173.35
  225.59        2973.25           2473        2444.00     10651.20
  225.62        2973.50           2477        1837.00      8003.49
  225.65        2973.75           2481        1725.00      7515.00
  225.68        2974.00           2484        1684.00      7336.18
  225.71        2974.25           2488        1635.00      7122.47
  225.74        2974.50           2491        1606.00      6996.00
  225.78        2974.75           2495        1587.00      6913.13
  225.81        2975.00           2498        1551.00      6756.13
  225.84        2975.25           2502        1514.00      6594.77
  225.87        2975.50           2505        1472.00      6411.60
  225.90        2975.75           2509        1460.00      6359.27
  225.93        2976.00           2512        1489.00      6485.74
  225.96        2976.25           2516        1418.00      6176.10
  225.99        2976.50           2520        1433.00      6241.52
  226.02        2976.75           2523        1412.00      6149.93
  226.05        2977.00           2527        1367.00      5953.69
  226.08        2977.25           2530        1340.00      5835.95
  226.11        2977.50           2534        1374.00      5984.22
  226.14        2977.75           2537        1353.00      5892.64
  226.17        2978.00           2541        1355.00      5901.36
  226.20        2978.25           2544        1300.00      5661.51
  226.23        2978.50           2548        1272.00      5539.40
  226.27        2978.75           2552        1321.00      5753.09
  226.30        2979.00           2555        1270.00      5530.68
  226.33        2979.25           2559        1271.00      5535.04
  226.36        2979.50           2562        1307.00      5692.03
  226.39        2979.75           2566        1229.00      5351.89
  226.42        2980.00           2569        1238.00      5391.14
  226.45        2980.25           2573        1240.00      5399.86
  226.48        2980.50           2577        1230.00      5356.25
  226.51        2980.75           2580        1202.00      5234.15
  226.54        2981.00           2584        1247.00      5430.38
  226.57        2981.25           2587        1214.00      5286.48
  226.60        2981.50           2591        1236.00      5382.42
  226.63        2981.75           2594        1217.00      5299.56
  226.66        2982.00           2598        1172.00      5103.33
  226.69        2982.25           2601        1160.00      5051.00
  226.72        2982.50           2605        1181.00      5142.57
  226.75        2982.75           2609        1171.00      5098.97
  226.78        2983.00           2612        1200.00      5225.43
  226.82        2983.25           2616        1147.00      4994.31
  226.85        2983.50           2619        1163.00      5064.08
  226.88        2983.75           2623        1154.00      5024.83
  226.91        2984.00           2626        1168.00      5085.88
HS scan finished at 03:47:08
end
************************************************************
  HS Scan of (1) Internal mercury lamp
************************************************************
Integration time is 0.2294 seconds per sample
dh141018Reading 51.44 .94 3.07pr1000
************************************************************
Dead Time -------------------------  3.4E-08 
Number of Cycles Used -------------  4 
Starting Wavelength (Angstroms) ---  2950 
Final Wavelength (Angstoms) -------  2984 
Wavelength Increment (Angstroms) --  .25 
Filter Wheel #1 Position ---------- (1) Ground quartz diffuser (ND=2.32)
Filter Wheel #2 Position ---------- (1) Neutral Density 0.494



************************************************************
HS scan start time = 18:07:26
Dark Count =  1 


Time (GMT)  Wavelength (Ang)  Step Number  Raw Counts  Counts/Second

 1088.34        2950.00           2144        1018.00      4433.97
 1088.53        2950.25           2147        1019.00      4438.33
 1088.56        2950.50           2151        1025.00      4464.50
 1088.59        2950.75           2155        1013.00      4412.17
 1088.62        2951.00           2158        1044.00      4547.35
 1088.65        2951.25           2162        1039.00      4525.54
 1088.68        2951.50           2165        1011.00      4403.45
 1088.71        2951.75           2169        1018.00      4433.97
 1088.74        2952.00           2172        1018.00      4433.97
 1088.77        2952.25           2176        1044.00      4547.35
 1088.80        2952.50           2179        1043.00      4542.99
 1088.84        2952.75           2183        1023.00      4455.78
 1088.87        2953.00           2186        1052.00      4582.23
 1088.90        2953.25           2190        1067.00      4647.64
 1088.93        2953.50           2193        1034.00      4503.74
 1088.96        2953.75           2197        1025.00      4464.50
 1088.99        2954.00           2200        1084.00      4721.77
 1089.02        2954.25           2204        1059.00      4612.76
 1089.05        2954.50           2208        1077.00      4691.25
 1089.08        2954.75           2211        1112.00      4843.87
 1089.11        2955.00           2215        1100.00      4791.54
 1089.14        2955.25           2218        1105.00      4813.34
 1089.17        2955.50           2222        1067.00      4647.64
 1089.20        2955.75           2225        1088.00      4739.21
 1089.23        2956.00           2229        1109.00      4830.78
 1089.26        2956.25           2232        1098.00      4782.82
 1089.29        2956.50           2236        1099.00      4787.18
 1089.32        2956.75           2239        1111.00      4839.51
 1089.36        2957.00           2243        1141.00      4970.33
 1089.39        2957.25           2246        1116.00      4861.31
 1089.42        2957.50           2250        1122.00      4887.47
 1089.45        2957.75           2254        1144.00      4983.41
 1089.48        2958.00           2257        1166.00      5079.34
 1089.51        2958.25           2261        1175.00      5118.59
 1089.54        2958.50           2264        1159.00      5048.82
 1089.57        2958.75           2268        1221.00      5319.18
 1089.60        2959.00           2271        1172.00      5105.51
 1089.63        2959.25           2275        1242.00      5410.76
 1089.66        2959.50           2278        1217.00      5301.74
 1089.69        2959.75           2282        1213.00      5284.30
 1089.72        2960.00           2285        1274.00      5550.31
 1089.75        2960.25           2289        1285.00      5598.28
 1089.78        2960.50           2293        1343.00      5851.21
 1089.81        2960.75           2296        1310.00      5707.30
 1089.84        2961.00           2300        1371.00      5973.31
 1089.87        2961.25           2303        1522.00      6631.84
 1089.91        2961.50           2307        3341.00     14566.94
 1089.94        2961.75           2310        9030.00     39411.98
 1089.97        2962.00           2314       19832.00     86702.47
 1090.00        2962.25           2317       29063.00    127236.30
 1090.03        2962.50           2321       42791.00    187724.40
 1090.06        2962.75           2324       54060.00    237565.00
 1090.09        2963.00           2328       70681.00    311387.50
 1090.12        2963.25           2331       83155.00    367036.60
 1090.15        2963.50           2335       98517.00    435862.30
 1090.18        2963.75           2339      112983.00    500971.70
 1090.21        2964.00           2342      124848.00    554592.30
 1090.24        2964.25           2346      141422.00    629825.90
 1090.27        2964.50           2349      153223.00    683631.80
 1090.30        2964.75           2353      170168.00    761241.50
 1090.33        2965.00           2356      182205.00    816625.20
 1090.36        2965.25           2360      197014.00    885054.90
 1090.40        2965.50           2363      208737.00    939455.00
 1090.43        2965.75           2367      222745.00   1004728.00
 1090.46        2966.00           2370      232442.00   1050086.00
 1090.49        2966.25           2374      245434.00   1111081.00
 1090.52        2966.50           2378      257045.00   1165812.00
 1090.55        2966.75           2381      261435.00   1186559.00
 1090.58        2967.00           2385      262761.00   1192832.00
 1090.61        2967.25           2388      262739.00   1192728.00
 1090.64        2967.50           2392      263174.00   1194786.00
 1090.67        2967.75           2395      262663.00   1192368.00
 1090.70        2968.00           2399      260307.00   1181225.00
 1090.73        2968.25           2402      253685.00   1149952.00
 1090.76        2968.50           2406      241564.00   1092885.00
 1090.79        2968.75           2409      231046.00   1043548.00
 1090.82        2969.00           2413      217670.00    981045.90
 1090.85        2969.25           2417      203445.00    914872.40
 1090.88        2969.50           2420      192905.00    866035.60
 1090.92        2969.75           2424      179166.00    802622.40
 1090.95        2970.00           2427      166910.00    746287.30
 1090.98        2970.25           2431      149779.00    667908.50
 1091.01        2970.50           2434      138461.00    616356.60
 1091.04        2970.75           2438      122236.00    542771.10
 1091.07        2971.00           2441      110799.00    491123.30
 1091.10        2971.25           2445       96885.00    428535.10
 1091.13        2971.50           2449       82054.00    362116.30
 1091.16        2971.75           2452       70372.00    310011.60
 1091.19        2972.00           2456       54030.00    237432.10
 1091.22        2972.25           2459       41665.00    182753.70
 1091.25        2972.50           2463       26977.00    118066.70
 1091.28        2972.75           2466       17456.00     76287.41
 1091.31        2973.00           2470        6372.00     27798.71
 1091.34        2973.25           2473        2651.00     11556.42
 1091.37        2973.50           2477        1518.00      6614.39
 1091.40        2973.75           2481        1348.00      5873.01
 1091.43        2974.00           2484        1376.00      5995.12
 1091.47        2974.25           2488        1304.00      5681.13
 1091.50        2974.50           2491        1306.00      5689.85
 1091.53        2974.75           2495        1267.00      5519.78
 1091.56        2975.00           2498        1273.00      5545.95
 1091.59        2975.25           2502        1233.00      5371.51
 1091.62        2975.50           2505        1212.00      5279.94
 1091.65        2975.75           2509        1174.00      5114.23
 1091.68        2976.00           2512        1185.00      5162.20
 1091.71        2976.25           2516        1163.00      5066.26
 1091.74        2976.50           2520        1112.00      4843.87
 1091.77        2976.75           2523        1103.00      4804.62
 1091.80        2977.00           2527        1150.00      5009.57
 1091.83        2977.25           2530        1122.00      4887.47
 1091.86        2977.50           2534        1095.00      4769.74
 1091.89        2977.75           2537        1099.00      4787.18
 1091.92        2978.00           2541        1092.00      4756.65
 1091.95        2978.25           2544        1083.00      4717.41
 1091.99        2978.50           2548        1041.00      4534.26
 1092.02        2978.75           2552        1072.00      4669.44
 1092.05        2979.00           2555        1072.00      4669.44
 1092.08        2979.25           2559        1057.00      4604.03
 1092.11        2979.50           2562        1058.00      4608.39
 1092.14        2979.75           2566        1064.00      4634.56
 1092.18        2980.00           2569        1031.00      4490.66
 1092.21        2980.25           2573        1033.00      4499.38
 1092.24        2980.50           2577        1012.00      4407.81
 1092.27        2980.75           2580        1029.00      4481.94
 1092.30        2981.00           2584         991.00      4316.24
 1092.33        2981.25           2587         995.00      4333.68
 1092.36        2981.50           2591         981.00      4272.64
 1092.39        2981.75           2594         983.00      4281.36
 1092.42        2982.00           2598        1013.00      4412.17
 1092.45        2982.25           2601        1003.00      4368.57
 1092.48        2982.50           2605        1010.00      4399.09
 1092.51        2982.75           2609        1007.00      4386.01
 1092.54        2983.00           2612         985.00      4290.08
 1092.58        2983.25           2616         974.00      4242.11
 1092.61        2983.50           2619         957.00      4167.98
 1092.64        2983.75           2623         966.00      4207.23
 1092.67        2984.00           2626         953.00      4150.54
HS scan finished at 18:12:53
end
