************************************************************
  HS Scan of (1) Internal mercury lamp
************************************************************
Integration time is 0.2294 seconds per sample
dh111017Reading 51.44 .94 3.37pr1000
************************************************************
Dead Time -------------------------  3.4E-08 
Number of Cycles Used -------------  4 
Starting Wavelength (Angstroms) ---  2950 
Final Wavelength (Angstoms) -------  2984 
Wavelength Increment (Angstroms) --  .25 
Filter Wheel #1 Position ---------- (1) Ground quartz diffuser (ND=2.32)
Filter Wheel #2 Position ---------- (1) Neutral Density 0.494



************************************************************
HS scan start time = 03:36:01
Dark Count =  1.9 


Time (GMT)  Wavelength (Ang)  Step Number  Raw Counts  Counts/Second

  216.91        2950.00           2144         110.00       471.24
  217.11        2950.25           2147         122.00       523.55
  217.14        2950.50           2151         103.00       440.72
  217.17        2950.75           2155         104.00       445.08
  217.20        2951.00           2158         103.00       440.72
  217.23        2951.25           2162         146.00       628.17
  217.26        2951.50           2165         119.00       510.47
  217.29        2951.75           2169         124.00       532.27
  217.32        2952.00           2172         148.00       636.89
  217.35        2952.25           2176         139.00       597.66
  217.38        2952.50           2179         119.00       510.47
  217.41        2952.75           2183         139.00       597.66
  217.44        2953.00           2186         115.00       493.03
  217.47        2953.25           2190         111.00       475.60
  217.51        2953.50           2193         119.00       510.47
  217.54        2953.75           2197         118.00       506.11
  217.57        2954.00           2200         132.00       567.14
  217.60        2954.25           2204         128.00       549.71
  217.63        2954.50           2208         160.00       689.21
  217.66        2954.75           2211         130.00       558.42
  217.70        2955.00           2215         133.00       571.50
  217.73        2955.25           2218         140.00       602.02
  217.76        2955.50           2222         140.00       602.02
  217.79        2955.75           2225         121.00       519.19
  217.82        2956.00           2229         139.00       597.66
  217.85        2956.25           2232         140.00       602.02
  217.88        2956.50           2236         123.00       527.91
  217.91        2956.75           2239         138.00       593.30
  217.94        2957.00           2243         149.00       641.25
  217.97        2957.25           2246         163.00       702.28
  218.00        2957.50           2250         136.00       584.58
  218.03        2957.75           2254         136.00       584.58
  218.06        2958.00           2257         135.00       580.22
  218.09        2958.25           2261         136.00       584.58
  218.12        2958.50           2264         153.00       658.69
  218.15        2958.75           2268         140.00       602.02
  218.19        2959.00           2271         157.00       676.13
  218.22        2959.25           2275         160.00       689.21
  218.25        2959.50           2278         163.00       702.28
  218.28        2959.75           2282         155.00       667.41
  218.31        2960.00           2285         154.00       663.05
  218.34        2960.25           2289         150.00       645.61
  218.37        2960.50           2293         183.00       789.47
  218.40        2960.75           2296         169.00       728.44
  218.43        2961.00           2300         185.00       798.19
  218.46        2961.25           2303         335.00      1452.12
  218.49        2961.50           2307        1259.00      5480.97
  218.52        2961.75           2310        2567.00     11186.03
  218.55        2962.00           2314        4720.00     20581.53
  218.58        2962.25           2317        6596.00     28773.12
  218.61        2962.50           2321        8970.00     39145.79
  218.64        2962.75           2324       10713.00     46766.11
  218.67        2963.00           2328       13037.00     56932.69
  218.71        2963.25           2331       14909.00     65127.06
  218.74        2963.50           2335       17434.00     76187.08
  218.77        2963.75           2339       20136.00     88031.61
  218.80        2964.00           2342       21954.00     96006.42
  218.83        2964.25           2346       24350.00    106523.30
  218.86        2964.50           2349       26187.00    114591.60
  218.89        2964.75           2353       28693.00    125605.50
  218.92        2965.00           2356       30603.00    134005.40
  218.95        2965.25           2360       33138.00    145161.50
  218.98        2965.50           2363       34750.00    152260.10
  219.01        2965.75           2367       37062.00    162447.10
  219.04        2966.00           2370       38654.00    169465.80
  219.07        2966.25           2374       40759.00    178751.40
  219.10        2966.50           2378       41729.00    183032.20
  219.13        2966.75           2381       42326.00    185667.50
  219.16        2967.00           2385       42494.00    186409.20
  219.19        2967.25           2388       42380.00    185905.90
  219.23        2967.50           2392       42131.00    184806.70
  219.26        2967.75           2395       41964.00    184069.50
  219.29        2968.00           2399       40931.00    179510.40
  219.32        2968.25           2402       39451.00    172980.80
  219.35        2968.50           2406       37369.00    163800.30
  219.38        2968.75           2409       35817.00    156960.60
  219.41        2969.00           2413       33234.00    145584.10
  219.44        2969.25           2417       30761.00    134700.50
  219.47        2969.50           2420       29039.00    127126.80
  219.50        2969.75           2424       26647.00    116612.70
  219.53        2970.00           2427       24896.00    108920.90
  219.56        2970.25           2431       22534.00     98551.55
  219.59        2970.50           2434       20581.00     89983.25
  219.62        2970.75           2438       17902.00     78237.93
  219.65        2971.00           2441       15990.00     69861.03
  219.68        2971.25           2445       13560.00     59221.57
  219.71        2971.50           2449       10986.00     47960.01
  219.74        2971.75           2452        9401.00     41029.73
  219.78        2972.00           2456        6942.00     30284.44
  219.81        2972.25           2459        5181.00     22594.08
  219.84        2972.50           2463        3169.00     13812.50
  219.87        2972.75           2466        1570.00      6837.25
  219.90        2973.00           2470         427.00      1853.21
  219.93        2973.25           2473         235.00      1016.16
  219.96        2973.50           2477         190.00       819.99
  219.99        2973.75           2481         174.00       750.24
  220.02        2974.00           2484         178.00       767.67
  220.05        2974.25           2488         172.00       741.52
  220.08        2974.50           2491         157.00       676.13
  220.11        2974.75           2495         148.00       636.89
  220.14        2975.00           2498         169.00       728.44
  220.17        2975.25           2502         154.00       663.05
  220.20        2975.50           2505         148.00       636.89
  220.23        2975.75           2509         149.00       641.25
  220.26        2976.00           2512         151.00       649.97
  220.30        2976.25           2516         148.00       636.89
  220.33        2976.50           2520         157.00       676.13
  220.36        2976.75           2523         139.00       597.66
  220.39        2977.00           2527         144.00       619.46
  220.42        2977.25           2530         141.00       606.38
  220.45        2977.50           2534         145.00       623.81
  220.48        2977.75           2537         136.00       584.58
  220.51        2978.00           2541         178.00       767.67
  220.54        2978.25           2544         169.00       728.44
  220.57        2978.50           2548         142.00       610.74
  220.60        2978.75           2552         145.00       623.81
  220.63        2979.00           2555         126.00       540.99
  220.66        2979.25           2559         121.00       519.19
  220.69        2979.50           2562         152.00       654.33
  220.72        2979.75           2566         149.00       641.25
  220.75        2980.00           2569         132.00       567.14
  220.78        2980.25           2573         111.00       475.60
  220.82        2980.50           2577         125.00       536.63
  220.85        2980.75           2580         137.00       588.94
  220.88        2981.00           2584         127.00       545.35
  220.91        2981.25           2587         117.00       501.75
  220.94        2981.50           2591         119.00       510.47
  220.97        2981.75           2594         129.00       554.06
  221.00        2982.00           2598         147.00       632.53
  221.03        2982.25           2601         120.00       514.83
  221.06        2982.50           2605         142.00       610.74
  221.09        2982.75           2609         148.00       636.89
  221.12        2983.00           2612         137.00       588.94
  221.15        2983.25           2616         121.00       519.19
  221.18        2983.50           2619         112.00       479.96
  221.21        2983.75           2623         151.00       649.97
  221.24        2984.00           2626         130.00       558.42
HS scan finished at 03:41:28
end
************************************************************
  HS Scan of (1) Internal mercury lamp
************************************************************
Integration time is 0.2294 seconds per sample
dh111017Reading 51.44 .94 3.37pr1000
************************************************************
Dead Time -------------------------  3.4E-08 
Number of Cycles Used -------------  4 
Starting Wavelength (Angstroms) ---  2950 
Final Wavelength (Angstoms) -------  2984 
Wavelength Increment (Angstroms) --  .25 
Filter Wheel #1 Position ---------- (1) Ground quartz diffuser (ND=2.32)
Filter Wheel #2 Position ---------- (1) Neutral Density 0.494



************************************************************
HS scan start time = 18:07:28
Dark Count =  2 


Time (GMT)  Wavelength (Ang)  Step Number  Raw Counts  Counts/Second

 1088.36        2950.00           2144          76.00       322.58
 1088.55        2950.25           2147          89.00       379.26
 1088.58        2950.50           2151          95.00       405.41
 1088.61        2950.75           2155          83.00       353.10
 1088.64        2951.00           2158          97.00       414.13
 1088.67        2951.25           2162          92.00       392.33
 1088.71        2951.50           2165          87.00       370.54
 1088.74        2951.75           2169          92.00       392.33
 1088.77        2952.00           2172          89.00       379.26
 1088.80        2952.25           2176          93.00       396.69
 1088.83        2952.50           2179          92.00       392.33
 1088.86        2952.75           2183         101.00       431.57
 1088.89        2953.00           2186          90.00       383.61
 1088.92        2953.25           2190          97.00       414.13
 1088.95        2953.50           2193          88.00       374.90
 1088.98        2953.75           2197         112.00       479.52
 1089.01        2954.00           2200         140.00       601.58
 1089.04        2954.25           2204         110.00       470.80
 1089.07        2954.50           2208         103.00       440.29
 1089.10        2954.75           2211         120.00       514.39
 1089.13        2955.00           2215         102.00       435.93
 1089.16        2955.25           2218         119.00       510.03
 1089.19        2955.50           2222         104.00       444.64
 1089.23        2955.75           2225          97.00       414.13
 1089.26        2956.00           2229         106.00       453.36
 1089.29        2956.25           2232         140.00       601.58
 1089.32        2956.50           2236         113.00       483.88
 1089.35        2956.75           2239         124.00       531.83
 1089.38        2957.00           2243         103.00       440.29
 1089.41        2957.25           2246         119.00       510.03
 1089.44        2957.50           2250         141.00       605.94
 1089.47        2957.75           2254         112.00       479.52
 1089.50        2958.00           2257         151.00       649.53
 1089.53        2958.25           2261         147.00       632.10
 1089.56        2958.50           2264         142.00       610.30
 1089.59        2958.75           2268         111.00       475.16
 1089.62        2959.00           2271         134.00       575.43
 1089.65        2959.25           2275         150.00       645.18
 1089.68        2959.50           2278         139.00       597.22
 1089.71        2959.75           2282         126.00       540.55
 1089.74        2960.00           2285         143.00       614.66
 1089.78        2960.25           2289         132.00       566.71
 1089.81        2960.50           2293         142.00       610.30
 1089.84        2960.75           2296         162.00       697.49
 1089.87        2961.00           2300         157.00       675.69
 1089.90        2961.25           2303         251.00      1085.48
 1089.93        2961.50           2307         959.00      4172.34
 1089.96        2961.75           2310        2004.00      8729.71
 1089.99        2962.00           2314        3974.00     17324.94
 1090.02        2962.25           2317        5427.00     23667.69
 1090.05        2962.50           2321        7381.00     32201.76
 1090.08        2962.75           2324        9014.00     39337.67
 1090.11        2963.00           2328       11438.00     49936.51
 1090.14        2963.25           2331       13261.00     57912.53
 1090.17        2963.50           2335       15623.00     68253.24
 1090.20        2963.75           2339       17857.00     78040.28
 1090.23        2964.00           2342       19639.00     85851.81
 1090.26        2964.25           2346       21962.00     96041.09
 1090.30        2964.50           2349       23443.00    102540.80
 1090.33        2964.75           2353       25612.00    112065.20
 1090.36        2965.00           2356       27130.00    118734.70
 1090.39        2965.25           2360       29000.00    126954.80
 1090.42        2965.50           2363       30689.00    134383.30
 1090.45        2965.75           2367       33124.00    145099.40
 1090.48        2966.00           2370       34502.00    151167.30
 1090.51        2966.25           2374       35916.00    157396.30
 1090.54        2966.50           2378       36931.00    161869.20
 1090.57        2966.75           2381       37010.00    162217.40
 1090.60        2967.00           2385       37371.00    163808.70
 1090.63        2967.25           2388       37238.00    163222.40
 1090.66        2967.50           2392       37271.00    163367.90
 1090.69        2967.75           2395       36723.00    160952.50
 1090.72        2968.00           2399       35863.00    157162.80
 1090.75        2968.25           2402       34296.00    150260.10
 1090.79        2968.50           2406       32346.00    141674.70
 1090.82        2968.75           2409       30957.00    135562.40
 1090.85        2969.00           2413       28645.00    125394.00
 1090.88        2969.25           2417       26606.00    116432.10
 1090.91        2969.50           2420       24996.00    109359.70
 1090.94        2969.75           2424       22910.00    100201.30
 1090.97        2970.00           2427       21349.00     93351.62
 1091.00        2970.25           2431       19039.00     83221.20
 1091.03        2970.50           2434       17457.00     76287.41
 1091.06        2970.75           2438       14890.00     65043.42
 1091.09        2971.00           2441       13139.00     57378.62
 1091.12        2971.25           2445       10937.00     47745.28
 1091.15        2971.50           2449        8923.00     38939.93
 1091.18        2971.75           2452        7478.00     32625.53
 1091.21        2972.00           2456        5419.00     23632.76
 1091.24        2972.25           2459        3753.00     16360.45
 1091.27        2972.50           2463        1895.00      8254.28
 1091.30        2972.75           2466         906.00      3941.24
 1091.34        2973.00           2470         299.00      1294.74
 1091.37        2973.25           2473         199.00       858.79
 1091.40        2973.50           2477         157.00       675.69
 1091.43        2973.75           2481         147.00       632.10
 1091.46        2974.00           2484         142.00       610.30
 1091.49        2974.25           2488         143.00       614.66
 1091.52        2974.50           2491         146.00       627.74
 1091.55        2974.75           2495         141.00       605.94
 1091.58        2975.00           2498         131.00       562.35
 1091.61        2975.25           2502         137.00       588.50
 1091.64        2975.50           2505         159.00       684.41
 1091.67        2975.75           2509         124.00       531.83
 1091.70        2976.00           2512         118.00       505.68
 1091.73        2976.25           2516         118.00       505.68
 1091.76        2976.50           2520         156.00       671.33
 1091.79        2976.75           2523         147.00       632.10
 1091.82        2977.00           2527         111.00       475.16
 1091.86        2977.25           2530         118.00       505.68
 1091.89        2977.50           2534         109.00       466.44
 1091.92        2977.75           2537         130.00       557.99
 1091.95        2978.00           2541         115.00       492.60
 1091.98        2978.25           2544         131.00       562.35
 1092.01        2978.50           2548         120.00       514.39
 1092.04        2978.75           2552         108.00       462.08
 1092.07        2979.00           2555         141.00       605.94
 1092.10        2979.25           2559         110.00       470.80
 1092.13        2979.50           2562          91.00       387.97
 1092.16        2979.75           2566         101.00       431.57
 1092.19        2980.00           2569         121.00       518.75
 1092.22        2980.25           2573         101.00       431.57
 1092.25        2980.50           2577         101.00       431.57
 1092.28        2980.75           2580         100.00       427.21
 1092.31        2981.00           2584          96.00       409.77
 1092.34        2981.25           2587          98.00       418.49
 1092.38        2981.50           2591          96.00       409.77
 1092.41        2981.75           2594         104.00       444.64
 1092.44        2982.00           2598          98.00       418.49
 1092.47        2982.25           2601          92.00       392.33
 1092.50        2982.50           2605          94.00       401.05
 1092.53        2982.75           2609         100.00       427.21
 1092.56        2983.00           2612          98.00       418.49
 1092.59        2983.25           2616          97.00       414.13
 1092.62        2983.50           2619          90.00       383.61
 1092.65        2983.75           2623         111.00       475.16
 1092.68        2984.00           2626          91.00       387.97
HS scan finished at 18:12:54
end
