************************************************************
  HS Scan of (1) Internal mercury lamp
************************************************************
Integration time is 0.2294 seconds per sample
dh071018Reading 51.44 .94 2.62pr1000
************************************************************
Dead Time -------------------------  3.4E-08 
Number of Cycles Used -------------  4 
Starting Wavelength (Angstroms) ---  2950 
Final Wavelength (Angstoms) -------  2984 
Wavelength Increment (Angstroms) --  .25 
Filter Wheel #1 Position ---------- (1) Ground quartz diffuser (ND=2.32)
Filter Wheel #2 Position ---------- (1) Neutral Density 0.494



************************************************************
HS scan start time = 03:26:56
Dark Count =  .3 


Time (GMT)  Wavelength (Ang)  Step Number  Raw Counts  Counts/Second

  207.83        2950.00           2144         100.00       434.62
  208.02        2950.25           2147          95.00       412.82
  208.05        2950.50           2151         105.00       456.42
  208.09        2950.75           2155          95.00       412.82
  208.12        2951.00           2158         107.00       465.13
  208.15        2951.25           2162         103.00       447.70
  208.18        2951.50           2165         105.00       456.42
  208.21        2951.75           2169         112.00       486.93
  208.24        2952.00           2172         110.00       478.21
  208.27        2952.25           2176         106.00       460.77
  208.30        2952.50           2179         110.00       478.21
  208.33        2952.75           2183          98.00       425.90
  208.36        2953.00           2186          95.00       412.82
  208.39        2953.25           2190         112.00       486.93
  208.42        2953.50           2193         142.00       617.71
  208.45        2953.75           2197         110.00       478.21
  208.48        2954.00           2200         117.00       508.73
  208.51        2954.25           2204         110.00       478.21
  208.54        2954.50           2208         111.00       482.57
  208.57        2954.75           2211         110.00       478.21
  208.61        2955.00           2215         126.00       547.96
  208.64        2955.25           2218         108.00       469.49
  208.67        2955.50           2222         123.00       534.88
  208.70        2955.75           2225         128.00       556.68
  208.73        2956.00           2229         113.00       491.29
  208.76        2956.25           2232         109.00       473.85
  208.79        2956.50           2236         117.00       508.73
  208.82        2956.75           2239         132.00       574.12
  208.85        2957.00           2243         120.00       521.81
  208.88        2957.25           2246         148.00       643.87
  208.91        2957.50           2250         135.00       587.20
  208.94        2957.75           2254         165.00       717.98
  208.97        2958.00           2257         156.00       678.74
  209.00        2958.25           2261         140.00       608.99
  209.03        2958.50           2264         127.00       552.32
  209.06        2958.75           2268         155.00       674.38
  209.09        2959.00           2271         156.00       678.74
  209.13        2959.25           2275         144.00       626.43
  209.16        2959.50           2278         121.00       526.16
  209.19        2959.75           2282         133.00       578.48
  209.22        2960.00           2285         139.00       604.63
  209.25        2960.25           2289         150.00       652.59
  209.28        2960.50           2293         144.00       626.43
  209.31        2960.75           2296         153.00       665.66
  209.34        2961.00           2300         185.00       805.17
  209.37        2961.25           2303         330.00      1437.30
  209.40        2961.50           2307        1150.00      5012.62
  209.43        2961.75           2310        2237.00      9753.45
  209.46        2962.00           2314        4177.00     18218.34
  209.49        2962.25           2317        5795.00     25281.97
  209.52        2962.50           2321        7911.00     34524.81
  209.55        2962.75           2324        9316.00     40665.17
  209.58        2963.00           2328       11450.00     49996.43
  209.61        2963.25           2331       13149.00     57429.82
  209.65        2963.50           2335       15326.00     66960.04
  209.68        2963.75           2339       17409.00     76084.53
  209.71        2964.00           2342       19107.00     83526.76
  209.74        2964.25           2346       21359.00     93402.94
  209.77        2964.50           2349       22966.00    100454.60
  209.80        2964.75           2353       25334.00    110851.60
  209.83        2965.00           2356       26871.00    117604.00
  209.86        2965.25           2360       28388.00    124271.60
  209.89        2965.50           2363       30236.00    132398.10
  209.92        2965.75           2367       32379.00    141827.40
  209.95        2966.00           2370       33702.00    147651.80
  209.98        2966.25           2374       35578.00    155914.60
  210.01        2966.50           2378       36360.00    159360.30
  210.04        2966.75           2381       37070.00    162489.40
  210.07        2967.00           2385       36654.00    160655.90
  210.10        2967.25           2388       36618.00    160497.20
  210.13        2967.50           2392       37190.00    163018.30
  210.17        2967.75           2395       36591.00    160378.30
  210.20        2968.00           2399       35848.00    157104.20
  210.23        2968.25           2402       34502.00    151174.80
  210.26        2968.50           2406       32253.00    141272.90
  210.29        2968.75           2409       30652.00    134228.00
  210.32        2969.00           2413       29018.00    127041.50
  210.35        2969.25           2417       27136.00    118768.50
  210.38        2969.50           2420       25705.00    112481.20
  210.41        2969.75           2424       23141.00    101222.70
  210.44        2970.00           2427       21435.00     93736.36
  210.47        2970.25           2431       19411.00     84859.56
  210.50        2970.50           2434       17784.00     77727.81
  210.53        2970.75           2438       15465.00     67568.75
  210.56        2971.00           2441       13648.00     59613.74
  210.59        2971.25           2445       11411.00     49825.84
  210.62        2971.50           2449        9305.00     40617.09
  210.65        2971.75           2452        7897.00     34463.64
  210.69        2972.00           2456        5737.00     25028.70
  210.72        2972.25           2459        4303.00     18768.30
  210.75        2972.50           2463        2401.00     10468.85
  210.78        2972.75           2466        1192.00      5195.77
  210.81        2973.00           2470         353.00      1537.57
  210.84        2973.25           2473         203.00       883.64
  210.87        2973.50           2477         153.00       665.66
  210.90        2973.75           2481         150.00       652.59
  210.93        2974.00           2484         151.00       656.95
  210.96        2974.25           2488         151.00       656.95
  210.99        2974.50           2491         140.00       608.99
  211.03        2974.75           2495         149.00       648.23
  211.06        2975.00           2498         157.00       683.10
  211.09        2975.25           2502         124.00       539.24
  211.12        2975.50           2505         133.00       578.48
  211.15        2975.75           2509         145.00       630.79
  211.18        2976.00           2512         175.00       761.57
  211.21        2976.25           2516         157.00       683.10
  211.24        2976.50           2520         127.00       552.32
  211.27        2976.75           2523         130.00       565.40
  211.31        2977.00           2527         120.00       521.81
  211.34        2977.25           2530         144.00       626.43
  211.37        2977.50           2534         129.00       561.04
  211.40        2977.75           2537         114.00       495.65
  211.43        2978.00           2541         114.00       495.65
  211.46        2978.25           2544         109.00       473.85
  211.49        2978.50           2548         128.00       556.68
  211.52        2978.75           2552         121.00       526.16
  211.55        2979.00           2555         118.00       513.09
  211.58        2979.25           2559         107.00       465.13
  211.61        2979.50           2562         104.00       452.06
  211.64        2979.75           2566         142.00       617.71
  211.67        2980.00           2569         108.00       469.49
  211.70        2980.25           2573         119.00       517.45
  211.73        2980.50           2577         101.00       438.98
  211.76        2980.75           2580         105.00       456.42
  211.79        2981.00           2584         103.00       447.70
  211.83        2981.25           2587         113.00       491.29
  211.86        2981.50           2591         101.00       438.98
  211.89        2981.75           2594         105.00       456.42
  211.92        2982.00           2598         101.00       438.98
  211.95        2982.25           2601         105.00       456.42
  211.98        2982.50           2605         117.00       508.73
  212.01        2982.75           2609         111.00       482.57
  212.04        2983.00           2612         102.00       443.34
  212.07        2983.25           2616         103.00       447.70
  212.11        2983.50           2619         102.00       443.34
  212.15        2983.75           2623         101.00       438.98
  212.18        2984.00           2626          96.00       417.18
HS scan finished at 03:32:24
end
************************************************************
  HS Scan of (1) Internal mercury lamp
************************************************************
Integration time is 0.2294 seconds per sample
dh071018Reading 51.44 .94 3.19pr1000
************************************************************
Dead Time -------------------------  3.4E-08 
Number of Cycles Used -------------  4 
Starting Wavelength (Angstroms) ---  2950 
Final Wavelength (Angstoms) -------  2984 
Wavelength Increment (Angstroms) --  .25 
Filter Wheel #1 Position ---------- (1) Ground quartz diffuser (ND=2.32)
Filter Wheel #2 Position ---------- (1) Neutral Density 0.494



************************************************************
HS scan start time = 18:37:27
Dark Count =  1.3 


Time (GMT)  Wavelength (Ang)  Step Number  Raw Counts  Counts/Second

 1118.35        2950.00           2144          45.00       190.50
 1118.55        2950.25           2147          47.00       199.22
 1118.58        2950.50           2151          59.00       251.53
 1118.61        2950.75           2155          50.00       212.29
 1118.64        2951.00           2158          50.00       212.29
 1118.67        2951.25           2162          48.00       203.58
 1118.70        2951.50           2165          53.00       225.37
 1118.73        2951.75           2169          53.00       225.37
 1118.76        2952.00           2172          50.00       212.29
 1118.79        2952.25           2176          49.00       207.94
 1118.82        2952.50           2179          37.00       155.62
 1118.85        2952.75           2183          55.00       234.09
 1118.88        2953.00           2186          52.00       221.01
 1118.91        2953.25           2190          45.00       190.50
 1118.94        2953.50           2193          55.00       234.09
 1118.97        2953.75           2197          55.00       234.09
 1119.01        2954.00           2200          58.00       247.17
 1119.04        2954.25           2204          52.00       221.01
 1119.07        2954.50           2208          52.00       221.01
 1119.10        2954.75           2211          48.00       203.58
 1119.13        2955.00           2215          36.00       151.26
 1119.16        2955.25           2218          51.00       216.65
 1119.19        2955.50           2222          51.00       216.65
 1119.22        2955.75           2225          59.00       251.53
 1119.25        2956.00           2229          61.00       260.25
 1119.28        2956.25           2232          59.00       251.53
 1119.31        2956.50           2236          53.00       225.37
 1119.34        2956.75           2239          52.00       221.01
 1119.37        2957.00           2243          58.00       247.17
 1119.40        2957.25           2246          64.00       273.32
 1119.43        2957.50           2250          63.00       268.97
 1119.46        2957.75           2254          64.00       273.32
 1119.49        2958.00           2257          60.00       255.89
 1119.52        2958.25           2261          68.00       290.76
 1119.56        2958.50           2264          61.00       260.25
 1119.59        2958.75           2268          74.00       316.92
 1119.62        2959.00           2271          59.00       251.53
 1119.65        2959.25           2275          63.00       268.97
 1119.68        2959.50           2278          71.00       303.84
 1119.71        2959.75           2282          63.00       268.97
 1119.74        2960.00           2285          68.00       290.76
 1119.77        2960.25           2289          70.00       299.48
 1119.80        2960.50           2293          72.00       308.20
 1119.83        2960.75           2296          75.00       321.28
 1119.86        2961.00           2300          88.00       377.95
 1119.89        2961.25           2303         190.00       822.60
 1119.92        2961.50           2307         739.00      3216.13
 1119.95        2961.75           2310        1380.00      6011.25
 1119.98        2962.00           2314        2379.00     10368.52
 1120.01        2962.25           2317        3118.00     13592.59
 1120.05        2962.50           2321        4104.00     17895.37
 1120.08        2962.75           2324        3265.00     14234.00
 1120.11        2963.00           2328        3285.00     14321.27
 1120.14        2963.25           2331        3709.00     16171.49
 1120.17        2963.50           2335        8538.00     37260.35
 1120.20        2963.75           2339        9344.00     40783.19
 1120.23        2964.00           2342        9985.00     43585.47
 1120.26        2964.25           2346       11114.00     48522.45
 1120.29        2964.50           2349        7192.00     31379.15
 1120.32        2964.75           2353        7084.00     30907.36
 1120.35        2965.00           2356        8049.00     35123.44
 1120.38        2965.25           2360        8392.00     36622.30
 1120.41        2965.50           2363       16666.00     72824.82
 1120.44        2965.75           2367        9588.00     41849.83
 1120.47        2966.00           2370        9088.00     39664.18
 1120.50        2966.25           2374       10144.00     44280.66
 1120.53        2966.50           2378       20164.00     88157.03
 1120.57        2966.75           2381       19656.00     85929.41
 1120.60        2967.00           2385       19400.00     84806.96
 1120.63        2967.25           2388       19604.00     85701.41
 1120.66        2967.50           2392       19449.00     85021.79
 1120.69        2967.75           2395       19270.00     84236.99
 1120.72        2968.00           2399       18804.00     82194.07
 1120.75        2968.25           2402       18380.00     80335.52
 1120.78        2968.50           2406       17384.00     75970.61
 1120.81        2968.75           2409       16468.00     71957.43
 1120.84        2969.00           2413       15406.00     67305.99
 1120.87        2969.25           2417       14106.00     61614.12
 1120.90        2969.50           2420        7549.00     32938.79
 1120.93        2969.75           2424        6670.00     29098.96
 1120.96        2970.00           2427        6197.00     27033.12
 1120.99        2970.25           2431        5400.00     23552.86
 1121.02        2970.50           2434        9641.00     42081.53
 1121.05        2970.75           2438        8189.00     35735.20
 1121.09        2971.00           2441        7224.00     31518.94
 1121.12        2971.25           2445        6000.00     26172.80
 1121.15        2971.50           2449        4822.00     21029.42
 1121.18        2971.75           2452        3965.00     17288.71
 1121.21        2972.00           2456        2798.00     12196.43
 1121.24        2972.25           2459        2015.00      8780.74
 1121.27        2972.50           2463        1016.00      4423.94
 1121.30        2972.75           2466         489.00      2126.13
 1121.33        2973.00           2470         169.00       731.06
 1121.36        2973.25           2473          63.00       268.97
 1121.39        2973.50           2477          46.00       194.86
 1121.42        2973.75           2481          45.00       190.50
 1121.45        2974.00           2484          81.00       347.43
 1121.48        2974.25           2488          44.00       186.14
 1121.51        2974.50           2491          43.00       181.78
 1121.54        2974.75           2495          42.00       177.42
 1121.57        2975.00           2498          43.00       181.78
 1121.61        2975.25           2502          41.00       173.06
 1121.64        2975.50           2505          67.00       286.40
 1121.67        2975.75           2509          48.00       203.58
 1121.70        2976.00           2512          43.00       181.78
 1121.73        2976.25           2516          45.00       190.50
 1121.76        2976.50           2520          60.00       255.89
 1121.79        2976.75           2523          40.00       168.70
 1121.82        2977.00           2527          40.00       168.70
 1121.85        2977.25           2530          37.00       155.62
 1121.88        2977.50           2534          42.00       177.42
 1121.91        2977.75           2537          59.00       251.53
 1121.94        2978.00           2541          61.00       260.25
 1121.97        2978.25           2544          58.00       247.17
 1122.00        2978.50           2548          59.00       251.53
 1122.03        2978.75           2552          44.00       186.14
 1122.06        2979.00           2555          33.00       138.19
 1122.09        2979.25           2559          33.00       138.19
 1122.12        2979.50           2562          59.00       251.53
 1122.16        2979.75           2566          35.00       146.91
 1122.19        2980.00           2569          43.00       181.78
 1122.22        2980.25           2573          39.00       164.34
 1122.25        2980.50           2577          32.00       133.83
 1122.28        2980.75           2580          56.00       238.45
 1122.31        2981.00           2584          47.00       199.22
 1122.34        2981.25           2587          36.00       151.26
 1122.37        2981.50           2591          33.00       138.19
 1122.40        2981.75           2594          36.00       151.26
 1122.43        2982.00           2598          35.00       146.91
 1122.46        2982.25           2601          38.00       159.98
 1122.49        2982.50           2605          38.00       159.98
 1122.52        2982.75           2609          58.00       247.17
 1122.55        2983.00           2612          48.00       203.58
 1122.58        2983.25           2616          53.00       225.37
 1122.61        2983.50           2619          48.00       203.58
 1122.65        2983.75           2623          50.00       212.29
 1122.68        2984.00           2626          55.00       234.09
HS scan finished at 18:42:54
end
