************************************************************
  HS Scan of (1) Internal mercury lamp
************************************************************
Integration time is 0.2294 seconds per sample
dh161017Reading 51.44 .94 3.17pr1000
************************************************************
Dead Time -------------------------  3.4E-08 
Number of Cycles Used -------------  4 
Starting Wavelength (Angstroms) ---  2950 
Final Wavelength (Angstoms) -------  2984 
Wavelength Increment (Angstroms) --  .25 
Filter Wheel #1 Position ---------- (1) Ground quartz diffuser (ND=2.32)
Filter Wheel #2 Position ---------- (1) Neutral Density 0.494



************************************************************
HS scan start time = 03:46:06
Dark Count =  1.1 


Time (GMT)  Wavelength (Ang)  Step Number  Raw Counts  Counts/Second

  227.00        2950.00           2144         114.00       492.16
  227.20        2950.25           2147         113.00       487.80
  227.23        2950.50           2151         147.00       636.02
  227.26        2950.75           2155         124.00       535.76
  227.29        2951.00           2158         113.00       487.80
  227.32        2951.25           2162         114.00       492.16
  227.35        2951.50           2165         116.00       500.88
  227.38        2951.75           2169         106.00       457.29
  227.41        2952.00           2172         103.00       444.21
  227.44        2952.25           2176         123.00       531.40
  227.47        2952.50           2179         110.00       474.72
  227.50        2952.75           2183         146.00       631.66
  227.53        2953.00           2186         147.00       636.02
  227.56        2953.25           2190         145.00       627.30
  227.59        2953.50           2193         124.00       535.76
  227.62        2953.75           2197         133.00       574.99
  227.65        2954.00           2200         131.00       566.27
  227.69        2954.25           2204         117.00       505.24
  227.72        2954.50           2208         111.00       479.08
  227.75        2954.75           2211         123.00       531.40
  227.78        2955.00           2215         119.00       513.96
  227.81        2955.25           2218         130.00       561.91
  227.84        2955.50           2222         121.00       522.68
  227.87        2955.75           2225         134.00       579.35
  227.90        2956.00           2229         142.00       614.22
  227.93        2956.25           2232         132.00       570.63
  227.96        2956.50           2236         154.00       666.54
  227.99        2956.75           2239         151.00       653.46
  228.02        2957.00           2243         145.00       627.30
  228.05        2957.25           2246         130.00       561.91
  228.08        2957.50           2250         139.00       601.15
  228.11        2957.75           2254         128.00       553.19
  228.14        2958.00           2257         159.00       688.33
  228.18        2958.25           2261         161.00       697.05
  228.21        2958.50           2264         136.00       588.07
  228.24        2958.75           2268         143.00       618.58
  228.27        2959.00           2271         152.00       657.82
  228.30        2959.25           2275         155.00       670.90
  228.33        2959.50           2278         163.00       705.77
  228.36        2959.75           2282         146.00       631.66
  228.39        2960.00           2285         145.00       627.30
  228.42        2960.25           2289         158.00       683.97
  228.45        2960.50           2293         159.00       688.33
  228.48        2960.75           2296         163.00       705.77
  228.51        2961.00           2300         199.00       862.71
  228.54        2961.25           2303         419.00      1821.82
  228.57        2961.50           2307        1323.00      5763.55
  228.60        2961.75           2310        2557.00     11145.90
  228.63        2962.00           2314        4810.00     20977.91
  228.66        2962.25           2317        6583.00     28719.84
  228.70        2962.50           2321        8793.00     38375.67
  228.73        2962.75           2324       10691.00     46673.40
  228.76        2963.00           2328       13405.00     58546.69
  228.79        2963.25           2331       15417.00     67355.03
  228.82        2963.50           2335       18041.00     78850.61
  228.85        2963.75           2339       20598.00     90061.32
  228.88        2964.00           2342       22308.00     97563.28
  228.91        2964.25           2346       24788.00    108450.20
  228.94        2964.50           2349       26782.00    117209.40
  228.97        2964.75           2353       29604.00    129614.90
  229.00        2965.00           2356       31705.00    138857.60
  229.03        2965.25           2360       34208.00    149876.40
  229.06        2965.50           2363       35901.00    157334.20
  229.09        2965.75           2367       38353.00    168142.00
  229.12        2966.00           2370       40399.00    177166.40
  229.15        2966.25           2374       42639.00    187052.90
  229.18        2966.50           2378       43645.00    191495.10
  229.22        2966.75           2381       43871.00    192493.30
  229.25        2967.00           2385       43846.00    192382.90
  229.28        2967.25           2388       43942.00    192806.90
  229.31        2967.50           2392       43555.00    191097.70
  229.34        2967.75           2395       43495.00    190832.70
  229.37        2968.00           2399       42185.00    185048.60
  229.40        2968.25           2402       40457.00    177422.30
  229.43        2968.50           2406       37912.00    166197.60
  229.46        2968.75           2409       35995.00    157748.40
  229.49        2969.00           2413       33654.00    147436.90
  229.52        2969.25           2417       31468.00    137814.70
  229.55        2969.50           2420       29785.00    130410.90
  229.58        2969.75           2424       27050.00    118387.10
  229.61        2970.00           2427       25122.00    109917.00
  229.64        2970.25           2431       22316.00     97598.41
  229.67        2970.50           2434       20351.00     88978.02
  229.70        2970.75           2438       17864.00     78074.91
  229.74        2971.00           2441       15742.00     68778.35
  229.77        2971.25           2445       13006.00     56800.53
  229.80        2971.50           2449       10401.00     45405.27
  229.83        2971.75           2452        8691.00     37929.88
  229.86        2972.00           2456        6265.00     27330.97
  229.89        2972.25           2459        4385.00     19122.72
  229.92        2972.50           2463        2292.00      9989.88
  229.95        2972.75           2466        1064.00      4634.12
  229.98        2973.00           2470         342.00      1486.13
  230.01        2973.25           2473         203.00       880.15
  230.04        2973.50           2477         173.00       749.37
  230.07        2973.75           2481         173.00       749.37
  230.10        2974.00           2484         155.00       670.90
  230.13        2974.25           2488         161.00       697.05
  230.16        2974.50           2491         158.00       683.97
  230.19        2974.75           2495         149.00       644.74
  230.22        2975.00           2498         156.00       675.26
  230.25        2975.25           2502         172.00       745.01
  230.29        2975.50           2505         156.00       675.26
  230.32        2975.75           2509         147.00       636.02
  230.35        2976.00           2512         145.00       627.30
  230.38        2976.25           2516         142.00       614.22
  230.41        2976.50           2520         134.00       579.35
  230.44        2976.75           2523         142.00       614.22
  230.47        2977.00           2527         136.00       588.07
  230.50        2977.25           2530         135.00       583.71
  230.53        2977.50           2534         142.00       614.22
  230.56        2977.75           2537         131.00       566.27
  230.59        2978.00           2541         148.00       640.38
  230.62        2978.25           2544         143.00       618.58
  230.65        2978.50           2548         130.00       561.91
  230.68        2978.75           2552         146.00       631.66
  230.71        2979.00           2555         155.00       670.90
  230.74        2979.25           2559         114.00       492.16
  230.77        2979.50           2562         129.00       557.55
  230.81        2979.75           2566         114.00       492.16
  230.84        2980.00           2569         126.00       544.47
  230.87        2980.25           2573         110.00       474.72
  230.90        2980.50           2577         122.00       527.04
  230.93        2980.75           2580         116.00       500.88
  230.96        2981.00           2584         109.00       470.37
  230.99        2981.25           2587         117.00       505.24
  231.02        2981.50           2591         129.00       557.55
  231.05        2981.75           2594         118.00       509.60
  231.08        2982.00           2598         111.00       479.08
  231.11        2982.25           2601         131.00       566.27
  231.14        2982.50           2605         113.00       487.80
  231.17        2982.75           2609         108.00       466.01
  231.20        2983.00           2612         122.00       527.04
  231.23        2983.25           2616          98.00       422.41
  231.26        2983.50           2619         122.00       527.04
  231.29        2983.75           2623         121.00       522.68
  231.33        2984.00           2626         107.00       461.65
HS scan finished at 03:51:33
end
************************************************************
  HS Scan of (1) Internal mercury lamp
************************************************************
Integration time is 0.2294 seconds per sample
dh161017Reading 51.44 .94 3.37pr1000
************************************************************
Dead Time -------------------------  3.4E-08 
Number of Cycles Used -------------  4 
Starting Wavelength (Angstroms) ---  2950 
Final Wavelength (Angstoms) -------  2984 
Wavelength Increment (Angstroms) --  .25 
Filter Wheel #1 Position ---------- (1) Ground quartz diffuser (ND=2.32)
Filter Wheel #2 Position ---------- (1) Neutral Density 0.494



************************************************************
HS scan start time = 18:07:25
Dark Count =  1.7 


Time (GMT)  Wavelength (Ang)  Step Number  Raw Counts  Counts/Second

 1088.32        2950.00           2144         100.00       428.52
 1088.51        2950.25           2147         110.00       472.11
 1088.55        2950.50           2151          99.00       424.16
 1088.58        2950.75           2155         109.00       467.75
 1088.61        2951.00           2158         141.00       607.25
 1088.64        2951.25           2162         140.00       602.89
 1088.67        2951.50           2165         135.00       581.09
 1088.70        2951.75           2169         101.00       432.87
 1088.73        2952.00           2172          99.00       424.16
 1088.76        2952.25           2176         165.00       711.87
 1088.79        2952.50           2179         135.00       581.09
 1088.82        2952.75           2183         109.00       467.75
 1088.85        2953.00           2186         113.00       485.19
 1088.88        2953.25           2190         147.00       633.41
 1088.91        2953.50           2193         106.00       454.67
 1088.94        2953.75           2197         116.00       498.26
 1088.97        2954.00           2200         130.00       559.30
 1089.00        2954.25           2204         114.00       489.55
 1089.03        2954.50           2208         144.00       620.33
 1089.07        2954.75           2211         123.00       528.78
 1089.10        2955.00           2215         137.00       589.81
 1089.13        2955.25           2218         120.00       515.70
 1089.16        2955.50           2222         156.00       672.64
 1089.19        2955.75           2225         136.00       585.45
 1089.22        2956.00           2229         136.00       585.45
 1089.25        2956.25           2232         139.00       598.53
 1089.28        2956.50           2236         159.00       685.72
 1089.31        2956.75           2239         135.00       581.09
 1089.34        2957.00           2243         127.00       546.22
 1089.37        2957.25           2246         136.00       585.45
 1089.40        2957.50           2250         126.00       541.86
 1089.43        2957.75           2254         131.00       563.66
 1089.46        2958.00           2257         149.00       642.12
 1089.49        2958.25           2261         153.00       659.56
 1089.52        2958.50           2264         149.00       642.12
 1089.55        2958.75           2268         153.00       659.56
 1089.59        2959.00           2271         168.00       724.95
 1089.62        2959.25           2275         147.00       633.41
 1089.65        2959.50           2278         151.00       650.84
 1089.68        2959.75           2282         152.00       655.20
 1089.71        2960.00           2285         150.00       646.48
 1089.75        2960.25           2289         159.00       685.72
 1089.78        2960.50           2293         168.00       724.95
 1089.81        2960.75           2296         163.00       703.16
 1089.84        2961.00           2300         195.00       842.66
 1089.87        2961.25           2303         279.00      1208.86
 1089.90        2961.50           2307        1013.00      4409.12
 1089.93        2961.75           2310        2360.00     10283.89
 1089.96        2962.00           2314        4866.00     21219.75
 1089.99        2962.25           2317        6712.00     29280.66
 1090.02        2962.50           2321        9262.00     40423.00
 1090.05        2962.75           2324       11092.00     48424.48
 1090.08        2963.00           2328       13627.00     59515.69
 1090.11        2963.25           2331       15656.00     68399.08
 1090.14        2963.50           2335       18444.00     80614.30
 1090.17        2963.75           2339       21282.00     93059.02
 1090.20        2964.00           2342       23343.00    102103.20
 1090.23        2964.25           2346       25731.00    112589.30
 1090.26        2964.50           2349       27589.00    120753.30
 1090.30        2964.75           2353       30119.00    131877.30
 1090.33        2965.00           2356       32112.00    140646.10
 1090.36        2965.25           2360       34517.00    151234.70
 1090.39        2965.50           2363       36215.00    158715.10
 1090.42        2965.75           2367       38894.00    170525.10
 1090.45        2966.00           2370       40950.00    179595.10
 1090.48        2966.25           2374       42931.00    188339.50
 1090.51        2966.50           2378       43890.00    192574.60
 1090.54        2966.75           2381       44074.00    193387.30
 1090.57        2967.00           2385       44449.00    195043.70
 1090.60        2967.25           2388       44311.00    194434.10
 1090.63        2967.50           2392       44203.00    193957.10
 1090.66        2967.75           2395       43892.00    192583.40
 1090.69        2968.00           2399       42480.00    186348.30
 1090.72        2968.25           2402       41121.00    180349.70
 1090.75        2968.50           2406       38722.00    169766.60
 1090.78        2968.75           2409       37046.00    162377.40
 1090.82        2969.00           2413       34140.00    149574.40
 1090.85        2969.25           2417       31489.00    137904.50
 1090.88        2969.50           2420       29705.00    130056.40
 1090.91        2969.75           2424       26957.00    117975.80
 1090.94        2970.00           2427       25162.00    110090.00
 1090.97        2970.25           2431       22592.00     98806.97
 1091.00        2970.50           2434       20686.00     90444.66
 1091.03        2970.75           2438       18038.00     78834.83
 1091.06        2971.00           2441       16062.00     70177.27
 1091.09        2971.25           2445       13539.00     59130.53
 1091.12        2971.50           2449       10956.00     47829.68
 1091.15        2971.75           2452        8913.00     38897.53
 1091.18        2972.00           2456        6589.00     28743.42
 1091.21        2972.25           2459        4987.00     21747.98
 1091.24        2972.50           2463        2805.00     12225.22
 1091.27        2972.75           2466        1375.00      5987.71
 1091.30        2973.00           2470         424.00      1841.00
 1091.34        2973.25           2473         250.00      1082.43
 1091.37        2973.50           2477         179.00       772.91
 1091.40        2973.75           2481         187.00       807.78
 1091.43        2974.00           2484         177.00       764.19
 1091.46        2974.25           2488         172.00       742.39
 1091.49        2974.50           2491         156.00       672.64
 1091.52        2974.75           2495         167.00       720.59
 1091.55        2975.00           2498         157.00       677.00
 1091.58        2975.25           2502         162.00       698.80
 1091.61        2975.50           2505         163.00       703.16
 1091.64        2975.75           2509         158.00       681.36
 1091.67        2976.00           2512         145.00       624.69
 1091.70        2976.25           2516         150.00       646.48
 1091.73        2976.50           2520         139.00       598.53
 1091.76        2976.75           2523         143.00       615.97
 1091.79        2977.00           2527         136.00       585.45
 1091.82        2977.25           2530         137.00       589.81
 1091.86        2977.50           2534         146.00       629.05
 1091.89        2977.75           2537         137.00       589.81
 1091.92        2978.00           2541         134.00       576.73
 1091.95        2978.25           2544         123.00       528.78
 1091.98        2978.50           2548         123.00       528.78
 1092.01        2978.75           2552         131.00       563.66
 1092.04        2979.00           2555         144.00       620.33
 1092.07        2979.25           2559         134.00       576.73
 1092.10        2979.50           2562         131.00       563.66
 1092.13        2979.75           2566         110.00       472.11
 1092.16        2980.00           2569         111.00       476.47
 1092.19        2980.25           2573         141.00       607.25
 1092.22        2980.50           2577         135.00       581.09
 1092.25        2980.75           2580         137.00       589.81
 1092.28        2981.00           2584         156.00       672.64
 1092.31        2981.25           2587         116.00       498.26
 1092.34        2981.50           2591         129.00       554.94
 1092.38        2981.75           2594         131.00       563.66
 1092.41        2982.00           2598         109.00       467.75
 1092.44        2982.25           2601         131.00       563.66
 1092.47        2982.50           2605         109.00       467.75
 1092.50        2982.75           2609         127.00       546.22
 1092.53        2983.00           2612         117.00       502.62
 1092.56        2983.25           2616         146.00       629.05
 1092.59        2983.50           2619         151.00       650.84
 1092.62        2983.75           2623         165.00       711.87
 1092.65        2984.00           2626         105.00       450.31
HS scan finished at 18:12:53
end
