************************************************************
  HS Scan of (1) Internal mercury lamp
************************************************************
Integration time is 0.2294 seconds per sample
dh141017Reading 51.44 .94 3.43pr1000
************************************************************
Dead Time -------------------------  3.4E-08 
Number of Cycles Used -------------  4 
Starting Wavelength (Angstroms) ---  2950 
Final Wavelength (Angstoms) -------  2984 
Wavelength Increment (Angstroms) --  .25 
Filter Wheel #1 Position ---------- (1) Ground quartz diffuser (ND=2.32)
Filter Wheel #2 Position ---------- (1) Neutral Density 0.494



************************************************************
HS scan start time = 03:42:11
Dark Count =  2.1 


Time (GMT)  Wavelength (Ang)  Step Number  Raw Counts  Counts/Second

  223.08        2950.00           2144         104.00       444.21
  223.27        2950.25           2147         104.00       444.21
  223.30        2950.50           2151         102.00       435.49
  223.33        2950.75           2155         105.00       448.57
  223.37        2951.00           2158         110.00       470.37
  223.40        2951.25           2162         127.00       544.47
  223.43        2951.50           2165         134.00       574.99
  223.46        2951.75           2169         107.00       457.29
  223.49        2952.00           2172         139.00       596.79
  223.52        2952.25           2176         110.00       470.37
  223.55        2952.50           2179         180.00       775.52
  223.58        2952.75           2183         124.00       531.40
  223.61        2953.00           2186         120.00       513.96
  223.64        2953.25           2190         147.00       631.66
  223.67        2953.50           2193         113.00       483.44
  223.70        2953.75           2197         130.00       557.55
  223.73        2954.00           2200         148.00       636.02
  223.76        2954.25           2204         114.00       487.80
  223.79        2954.50           2208         141.00       605.51
  223.82        2954.75           2211         111.00       474.72
  223.85        2955.00           2215         126.00       540.11
  223.88        2955.25           2218         106.00       452.93
  223.92        2955.50           2222         118.00       505.24
  223.95        2955.75           2225         120.00       513.96
  223.98        2956.00           2229         126.00       540.11
  224.01        2956.25           2232         119.00       509.60
  224.04        2956.50           2236         131.00       561.91
  224.07        2956.75           2239         142.00       609.86
  224.10        2957.00           2243         142.00       609.86
  224.13        2957.25           2246         150.00       644.74
  224.16        2957.50           2250         146.00       627.30
  224.19        2957.75           2254         136.00       583.71
  224.22        2958.00           2257         131.00       561.91
  224.25        2958.25           2261         151.00       649.10
  224.28        2958.50           2264         171.00       736.29
  224.31        2958.75           2268         150.00       644.74
  224.34        2959.00           2271         143.00       614.22
  224.37        2959.25           2275         155.00       666.54
  224.40        2959.50           2278         144.00       618.58
  224.44        2959.75           2282         148.00       636.02
  224.47        2960.00           2285         147.00       631.66
  224.50        2960.25           2289         153.00       657.82
  224.53        2960.50           2293         169.00       727.57
  224.56        2960.75           2296         156.00       670.90
  224.59        2961.00           2300         209.00       901.95
  224.62        2961.25           2303         449.00      1948.25
  224.65        2961.50           2307        1708.00      7438.24
  224.68        2961.75           2310        3207.00     13977.43
  224.71        2962.00           2314        5556.00     24230.51
  224.74        2962.25           2317        7208.00     31445.55
  224.77        2962.50           2321        9336.00     40744.73
  224.80        2962.75           2324       11169.00     48759.50
  224.83        2963.00           2328       13696.00     59815.95
  224.86        2963.25           2331       15795.00     69006.10
  224.89        2963.50           2335       18520.00     80945.68
  224.92        2963.75           2339       20900.00     91381.57
  224.96        2964.00           2342       22831.00     99854.12
  224.99        2964.25           2346       25313.00    110751.50
  225.02        2964.50           2349       27181.00    118958.40
  225.05        2964.75           2353       29763.00    130309.70
  225.08        2965.00           2356       31577.00    138289.90
  225.11        2965.25           2360       33895.00    148493.70
  225.14        2965.50           2363       35621.00    156096.10
  225.17        2965.75           2367       37787.00    165642.10
  225.20        2966.00           2370       39531.00    173332.80
  225.23        2966.25           2374       41754.00    183141.60
  225.26        2966.50           2378       42967.00    188496.70
  225.29        2966.75           2381       43171.00    189397.50
  225.32        2967.00           2385       43461.00    190678.10
  225.35        2967.25           2388       43525.00    190960.80
  225.38        2967.50           2392       43480.00    190762.00
  225.41        2967.75           2395       43325.00    190077.50
  225.44        2968.00           2399       42052.00    184457.10
  225.48        2968.25           2402       40362.00    176998.80
  225.51        2968.50           2406       37965.00    166426.90
  225.54        2968.75           2409       36453.00    159762.10
  225.57        2969.00           2413       34141.00    149577.00
  225.60        2969.25           2417       31476.00    137845.50
  225.63        2969.50           2420       29812.00    130525.20
  225.66        2969.75           2424       27102.00    118611.20
  225.69        2970.00           2427       25041.00    109556.90
  225.72        2970.25           2431       22430.00     98094.28
  225.75        2970.50           2434       20224.00     88416.66
  225.78        2970.75           2438       17495.00     76453.50
  225.81        2971.00           2441       15575.00     68042.59
  225.84        2971.25           2445       12976.00     56664.87
  225.87        2971.50           2449       10556.00     46078.68
  225.90        2971.75           2452        8635.00     37680.77
  225.93        2972.00           2456        6209.00     27082.03
  225.96        2972.25           2459        4456.00     19428.26
  225.99        2972.50           2463        2420.00     10543.88
  226.03        2972.75           2466        1182.00      5144.32
  226.06        2973.00           2470         383.00      1660.51
  226.09        2973.25           2473         220.00       949.90
  226.12        2973.50           2477         168.00       723.21
  226.15        2973.75           2481         167.00       718.85
  226.18        2974.00           2484         154.00       662.18
  226.21        2974.25           2488         162.00       697.05
  226.24        2974.50           2491         174.00       749.37
  226.27        2974.75           2495         147.00       631.66
  226.30        2975.00           2498         164.00       705.77
  226.33        2975.25           2502         143.00       614.22
  226.36        2975.50           2505         151.00       649.10
  226.39        2975.75           2509         145.00       622.94
  226.42        2976.00           2512         153.00       657.82
  226.45        2976.25           2516         148.00       636.02
  226.48        2976.50           2520         132.00       566.27
  226.52        2976.75           2523         139.00       596.79
  226.55        2977.00           2527         154.00       662.18
  226.58        2977.25           2530         140.00       601.15
  226.61        2977.50           2534         129.00       553.19
  226.64        2977.75           2537         131.00       561.91
  226.67        2978.00           2541         140.00       601.15
  226.70        2978.25           2544         142.00       609.86
  226.73        2978.50           2548         173.00       745.01
  226.76        2978.75           2552         155.00       666.54
  226.79        2979.00           2555         122.00       522.68
  226.82        2979.25           2559         116.00       496.52
  226.85        2979.50           2562         135.00       579.35
  226.88        2979.75           2566         131.00       561.91
  226.91        2980.00           2569         110.00       470.37
  226.94        2980.25           2573         108.00       461.65
  226.97        2980.50           2577         130.00       557.55
  227.00        2980.75           2580         129.00       553.19
  227.03        2981.00           2584         133.00       570.63
  227.07        2981.25           2587         129.00       553.19
  227.10        2981.50           2591         121.00       518.32
  227.13        2981.75           2594         147.00       631.66
  227.16        2982.00           2598         143.00       614.22
  227.19        2982.25           2601         112.00       479.08
  227.22        2982.50           2605         112.00       479.08
  227.25        2982.75           2609         116.00       496.52
  227.28        2983.00           2612         129.00       553.19
  227.31        2983.25           2616         114.00       487.80
  227.34        2983.50           2619         111.00       474.72
  227.37        2983.75           2623          97.00       413.69
  227.41        2984.00           2626         112.00       479.08
HS scan finished at 03:47:38
end
************************************************************
  HS Scan of (1) Internal mercury lamp
************************************************************
Integration time is 0.2294 seconds per sample
dh141017Reading 51.44 .94 3.66pr1000
************************************************************
Dead Time -------------------------  3.4E-08 
Number of Cycles Used -------------  4 
Starting Wavelength (Angstroms) ---  2950 
Final Wavelength (Angstoms) -------  2984 
Wavelength Increment (Angstroms) --  .25 
Filter Wheel #1 Position ---------- (1) Ground quartz diffuser (ND=2.32)
Filter Wheel #2 Position ---------- (1) Neutral Density 0.494



************************************************************
HS scan start time = 18:07:25
Dark Count =  4.3 


Time (GMT)  Wavelength (Ang)  Step Number  Raw Counts  Counts/Second

 1088.32        2950.00           2144         108.00       452.06
 1088.51        2950.25           2147         109.00       456.42
 1088.54        2950.50           2151         104.00       434.62
 1088.57        2950.75           2155         127.00       534.88
 1088.60        2951.00           2158         150.00       635.15
 1088.63        2951.25           2162         111.00       465.13
 1088.66        2951.50           2165         104.00       434.62
 1088.70        2951.75           2169         130.00       547.96
 1088.73        2952.00           2172         109.00       456.42
 1088.76        2952.25           2176         128.00       539.24
 1088.79        2952.50           2179         105.00       438.98
 1088.82        2952.75           2183         102.00       425.90
 1088.85        2953.00           2186         109.00       456.42
 1088.88        2953.25           2190         115.00       482.57
 1088.91        2953.50           2193         113.00       473.85
 1088.94        2953.75           2197         104.00       434.62
 1088.97        2954.00           2200         132.00       556.68
 1089.00        2954.25           2204         116.00       486.93
 1089.03        2954.50           2208         131.00       552.32
 1089.06        2954.75           2211         134.00       565.40
 1089.09        2955.00           2215         166.00       704.90
 1089.12        2955.25           2218         136.00       574.12
 1089.15        2955.50           2222         116.00       486.93
 1089.19        2955.75           2225         133.00       561.04
 1089.22        2956.00           2229         131.00       552.32
 1089.25        2956.25           2232         157.00       665.66
 1089.28        2956.50           2236         127.00       534.88
 1089.31        2956.75           2239         124.00       521.81
 1089.34        2957.00           2243         163.00       691.82
 1089.37        2957.25           2246         118.00       495.65
 1089.40        2957.50           2250         142.00       600.27
 1089.43        2957.75           2254         153.00       648.23
 1089.46        2958.00           2257         132.00       556.68
 1089.49        2958.25           2261         137.00       578.48
 1089.52        2958.50           2264         146.00       617.71
 1089.55        2958.75           2268         165.00       700.54
 1089.58        2959.00           2271         129.00       543.60
 1089.61        2959.25           2275         155.00       656.95
 1089.64        2959.50           2278         149.00       630.79
 1089.67        2959.75           2282         145.00       613.35
 1089.70        2960.00           2285         141.00       595.91
 1089.74        2960.25           2289         157.00       665.66
 1089.77        2960.50           2293         157.00       665.66
 1089.80        2960.75           2296         170.00       722.34
 1089.83        2961.00           2300         210.00       896.71
 1089.86        2961.25           2303         465.00      2008.42
 1089.89        2961.50           2307        1754.00      7629.27
 1089.92        2961.75           2310        3117.00     13575.14
 1089.95        2962.00           2314        5310.00     23146.81
 1089.98        2962.25           2317        7000.00     30527.31
 1090.01        2962.50           2321        9606.00     41915.40
 1090.04        2962.75           2324       11410.00     49803.98
 1090.07        2963.00           2328       13830.00     60392.85
 1090.10        2963.25           2331       15582.00     68063.61
 1090.13        2963.50           2335       18053.00     78889.16
 1090.16        2963.75           2339       20683.00     90420.10
 1090.19        2964.00           2342       23119.00    101108.50
 1090.22        2964.25           2346       25552.00    111791.60
 1090.26        2964.50           2349       27432.00    120051.80
 1090.29        2964.75           2353       29955.00    131144.50
 1090.32        2965.00           2356       31835.00    139415.60
 1090.35        2965.25           2360       34377.00    150606.60
 1090.38        2965.50           2363       35921.00    157408.20
 1090.41        2965.75           2367       38133.00    167157.90
 1090.44        2966.00           2370       40142.00    176018.40
 1090.47        2966.25           2374       42192.00    185065.40
 1090.50        2966.50           2378       42975.00    188522.30
 1090.53        2966.75           2381       43236.00    189674.80
 1090.56        2967.00           2385       43320.00    190045.70
 1090.59        2967.25           2388       43075.00    188963.90
 1090.62        2967.50           2392       43055.00    188875.60
 1090.65        2967.75           2395       42723.00    187409.60
 1090.68        2968.00           2399       41014.00    179866.00
 1090.71        2968.25           2402       39380.00    172657.10
 1090.74        2968.50           2406       36938.00    161889.90
 1090.78        2968.75           2409       35458.00    155368.30
 1090.81        2969.00           2413       33170.00    145291.80
 1090.84        2969.25           2417       30673.00    134302.80
 1090.87        2969.50           2420       28642.00    125370.70
 1090.90        2969.75           2424       25909.00    113359.80
 1090.93        2970.00           2427       24139.00    105586.30
 1090.96        2970.25           2431       21627.00     94561.16
 1090.99        2970.50           2434       20043.00     87613.26
 1091.02        2970.75           2438       17226.00     75265.16
 1091.05        2971.00           2441       15620.00     68230.03
 1091.08        2971.25           2445       13122.00     57294.15
 1091.11        2971.50           2449       10636.00     46418.89
 1091.14        2971.75           2452        8735.00     38108.20
 1091.17        2972.00           2456        6136.00     26753.62
 1091.20        2972.25           2459        4563.00     19885.72
 1091.23        2972.50           2463        2515.00     10948.71
 1091.26        2972.75           2466        1299.00      5644.94
 1091.30        2973.00           2470         405.00      1746.83
 1091.33        2973.25           2473         217.00       927.23
 1091.36        2973.50           2477         181.00       770.29
 1091.39        2973.75           2481         175.00       744.13
 1091.42        2974.00           2484         172.00       731.06
 1091.45        2974.25           2488         166.00       704.90
 1091.48        2974.50           2491         163.00       691.82
 1091.51        2974.75           2495         149.00       630.79
 1091.54        2975.00           2498         149.00       630.79
 1091.57        2975.25           2502         148.00       626.43
 1091.60        2975.50           2505         164.00       696.18
 1091.63        2975.75           2509         146.00       617.71
 1091.66        2976.00           2512         147.00       622.07
 1091.69        2976.25           2516         143.00       604.63
 1091.72        2976.50           2520         138.00       582.84
 1091.75        2976.75           2523         132.00       556.68
 1091.78        2977.00           2527         144.00       608.99
 1091.82        2977.25           2530         142.00       600.27
 1091.85        2977.50           2534         140.00       591.56
 1091.88        2977.75           2537         153.00       648.23
 1091.91        2978.00           2541         170.00       722.34
 1091.94        2978.25           2544         135.00       569.76
 1091.97        2978.50           2548         131.00       552.32
 1092.00        2978.75           2552         135.00       569.76
 1092.03        2979.00           2555         147.00       622.07
 1092.06        2979.25           2559         122.00       513.09
 1092.09        2979.50           2562         131.00       552.32
 1092.12        2979.75           2566         116.00       486.93
 1092.15        2980.00           2569         129.00       543.60
 1092.18        2980.25           2573         138.00       582.84
 1092.21        2980.50           2577         110.00       460.77
 1092.24        2980.75           2580         127.00       534.88
 1092.27        2981.00           2584         116.00       486.93
 1092.30        2981.25           2587         109.00       456.42
 1092.34        2981.50           2591         118.00       495.65
 1092.37        2981.75           2594         118.00       495.65
 1092.40        2982.00           2598         121.00       508.73
 1092.43        2982.25           2601         130.00       547.96
 1092.46        2982.50           2605         121.00       508.73
 1092.49        2982.75           2609         121.00       508.73
 1092.52        2983.00           2612         106.00       443.34
 1092.55        2983.25           2616         105.00       438.98
 1092.58        2983.50           2619         117.00       491.29
 1092.61        2983.75           2623         128.00       539.24
 1092.64        2984.00           2626         109.00       456.42
HS scan finished at 18:12:52
end
