************************************************************
  HS Scan of (1) Internal mercury lamp
************************************************************
Integration time is 0.2294 seconds per sample
dh091017Reading 51.44 .94 3.13pr1000
************************************************************
Dead Time -------------------------  3.4E-08 
Number of Cycles Used -------------  4 
Starting Wavelength (Angstroms) ---  2950 
Final Wavelength (Angstoms) -------  2984 
Wavelength Increment (Angstroms) --  .25 
Filter Wheel #1 Position ---------- (1) Ground quartz diffuser (ND=2.32)
Filter Wheel #2 Position ---------- (1) Neutral Density 0.494



************************************************************
HS scan start time = 03:31:50
Dark Count =  1.1 


Time (GMT)  Wavelength (Ang)  Step Number  Raw Counts  Counts/Second

  212.73        2950.00           2144         130.00       561.91
  212.92        2950.25           2147         128.00       553.19
  212.95        2950.50           2151         111.00       479.08
  212.98        2950.75           2155         123.00       531.40
  213.01        2951.00           2158         115.00       496.52
  213.04        2951.25           2162         131.00       566.27
  213.07        2951.50           2165         120.00       518.32
  213.11        2951.75           2169         127.00       548.83
  213.14        2952.00           2172         128.00       553.19
  213.17        2952.25           2176         120.00       518.32
  213.20        2952.50           2179         128.00       553.19
  213.23        2952.75           2183         111.00       479.08
  213.26        2953.00           2186         108.00       466.01
  213.29        2953.25           2190         149.00       644.74
  213.32        2953.50           2193         145.00       627.30
  213.35        2953.75           2197         147.00       636.02
  213.38        2954.00           2200         146.00       631.66
  213.41        2954.25           2204         138.00       596.79
  213.44        2954.50           2208         130.00       561.91
  213.47        2954.75           2211         120.00       518.32
  213.50        2955.00           2215         139.00       601.15
  213.53        2955.25           2218         135.00       583.71
  213.56        2955.50           2222         115.00       496.52
  213.59        2955.75           2225         117.00       505.24
  213.63        2956.00           2229         108.00       466.01
  213.66        2956.25           2232         136.00       588.07
  213.69        2956.50           2236         159.00       688.33
  213.72        2956.75           2239         116.00       500.88
  213.75        2957.00           2243         124.00       535.76
  213.78        2957.25           2246         127.00       548.83
  213.81        2957.50           2250         109.00       470.37
  213.84        2957.75           2254         116.00       500.88
  213.87        2958.00           2257         151.00       653.46
  213.90        2958.25           2261         130.00       561.91
  213.93        2958.50           2264         124.00       535.76
  213.96        2958.75           2268         145.00       627.30
  213.99        2959.00           2271         107.00       461.65
  214.02        2959.25           2275         138.00       596.79
  214.05        2959.50           2278         135.00       583.71
  214.08        2959.75           2282         120.00       518.32
  214.11        2960.00           2285         156.00       675.26
  214.15        2960.25           2289         151.00       653.46
  214.18        2960.50           2293         149.00       644.74
  214.21        2960.75           2296         160.00       692.69
  214.24        2961.00           2300         181.00       784.24
  214.27        2961.25           2303         373.00      1621.27
  214.30        2961.50           2307        1297.00      5650.17
  214.33        2961.75           2310        2433.00     10604.96
  214.36        2962.00           2314        4043.00     17630.01
  214.39        2962.25           2317        5343.00     23304.86
  214.42        2962.50           2321        7339.00     32022.20
  214.45        2962.75           2324        8826.00     38519.91
  214.48        2963.00           2328       10838.00     47316.26
  214.51        2963.25           2331       12317.00     53785.72
  214.54        2963.50           2335       14249.00     62241.00
  214.57        2963.75           2339       16311.00     71270.58
  214.60        2964.00           2342       17626.00     77031.91
  214.63        2964.25           2346       19633.00     85829.44
  214.67        2964.50           2349       21222.00     92798.44
  214.70        2964.75           2353       23211.00    101526.40
  214.73        2965.00           2356       24720.00    108151.50
  214.77        2965.25           2360       26405.00    115552.90
  214.80        2965.50           2363       27737.00    121406.40
  214.83        2965.75           2367       29484.00    129087.10
  214.86        2966.00           2370       30842.00    135060.40
  214.89        2966.25           2374       32407.00    141947.20
  214.92        2966.50           2378       33180.00    145349.90
  214.95        2966.75           2381       33393.00    146287.70
  214.98        2967.00           2385       33609.00    147238.80
  215.01        2967.25           2388       33326.00    145992.70
  215.04        2967.50           2392       33355.00    146120.40
  215.07        2967.75           2395       33141.00    145178.20
  215.10        2968.00           2399       31863.00    139552.90
  215.13        2968.25           2402       30832.00    135016.40
  215.17        2968.50           2406       29170.00    127706.30
  215.20        2968.75           2409       27721.00    121336.10
  215.23        2969.00           2413       25963.00    113611.10
  215.26        2969.25           2417       24044.00    105183.30
  215.29        2969.50           2420       22550.00     98625.28
  215.32        2969.75           2424       20493.00     89600.80
  215.35        2970.00           2427       18927.00     82734.15
  215.38        2970.25           2431       16801.00     73417.13
  215.41        2970.50           2434       15440.00     67455.76
  215.44        2970.75           2438       13578.00     59303.85
  215.47        2971.00           2441       12243.00     53461.96
  215.50        2971.25           2445       10326.00     45077.32
  215.53        2971.50           2449        8437.00     36819.83
  215.56        2971.75           2452        7053.00     30772.81
  215.59        2972.00           2456        5212.00     22732.91
  215.62        2972.25           2459        3772.00     16447.29
  215.65        2972.50           2463        2025.00      8825.23
  215.69        2972.75           2466        1018.00      4433.54
  215.72        2973.00           2470         362.00      1573.32
  215.75        2973.25           2473         190.00       823.48
  215.78        2973.50           2477         169.00       731.93
  215.81        2973.75           2481         146.00       631.66
  215.84        2974.00           2484         150.00       649.10
  215.87        2974.25           2488         155.00       670.90
  215.90        2974.50           2491         144.00       622.94
  215.93        2974.75           2495         128.00       553.19
  215.96        2975.00           2498         139.00       601.15
  215.99        2975.25           2502         142.00       614.22
  216.02        2975.50           2505         122.00       527.04
  216.05        2975.75           2509         125.00       540.11
  216.08        2976.00           2512         124.00       535.76
  216.11        2976.25           2516         127.00       548.83
  216.14        2976.50           2520         126.00       544.47
  216.17        2976.75           2523         123.00       531.40
  216.21        2977.00           2527         108.00       466.01
  216.24        2977.25           2530         170.00       736.29
  216.27        2977.50           2534         116.00       500.88
  216.30        2977.75           2537         106.00       457.29
  216.33        2978.00           2541         109.00       470.37
  216.36        2978.25           2544         104.00       448.57
  216.39        2978.50           2548         106.00       457.29
  216.42        2978.75           2552         110.00       474.72
  216.45        2979.00           2555         129.00       557.55
  216.48        2979.25           2559         125.00       540.11
  216.51        2979.50           2562         148.00       640.38
  216.54        2979.75           2566         108.00       466.01
  216.57        2980.00           2569         115.00       496.52
  216.60        2980.25           2573          96.00       413.69
  216.63        2980.50           2577         118.00       509.60
  216.66        2980.75           2580          96.00       413.69
  216.69        2981.00           2584          90.00       387.54
  216.73        2981.25           2587          97.00       418.05
  216.76        2981.50           2591          88.00       378.82
  216.79        2981.75           2594          91.00       391.90
  216.82        2982.00           2598          94.00       404.98
  216.85        2982.25           2601          93.00       400.62
  216.88        2982.50           2605          94.00       404.98
  216.91        2982.75           2609         122.00       527.04
  216.94        2983.00           2612          96.00       413.69
  216.97        2983.25           2616          91.00       391.90
  217.00        2983.50           2619          92.00       396.26
  217.03        2983.75           2623         102.00       439.85
  217.06        2984.00           2626          92.00       396.26
HS scan finished at 03:37:17
end
************************************************************
  HS Scan of (1) Internal mercury lamp
************************************************************
Integration time is 0.2294 seconds per sample
dh091017Reading 51.44 .94 3.47pr1000
************************************************************
Dead Time -------------------------  3.4E-08 
Number of Cycles Used -------------  4 
Starting Wavelength (Angstroms) ---  2950 
Final Wavelength (Angstoms) -------  2984 
Wavelength Increment (Angstroms) --  .25 
Filter Wheel #1 Position ---------- (1) Ground quartz diffuser (ND=2.32)
Filter Wheel #2 Position ---------- (1) Neutral Density 0.494



************************************************************
HS scan start time = 18:07:26
Dark Count =  2.5 


Time (GMT)  Wavelength (Ang)  Step Number  Raw Counts  Counts/Second

 1088.34        2950.00           2144         126.00       538.37
 1088.53        2950.25           2147         105.00       446.82
 1088.56        2950.50           2151         109.00       464.26
 1088.59        2950.75           2155         146.00       625.56
 1088.62        2951.00           2158         109.00       464.26
 1088.65        2951.25           2162         111.00       472.98
 1088.68        2951.50           2165         113.00       481.70
 1088.71        2951.75           2169         131.00       560.17
 1088.74        2952.00           2172         126.00       538.37
 1088.77        2952.25           2176         123.00       525.29
 1088.80        2952.50           2179         135.00       577.61
 1088.83        2952.75           2183         122.00       520.93
 1088.87        2953.00           2186         111.00       472.98
 1088.90        2953.25           2190         136.00       581.96
 1088.93        2953.50           2193         121.00       516.57
 1088.96        2953.75           2197         110.00       468.62
 1088.99        2954.00           2200         146.00       625.56
 1089.02        2954.25           2204         131.00       560.17
 1089.05        2954.50           2208         115.00       490.42
 1089.08        2954.75           2211         124.00       529.65
 1089.11        2955.00           2215         139.00       595.04
 1089.14        2955.25           2218         157.00       673.51
 1089.17        2955.50           2222         146.00       625.56
 1089.20        2955.75           2225         141.00       603.76
 1089.23        2956.00           2229         168.00       721.46
 1089.26        2956.25           2232         126.00       538.37
 1089.29        2956.50           2236         139.00       595.04
 1089.32        2956.75           2239         147.00       629.92
 1089.36        2957.00           2243         156.00       669.15
 1089.39        2957.25           2246         137.00       586.32
 1089.42        2957.50           2250         130.00       555.81
 1089.45        2957.75           2254         144.00       616.84
 1089.48        2958.00           2257         135.00       577.61
 1089.51        2958.25           2261         153.00       656.07
 1089.54        2958.50           2264         181.00       778.14
 1089.58        2958.75           2268         141.00       603.76
 1089.61        2959.00           2271         149.00       638.64
 1089.64        2959.25           2275         139.00       595.04
 1089.67        2959.50           2278         149.00       638.64
 1089.70        2959.75           2282         154.00       660.43
 1089.73        2960.00           2285         154.00       660.43
 1089.76        2960.25           2289         163.00       699.67
 1089.79        2960.50           2293         172.00       738.90
 1089.82        2960.75           2296         169.00       725.82
 1089.85        2961.00           2300         261.00      1126.90
 1089.88        2961.25           2303         591.00      2565.61
 1089.91        2961.50           2307        1830.00      7968.59
 1089.94        2961.75           2310        3249.00     14158.95
 1089.97        2962.00           2314        5526.00     24097.77
 1090.00        2962.25           2317        7332.00     31985.51
 1090.03        2962.50           2321        9803.00     42784.52
 1090.07        2962.75           2324       11573.00     50524.82
 1090.10        2963.00           2328       13852.00     60497.02
 1090.13        2963.25           2331       15615.00     68216.02
 1090.16        2963.50           2335       18518.00     80935.15
 1090.19        2963.75           2339       21349.00     93349.43
 1090.22        2964.00           2342       23226.00    101586.10
 1090.25        2964.25           2346       25574.00    111896.10
 1090.28        2964.50           2349       27354.00    119716.90
 1090.31        2964.75           2353       30020.00    131438.30
 1090.34        2965.00           2356       31438.00    137676.50
 1090.37        2965.25           2360       33701.00    147637.70
 1090.40        2965.50           2363       35620.00    156089.90
 1090.43        2965.75           2367       38324.00    168008.00
 1090.46        2966.00           2370       39712.00    174129.40
 1090.49        2966.25           2374       41776.00    183237.00
 1090.52        2966.50           2378       42381.00    185907.70
 1090.55        2966.75           2381       42736.00    187475.00
 1090.59        2967.00           2385       42856.00    188004.80
 1090.62        2967.25           2388       42792.00    187722.20
 1090.65        2967.50           2392       42756.00    187563.30
 1090.68        2967.75           2395       42176.00    185002.70
 1090.71        2968.00           2399       40847.00    179137.00
 1090.74        2968.25           2402       39110.00    171474.10
 1090.77        2968.50           2406       36939.00    161902.30
 1090.80        2968.75           2409       35394.00    155094.30
 1090.83        2969.00           2413       32565.00    142636.50
 1090.86        2969.25           2417       30339.00    132841.50
 1090.89        2969.50           2420       28618.00    125273.10
 1090.92        2969.75           2424       26168.00    114505.50
 1090.95        2970.00           2427       24283.00    106226.50
 1090.98        2970.25           2431       21815.00     95393.91
 1091.01        2970.50           2434       19973.00     87314.19
 1091.04        2970.75           2438       17442.00     76219.50
 1091.07        2971.00           2441       15435.00     67427.72
 1091.10        2971.25           2445       12981.00     56685.00
 1091.14        2971.50           2449       10503.00     45845.17
 1091.17        2971.75           2452        8612.00     37578.50
 1091.20        2972.00           2456        6229.00     27167.63
 1091.23        2972.25           2459        4640.00     20229.69
 1091.26        2972.50           2463        2502.00     10899.85
 1091.29        2972.75           2466        1134.00      4933.26
 1091.32        2973.00           2470         297.00      1283.84
 1091.35        2973.25           2473         209.00       900.20
 1091.38        2973.50           2477         171.00       734.54
 1091.41        2973.75           2481         175.00       751.98
 1091.44        2974.00           2484         162.00       695.31
 1091.47        2974.25           2488         169.00       725.82
 1091.50        2974.50           2491         164.00       704.03
 1091.53        2974.75           2495         162.00       695.31
 1091.56        2975.00           2498         147.00       629.92
 1091.59        2975.25           2502         145.00       621.20
 1091.62        2975.50           2505         154.00       660.43
 1091.66        2975.75           2509         146.00       625.56
 1091.69        2976.00           2512         156.00       669.15
 1091.72        2976.25           2516         141.00       603.76
 1091.75        2976.50           2520         149.00       638.64
 1091.78        2976.75           2523         155.00       664.79
 1091.81        2977.00           2527         155.00       664.79
 1091.84        2977.25           2530         137.00       586.32
 1091.87        2977.50           2534         153.00       656.07
 1091.90        2977.75           2537         144.00       616.84
 1091.93        2978.00           2541         124.00       529.65
 1091.96        2978.25           2544         138.00       590.68
 1091.99        2978.50           2548         142.00       608.12
 1092.02        2978.75           2552         144.00       616.84
 1092.05        2979.00           2555         140.00       599.40
 1092.08        2979.25           2559         142.00       608.12
 1092.11        2979.50           2562         134.00       573.25
 1092.14        2979.75           2566         132.00       564.53
 1092.18        2980.00           2569         137.00       586.32
 1092.21        2980.25           2573         112.00       477.34
 1092.24        2980.50           2577         121.00       516.57
 1092.27        2980.75           2580         141.00       603.76
 1092.30        2981.00           2584         133.00       568.89
 1092.33        2981.25           2587         123.00       525.29
 1092.36        2981.50           2591         121.00       516.57
 1092.39        2981.75           2594         117.00       499.14
 1092.42        2982.00           2598         133.00       568.89
 1092.45        2982.25           2601         115.00       490.42
 1092.48        2982.50           2605         142.00       608.12
 1092.51        2982.75           2609         132.00       564.53
 1092.54        2983.00           2612         131.00       560.17
 1092.57        2983.25           2616         112.00       477.34
 1092.60        2983.50           2619         165.00       708.39
 1092.63        2983.75           2623         119.00       507.86
 1092.66        2984.00           2626         110.00       468.62
HS scan finished at 18:12:53
end
