************************************************************
  HS Scan of (1) Internal mercury lamp
************************************************************
Integration time is 0.2294 seconds per sample
dh101017Reading 51.44 .94 3.19pr1000
************************************************************
Dead Time -------------------------  3.4E-08 
Number of Cycles Used -------------  4 
Starting Wavelength (Angstroms) ---  2950 
Final Wavelength (Angstoms) -------  2984 
Wavelength Increment (Angstroms) --  .25 
Filter Wheel #1 Position ---------- (1) Ground quartz diffuser (ND=2.32)
Filter Wheel #2 Position ---------- (1) Neutral Density 0.494



************************************************************
HS scan start time = 03:33:58
Dark Count =  1.3 


Time (GMT)  Wavelength (Ang)  Step Number  Raw Counts  Counts/Second

  214.86        2950.00           2144         129.00       556.68
  215.05        2950.25           2147         117.00       504.37
  215.08        2950.50           2151         112.00       482.57
  215.11        2950.75           2155         133.00       574.12
  215.14        2951.00           2158         114.00       491.29
  215.17        2951.25           2162         139.00       600.27
  215.20        2951.50           2165         151.00       652.59
  215.23        2951.75           2169         151.00       652.59
  215.26        2952.00           2172         155.00       670.02
  215.29        2952.25           2176         134.00       578.48
  215.32        2952.50           2179         125.00       539.24
  215.36        2952.75           2183         125.00       539.24
  215.39        2953.00           2186         119.00       513.09
  215.42        2953.25           2190         124.00       534.88
  215.45        2953.50           2193         125.00       539.24
  215.48        2953.75           2197         138.00       595.91
  215.51        2954.00           2200         137.00       591.56
  215.54        2954.25           2204         137.00       591.56
  215.57        2954.50           2208         147.00       635.15
  215.60        2954.75           2211         137.00       591.56
  215.63        2955.00           2215         126.00       543.60
  215.66        2955.25           2218         144.00       622.07
  215.69        2955.50           2222         122.00       526.16
  215.72        2955.75           2225         138.00       595.91
  215.75        2956.00           2229         158.00       683.10
  215.78        2956.25           2232         169.00       731.06
  215.81        2956.50           2236         130.00       561.04
  215.85        2956.75           2239         137.00       591.56
  215.88        2957.00           2243         133.00       574.12
  215.91        2957.25           2246         137.00       591.56
  215.94        2957.50           2250         161.00       696.18
  215.97        2957.75           2254         141.00       608.99
  216.00        2958.00           2257         136.00       587.20
  216.03        2958.25           2261         135.00       582.84
  216.06        2958.50           2264         160.00       691.82
  216.09        2958.75           2268         148.00       639.51
  216.12        2959.00           2271         147.00       635.15
  216.15        2959.25           2275         139.00       600.27
  216.18        2959.50           2278         149.00       643.87
  216.21        2959.75           2282         151.00       652.59
  216.24        2960.00           2285         174.00       752.85
  216.27        2960.25           2289         165.00       713.62
  216.30        2960.50           2293         163.00       704.90
  216.33        2960.75           2296         182.00       787.73
  216.36        2961.00           2300         250.00      1084.17
  216.40        2961.25           2303         452.00      1964.82
  216.43        2961.50           2307        1522.00      6630.53
  216.46        2961.75           2310        2848.00     12414.57
  216.49        2962.00           2314        5166.00     22531.21
  216.52        2962.25           2317        7151.00     31200.04
  216.55        2962.50           2321        9594.00     41876.06
  216.58        2962.75           2324       11315.00     49401.57
  216.61        2963.00           2328       13717.00     59911.37
  216.64        2963.25           2331       15455.00     67520.57
  216.67        2963.50           2335       18136.00     79266.08
  216.70        2963.75           2339       20816.00     91016.62
  216.73        2964.00           2342       22589.00     98795.55
  216.76        2964.25           2346       25233.00    110403.60
  216.79        2964.50           2349       26983.00    118091.80
  216.82        2964.75           2353       29399.00    128712.40
  216.85        2965.00           2356       31258.00    136889.80
  216.88        2965.25           2360       33495.00    146735.90
  216.92        2965.50           2363       35266.00    154535.70
  216.95        2965.75           2367       37704.00    165279.70
  216.98        2966.00           2370       39185.00    171810.20
  217.01        2966.25           2374       42121.00    184765.20
  217.04        2966.50           2378       42920.00    188292.70
  217.07        2966.75           2381       43172.00    189405.40
  217.10        2967.00           2385       43315.00    190036.90
  217.13        2967.25           2388       43416.00    190482.90
  217.16        2967.50           2392       43124.00    189193.50
  217.19        2967.75           2395       42860.00    188027.80
  217.22        2968.00           2399       41415.00    181648.90
  217.25        2968.25           2402       39905.00    174986.10
  217.28        2968.50           2406       38016.00    166655.30
  217.31        2968.75           2409       36437.00    159695.20
  217.34        2969.00           2413       33826.00    148193.40
  217.37        2969.25           2417       31165.00    136480.60
  217.40        2969.50           2420       29273.00    128158.40
  217.44        2969.75           2424       27057.00    118417.00
  217.47        2970.00           2427       25154.00    110056.60
  217.50        2970.25           2431       22521.00     98497.14
  217.53        2970.50           2434       20583.00     89994.65
  217.56        2970.75           2438       17917.00     78306.29
  217.60        2971.00           2441       15868.00     69329.31
  217.63        2971.25           2445       13340.00     58261.33
  217.66        2971.50           2449       10923.00     47687.11
  217.69        2971.75           2452        9107.00     39747.23
  217.72        2972.00           2456        6772.00     29544.49
  217.75        2972.25           2459        5127.00     22360.94
  217.78        2972.50           2463        2825.00     12314.22
  217.81        2972.75           2466        1395.00      6076.67
  217.84        2973.00           2470         390.00      1694.52
  217.87        2973.25           2473         208.00       901.07
  217.90        2973.50           2477         186.00       805.17
  217.93        2973.75           2481         180.00       779.01
  217.96        2974.00           2484         163.00       704.90
  217.99        2974.25           2488         149.00       643.87
  218.02        2974.50           2491         167.00       722.34
  218.05        2974.75           2495         155.00       670.02
  218.08        2975.00           2498         159.00       687.46
  218.11        2975.25           2502         162.00       700.54
  218.15        2975.50           2505         146.00       630.79
  218.18        2975.75           2509         153.00       661.31
  218.21        2976.00           2512         149.00       643.87
  218.24        2976.25           2516         132.00       569.76
  218.27        2976.50           2520         155.00       670.02
  218.30        2976.75           2523         143.00       617.71
  218.33        2977.00           2527         140.00       604.63
  218.36        2977.25           2530         144.00       622.07
  218.39        2977.50           2534         151.00       652.59
  218.42        2977.75           2537         135.00       582.84
  218.45        2978.00           2541         135.00       582.84
  218.48        2978.25           2544         133.00       574.12
  218.51        2978.50           2548         132.00       569.76
  218.54        2978.75           2552         143.00       617.71
  218.57        2979.00           2555         119.00       513.09
  218.60        2979.25           2559         124.00       534.88
  218.63        2979.50           2562         145.00       626.43
  218.67        2979.75           2566         131.00       565.40
  218.70        2980.00           2569         130.00       561.04
  218.73        2980.25           2573         161.00       696.18
  218.76        2980.50           2577         148.00       639.51
  218.79        2980.75           2580         160.00       691.82
  218.82        2981.00           2584         164.00       709.26
  218.85        2981.25           2587         141.00       608.99
  218.88        2981.50           2591         141.00       608.99
  218.91        2981.75           2594         120.00       517.45
  218.94        2982.00           2598         133.00       574.12
  218.97        2982.25           2601         120.00       517.45
  219.00        2982.50           2605         160.00       691.82
  219.03        2982.75           2609         138.00       595.91
  219.06        2983.00           2612         142.00       613.35
  219.09        2983.25           2616         112.00       482.57
  219.12        2983.50           2619         112.00       482.57
  219.15        2983.75           2623         122.00       526.16
  219.19        2984.00           2626         110.00       473.85
HS scan finished at 03:39:24
end
************************************************************
  HS Scan of (1) Internal mercury lamp
************************************************************
Integration time is 0.2294 seconds per sample
dh101017Reading 51.44 .94 3.49pr1000
************************************************************
Dead Time -------------------------  3.4E-08 
Number of Cycles Used -------------  4 
Starting Wavelength (Angstroms) ---  2950 
Final Wavelength (Angstoms) -------  2984 
Wavelength Increment (Angstroms) --  .25 
Filter Wheel #1 Position ---------- (1) Ground quartz diffuser (ND=2.32)
Filter Wheel #2 Position ---------- (1) Neutral Density 0.494



************************************************************
HS scan start time = 18:07:29
Dark Count =  2.8 


Time (GMT)  Wavelength (Ang)  Step Number  Raw Counts  Counts/Second

 1088.38        2950.00           2144         107.00       454.24
 1088.57        2950.25           2147         110.00       467.31
 1088.60        2950.50           2151         129.00       550.14
 1088.63        2950.75           2155         123.00       523.98
 1088.66        2951.00           2158         118.00       502.19
 1088.69        2951.25           2162         124.00       528.34
 1088.72        2951.50           2165         149.00       637.33
 1088.75        2951.75           2169         126.00       537.06
 1088.78        2952.00           2172         148.00       632.97
 1088.81        2952.25           2176         149.00       637.33
 1088.84        2952.50           2179         160.00       685.28
 1088.88        2952.75           2183         112.00       476.03
 1088.91        2953.00           2186         128.00       545.78
 1088.94        2953.25           2190         146.00       624.25
 1088.97        2953.50           2193         112.00       476.03
 1089.00        2953.75           2197         146.00       624.25
 1089.03        2954.00           2200         134.00       571.94
 1089.06        2954.25           2204         133.00       567.58
 1089.09        2954.50           2208         111.00       471.67
 1089.12        2954.75           2211         169.00       724.52
 1089.15        2955.00           2215         132.00       563.22
 1089.18        2955.25           2218         128.00       545.78
 1089.21        2955.50           2222         133.00       567.58
 1089.24        2955.75           2225         151.00       646.05
 1089.27        2956.00           2229         150.00       641.69
 1089.30        2956.25           2232         130.00       554.50
 1089.33        2956.50           2236         150.00       641.69
 1089.36        2956.75           2239         128.00       545.78
 1089.40        2957.00           2243         135.00       576.30
 1089.43        2957.25           2246         134.00       571.94
 1089.46        2957.50           2250         129.00       550.14
 1089.49        2957.75           2254         143.00       611.17
 1089.52        2958.00           2257         138.00       589.38
 1089.55        2958.25           2261         142.00       606.81
 1089.58        2958.50           2264         157.00       672.20
 1089.61        2958.75           2268         145.00       619.89
 1089.64        2959.00           2271         160.00       685.28
 1089.67        2959.25           2275         143.00       611.17
 1089.70        2959.50           2278         144.00       615.53
 1089.73        2959.75           2282         161.00       689.64
 1089.76        2960.00           2285         156.00       667.84
 1089.79        2960.25           2289         156.00       667.84
 1089.82        2960.50           2293         154.00       659.13
 1089.85        2960.75           2296         177.00       759.39
 1089.88        2961.00           2300         225.00       968.65
 1089.92        2961.25           2303         482.00      2089.08
 1089.95        2961.50           2307        1525.00      6637.07
 1089.98        2961.75           2310        2896.00     12617.44
 1090.01        2962.00           2314        5179.00     22581.41
 1090.04        2962.25           2317        6931.00     30232.46
 1090.07        2962.50           2321        9310.00     40628.02
 1090.10        2962.75           2324       11592.00     50606.62
 1090.13        2963.00           2328       14131.00     61716.99
 1090.16        2963.25           2331       15827.00     69143.18
 1090.19        2963.50           2335       18354.00     80214.99
 1090.22        2963.75           2339       21032.00     91957.50
 1090.25        2964.00           2342       23151.00    101255.60
 1090.28        2964.25           2346       25815.00    112953.50
 1090.31        2964.50           2349       27512.00    120410.00
 1090.34        2964.75           2353       29976.00    131243.50
 1090.37        2965.00           2356       31852.00    139497.00
 1090.40        2965.25           2360       34727.00    152154.80
 1090.44        2965.50           2363       36517.00    160041.10
 1090.47        2965.75           2367       38848.00    170317.40
 1090.50        2966.00           2370       40548.00    177816.40
 1090.53        2966.25           2374       42351.00    185773.90
 1090.56        2966.50           2378       43678.00    191633.40
 1090.59        2966.75           2381       43881.00    192530.00
 1090.62        2967.00           2385       44036.00    193214.60
 1090.65        2967.25           2388       43983.00    192980.40
 1090.68        2967.50           2392       43839.00    192344.50
 1090.71        2967.75           2395       43660.00    191553.90
 1090.74        2968.00           2399       42180.00    185019.00
 1090.77        2968.25           2402       40717.00    178562.00
 1090.80        2968.50           2406       38582.00    169144.30
 1090.83        2968.75           2409       36996.00    162152.20
 1090.86        2969.00           2413       34594.00    151569.00
 1090.89        2969.25           2417       31801.00    139272.60
 1090.92        2969.50           2420       29795.00    130447.40
 1090.96        2969.75           2424       27400.00    119917.80
 1090.99        2970.00           2427       25316.00    110761.60
 1091.02        2970.25           2431       22887.00    100096.80
 1091.05        2970.50           2434       21181.00     92611.11
 1091.08        2970.75           2438       18338.00     80144.85
 1091.11        2971.00           2441       16417.00     71727.46
 1091.14        2971.25           2445       13843.00     60456.32
 1091.17        2971.50           2449       11195.00     48870.15
 1091.20        2971.75           2452        9413.00     41078.26
 1091.23        2972.00           2456        6788.00     29607.82
 1091.26        2972.25           2459        5047.00     22005.13
 1091.29        2972.50           2463        2813.00     12255.32
 1091.32        2972.75           2466        1345.00      5852.08
 1091.35        2973.00           2470         406.00      1757.73
 1091.38        2973.25           2473         212.00       911.97
 1091.41        2973.50           2477         185.00       794.27
 1091.44        2973.75           2481         170.00       728.88
 1091.48        2974.00           2484         172.00       737.59
 1091.51        2974.25           2488         158.00       676.56
 1091.54        2974.50           2491         166.00       711.44
 1091.57        2974.75           2495         163.00       698.36
 1091.60        2975.00           2498         169.00       724.52
 1091.63        2975.25           2502         164.00       702.72
 1091.66        2975.50           2505         158.00       676.56
 1091.69        2975.75           2509         133.00       567.58
 1091.72        2976.00           2512         141.00       602.45
 1091.75        2976.25           2516         154.00       659.13
 1091.78        2976.50           2520         152.00       650.41
 1091.81        2976.75           2523         149.00       637.33
 1091.84        2977.00           2527         143.00       611.17
 1091.87        2977.25           2530         164.00       702.72
 1091.90        2977.50           2534         145.00       619.89
 1091.93        2977.75           2537         145.00       619.89
 1091.96        2978.00           2541         136.00       580.66
 1092.00        2978.25           2544         130.00       554.50
 1092.03        2978.50           2548         136.00       580.66
 1092.06        2978.75           2552         132.00       563.22
 1092.09        2979.00           2555         166.00       711.44
 1092.12        2979.25           2559         128.00       545.78
 1092.15        2979.50           2562         156.00       667.84
 1092.18        2979.75           2566         130.00       554.50
 1092.21        2980.00           2569         140.00       598.09
 1092.24        2980.25           2573         138.00       589.38
 1092.27        2980.50           2577         134.00       571.94
 1092.30        2980.75           2580         127.00       541.42
 1092.33        2981.00           2584         141.00       602.45
 1092.36        2981.25           2587         133.00       567.58
 1092.39        2981.50           2591         115.00       489.11
 1092.42        2981.75           2594         130.00       554.50
 1092.45        2982.00           2598         127.00       541.42
 1092.48        2982.25           2601         116.00       493.47
 1092.51        2982.50           2605         133.00       567.58
 1092.55        2982.75           2609         111.00       471.67
 1092.58        2983.00           2612         112.00       476.03
 1092.61        2983.25           2616         147.00       628.61
 1092.64        2983.50           2619          99.00       419.36
 1092.67        2983.75           2623         116.00       493.47
 1092.70        2984.00           2626         144.00       615.53
HS scan finished at 18:12:55
end
