************************************************************
  HS Scan of (1) Internal mercury lamp
************************************************************
Integration time is 0.2294 seconds per sample
dh121017Reading 51.44 .94 2.9pr1000
************************************************************
Dead Time -------------------------  3.4E-08 
Number of Cycles Used -------------  4 
Starting Wavelength (Angstroms) ---  2950 
Final Wavelength (Angstoms) -------  2984 
Wavelength Increment (Angstroms) --  .25 
Filter Wheel #1 Position ---------- (1) Ground quartz diffuser (ND=2.32)
Filter Wheel #2 Position ---------- (1) Neutral Density 0.494



************************************************************
HS scan start time = 03:38:10
Dark Count =  .5 


Time (GMT)  Wavelength (Ang)  Step Number  Raw Counts  Counts/Second

  219.07        2950.00           2144         111.00       481.70
  219.26        2950.25           2147         111.00       481.70
  219.29        2950.50           2151          97.00       420.67
  219.32        2950.75           2155          95.00       411.95
  219.35        2951.00           2158          96.00       416.31
  219.38        2951.25           2162         107.00       464.26
  219.41        2951.50           2165         101.00       438.11
  219.44        2951.75           2169         115.00       499.14
  219.47        2952.00           2172          96.00       416.31
  219.50        2952.25           2176         105.00       455.54
  219.54        2952.50           2179         106.00       459.90
  219.57        2952.75           2183         100.00       433.75
  219.60        2953.00           2186         127.00       551.45
  219.63        2953.25           2190         102.00       442.47
  219.66        2953.50           2193         102.00       442.47
  219.69        2953.75           2197          98.00       425.03
  219.72        2954.00           2200          99.00       429.39
  219.75        2954.25           2204          95.00       411.95
  219.78        2954.50           2208         102.00       442.47
  219.81        2954.75           2211          98.00       425.03
  219.84        2955.00           2215         141.00       612.48
  219.87        2955.25           2218         118.00       512.21
  219.90        2955.50           2222         147.00       638.64
  219.93        2955.75           2225         130.00       564.53
  219.96        2956.00           2229         159.00       690.95
  219.99        2956.25           2232         128.00       555.81
  220.02        2956.50           2236         109.00       472.98
  220.06        2956.75           2239         110.00       477.34
  220.09        2957.00           2243         115.00       499.14
  220.12        2957.25           2246         128.00       555.81
  220.15        2957.50           2250         170.00       738.90
  220.18        2957.75           2254         138.00       599.40
  220.21        2958.00           2257         110.00       477.34
  220.24        2958.25           2261         149.00       647.36
  220.27        2958.50           2264         124.00       538.37
  220.30        2958.75           2268         151.00       656.07
  220.33        2959.00           2271         137.00       595.04
  220.36        2959.25           2275         148.00       643.00
  220.39        2959.50           2278         127.00       551.45
  220.42        2959.75           2282         139.00       603.76
  220.45        2960.00           2285         131.00       568.89
  220.48        2960.25           2289         122.00       529.65
  220.51        2960.50           2293         146.00       634.28
  220.54        2960.75           2296         139.00       603.76
  220.57        2961.00           2300         175.00       760.70
  220.61        2961.25           2303         303.00      1318.72
  220.64        2961.50           2307        1211.00      5277.76
  220.67        2961.75           2310        2549.00     11113.61
  220.70        2962.00           2314        4928.00     21495.65
  220.73        2962.25           2317        6782.00     29591.66
  220.76        2962.50           2321        8937.00     39007.67
  220.79        2962.75           2324        9441.00     41210.71
  220.82        2963.00           2328       11416.00     49846.84
  220.85        2963.25           2331       12988.00     56724.38
  220.89        2963.50           2335       15188.00     66354.86
  220.92        2963.75           2339       17273.00     75487.75
  220.95        2964.00           2342       23269.00    101783.60
  220.98        2964.25           2346       25544.00    111773.10
  221.01        2964.50           2349       27448.00    120138.80
  221.04        2964.75           2353       29816.00    130549.90
  221.08        2965.00           2356       31618.00    138477.40
  221.11        2965.25           2360       33700.00    147642.10
  221.14        2965.50           2363       35473.00    155451.10
  221.17        2965.75           2367       38106.00    167055.60
  221.20        2966.00           2370       39838.00    174694.10
  221.23        2966.25           2374       41833.00    183497.40
  221.26        2966.50           2378       43007.00    188680.40
  221.29        2966.75           2381       43105.00    189113.10
  221.32        2967.00           2385       43062.00    188923.30
  221.35        2967.25           2388       43471.00    190729.40
  221.38        2967.50           2392       43167.00    189386.90
  221.41        2967.75           2395       42965.00    188494.90
  221.44        2968.00           2399       41198.00    180694.80
  221.47        2968.25           2402       39748.00    174297.10
  221.50        2968.50           2406       37763.00    165543.40
  221.53        2968.75           2409       35689.00    156402.70
  221.56        2969.00           2413       33029.00    144687.80
  221.60        2969.25           2417       30590.00    133954.40
  221.63        2969.50           2420       28772.00    125958.90
  221.66        2969.75           2424       26276.00    114988.80
  221.69        2970.00           2427       24539.00    107359.40
  221.72        2970.25           2431       21674.00     94784.04
  221.75        2970.50           2434       20043.00     87629.92
  221.78        2970.75           2438       17413.00     76101.19
  221.81        2971.00           2441       15449.00     67497.79
  221.84        2971.25           2445       12902.00     56348.05
  221.87        2971.50           2449       10343.00     45154.27
  221.90        2971.75           2452        8426.00     36774.37
  221.93        2972.00           2456        6043.00     26364.08
  221.96        2972.25           2459        4567.00     19919.76
  221.99        2972.50           2463        2549.00     11113.61
  222.02        2972.75           2466        1270.00      5535.04
  222.05        2973.00           2470         382.00      1663.13
  222.08        2973.25           2473         222.00       965.59
  222.12        2973.50           2477         183.00       795.58
  222.15        2973.75           2481         183.00       795.58
  222.18        2974.00           2484         175.00       760.70
  222.21        2974.25           2488         163.00       708.39
  222.24        2974.50           2491         151.00       656.07
  222.27        2974.75           2495         158.00       686.59
  222.30        2975.00           2498         167.00       725.82
  222.33        2975.25           2502         158.00       686.59
  222.36        2975.50           2505         161.00       699.67
  222.39        2975.75           2509         152.00       660.43
  222.42        2976.00           2512         144.00       625.56
  222.45        2976.25           2516         149.00       647.36
  222.48        2976.50           2520         154.00       669.15
  222.51        2976.75           2523         156.00       677.87
  222.54        2977.00           2527         145.00       629.92
  222.57        2977.25           2530         137.00       595.04
  222.60        2977.50           2534         154.00       669.15
  222.63        2977.75           2537         163.00       708.39
  222.67        2978.00           2541         147.00       638.64
  222.70        2978.25           2544         133.00       577.61
  222.73        2978.50           2548         155.00       673.51
  222.76        2978.75           2552         155.00       673.51
  222.79        2979.00           2555         129.00       560.17
  222.82        2979.25           2559         144.00       625.56
  222.85        2979.50           2562         148.00       643.00
  222.88        2979.75           2566         150.00       651.71
  222.91        2980.00           2569         122.00       529.65
  222.94        2980.25           2573         140.00       608.12
  222.97        2980.50           2577         130.00       564.53
  223.00        2980.75           2580         115.00       499.14
  223.03        2981.00           2584         161.00       699.67
  223.06        2981.25           2587         125.00       542.73
  223.09        2981.50           2591         148.00       643.00
  223.12        2981.75           2594         114.00       494.78
  223.16        2982.00           2598         138.00       599.40
  223.19        2982.25           2601         116.00       503.50
  223.22        2982.50           2605         151.00       656.07
  223.25        2982.75           2609         117.00       507.86
  223.28        2983.00           2612         113.00       490.42
  223.31        2983.25           2616         145.00       629.92
  223.34        2983.50           2619         107.00       464.26
  223.37        2983.75           2623         110.00       477.34
  223.40        2984.00           2626         135.00       586.32
HS scan finished at 03:43:37
end
************************************************************
  HS Scan of (1) Internal mercury lamp
************************************************************
Integration time is 0.2294 seconds per sample
dh121017Reading 51.44 .94 3.37pr1000
************************************************************
Dead Time -------------------------  3.4E-08 
Number of Cycles Used -------------  4 
Starting Wavelength (Angstroms) ---  2950 
Final Wavelength (Angstoms) -------  2984 
Wavelength Increment (Angstroms) --  .25 
Filter Wheel #1 Position ---------- (1) Ground quartz diffuser (ND=2.32)
Filter Wheel #2 Position ---------- (1) Neutral Density 0.494



************************************************************
HS scan start time = 18:07:30
Dark Count =  2 


Time (GMT)  Wavelength (Ang)  Step Number  Raw Counts  Counts/Second

 1088.40        2950.00           2144         100.00       427.21
 1088.59        2950.25           2147         104.00       444.64
 1088.62        2950.50           2151         113.00       483.88
 1088.65        2950.75           2155         104.00       444.64
 1088.68        2951.00           2158         103.00       440.29
 1088.71        2951.25           2162          99.00       422.85
 1088.74        2951.50           2165         117.00       501.32
 1088.77        2951.75           2169          97.00       414.13
 1088.80        2952.00           2172         123.00       527.47
 1088.83        2952.25           2176         104.00       444.64
 1088.86        2952.50           2179         130.00       557.99
 1088.89        2952.75           2183         124.00       531.83
 1088.92        2953.00           2186         117.00       501.32
 1088.96        2953.25           2190         111.00       475.16
 1088.99        2953.50           2193         165.00       710.57
 1089.02        2953.75           2197         108.00       462.08
 1089.05        2954.00           2200         113.00       483.88
 1089.08        2954.25           2204         111.00       475.16
 1089.11        2954.50           2208         111.00       475.16
 1089.14        2954.75           2211         162.00       697.49
 1089.17        2955.00           2215         140.00       601.58
 1089.20        2955.25           2218         135.00       579.78
 1089.23        2955.50           2222         133.00       571.07
 1089.26        2955.75           2225         125.00       536.19
 1089.29        2956.00           2229         159.00       684.41
 1089.32        2956.25           2232         120.00       514.39
 1089.35        2956.50           2236         147.00       632.10
 1089.38        2956.75           2239         125.00       536.19
 1089.41        2957.00           2243         148.00       636.46
 1089.45        2957.25           2246         131.00       562.35
 1089.48        2957.50           2250         133.00       571.07
 1089.51        2957.75           2254         136.00       584.14
 1089.54        2958.00           2257         135.00       579.78
 1089.57        2958.25           2261         138.00       592.86
 1089.60        2958.50           2264         129.00       553.63
 1089.63        2958.75           2268         131.00       562.35
 1089.66        2959.00           2271         146.00       627.74
 1089.69        2959.25           2275         143.00       614.66
 1089.72        2959.50           2278         138.00       592.86
 1089.75        2959.75           2282         160.00       688.77
 1089.78        2960.00           2285         150.00       645.18
 1089.81        2960.25           2289         174.00       749.80
 1089.84        2960.50           2293         154.00       662.61
 1089.87        2960.75           2296         162.00       697.49
 1089.90        2961.00           2300         197.00       850.07
 1089.93        2961.25           2303         347.00      1504.00
 1089.97        2961.50           2307        1349.00      5873.01
 1090.00        2961.75           2310        2801.00     12206.46
 1090.03        2962.00           2314        5157.00     22488.86
 1090.06        2962.25           2317        7166.00     31262.51
 1090.09        2962.50           2321        9510.00     41505.79
 1090.12        2962.75           2324       11229.00     49022.35
 1090.15        2963.00           2328       13591.00     59356.81
 1090.18        2963.25           2331       15677.00     68489.74
 1090.21        2963.50           2335       18467.00     80713.79
 1090.24        2963.75           2339       21001.00     91825.04
 1090.27        2964.00           2342       22936.00    100315.40
 1090.30        2964.25           2346       25752.00    112680.20
 1090.33        2964.50           2349       27532.00    120501.40
 1090.36        2964.75           2353       30121.00    131884.80
 1090.39        2965.00           2356       32024.00    140257.50
 1090.42        2965.25           2360       34561.00    151427.10
 1090.45        2965.50           2363       36532.00    160110.70
 1090.49        2965.75           2367       38595.00    169205.20
 1090.52        2966.00           2370       40462.00    177440.40
 1090.55        2966.25           2374       42592.00    186841.40
 1090.58        2966.50           2378       43636.00    191451.40
 1090.61        2966.75           2381       43639.00    191464.70
 1090.64        2967.00           2385       44046.00    193262.30
 1090.67        2967.25           2388       43917.00    192692.50
 1090.70        2967.50           2392       43851.00    192401.00
 1090.73        2967.75           2395       43397.00    190395.90
 1090.76        2968.00           2399       41897.00    183773.30
 1090.79        2968.25           2402       40471.00    177480.10
 1090.82        2968.50           2406       38210.00    167507.50
 1090.85        2968.75           2409       36437.00    159692.10
 1090.88        2969.00           2413       34121.00    149489.40
 1090.91        2969.25           2417       31454.00    137749.10
 1090.94        2969.50           2420       29650.00    129813.20
 1090.97        2969.75           2424       27456.00    120167.40
 1091.01        2970.00           2427       25632.00    112153.10
 1091.04        2970.25           2431       23092.00    101000.10
 1091.07        2970.50           2434       20907.00     91412.71
 1091.10        2970.75           2438       18201.00     79547.91
 1091.13        2971.00           2441       16262.00     71052.00
 1091.16        2971.25           2445       13954.00     60945.69
 1091.19        2971.50           2449       11389.00     49722.17
 1091.22        2971.75           2452        9356.00     40832.59
 1091.25        2972.00           2456        7104.00     30991.67
 1091.28        2972.25           2459        5381.00     23466.85
 1091.31        2972.50           2463        2918.00     12716.92
 1091.34        2972.75           2466        1471.00      6405.06
 1091.37        2973.00           2470         426.00      1848.42
 1091.40        2973.25           2473         233.00      1007.01
 1091.43        2973.50           2477         180.00       775.96
 1091.46        2973.75           2481         171.00       736.72
 1091.49        2974.00           2484         169.00       728.00
 1091.53        2974.25           2488         164.00       706.21
 1091.56        2974.50           2491         167.00       719.29
 1091.59        2974.75           2495         158.00       680.05
 1091.62        2975.00           2498         150.00       645.18
 1091.65        2975.25           2502         137.00       588.50
 1091.68        2975.50           2505         154.00       662.61
 1091.71        2975.75           2509         160.00       688.77
 1091.74        2976.00           2512         143.00       614.66
 1091.77        2976.25           2516         138.00       592.86
 1091.80        2976.50           2520         136.00       584.14
 1091.83        2976.75           2523         152.00       653.89
 1091.86        2977.00           2527         144.00       619.02
 1091.89        2977.25           2530         118.00       505.68
 1091.92        2977.50           2534         129.00       553.63
 1091.95        2977.75           2537         134.00       575.43
 1091.98        2978.00           2541         131.00       562.35
 1092.01        2978.25           2544         140.00       601.58
 1092.04        2978.50           2548         137.00       588.50
 1092.08        2978.75           2552         133.00       571.07
 1092.11        2979.00           2555         120.00       514.39
 1092.14        2979.25           2559         132.00       566.71
 1092.17        2979.50           2562         126.00       540.55
 1092.20        2979.75           2566         131.00       562.35
 1092.23        2980.00           2569         117.00       501.32
 1092.26        2980.25           2573         118.00       505.68
 1092.29        2980.50           2577         122.00       523.11
 1092.32        2980.75           2580         141.00       605.94
 1092.35        2981.00           2584         116.00       496.96
 1092.38        2981.25           2587         139.00       597.22
 1092.41        2981.50           2591         110.00       470.80
 1092.44        2981.75           2594         115.00       492.60
 1092.47        2982.00           2598         102.00       435.93
 1092.50        2982.25           2601         106.00       453.36
 1092.53        2982.50           2605         111.00       475.16
 1092.57        2982.75           2609         109.00       466.44
 1092.60        2983.00           2612          97.00       414.13
 1092.63        2983.25           2616         131.00       562.35
 1092.66        2983.50           2619         105.00       449.00
 1092.69        2983.75           2623         127.00       544.91
 1092.72        2984.00           2626         135.00       579.78
HS scan finished at 18:12:56
end
