************************************************************
  HS Scan of (1) Internal mercury lamp
************************************************************
Integration time is 0.2294 seconds per sample
dh151018Reading 51.44 .94 3.01pr1000
************************************************************
Dead Time -------------------------  3.4E-08 
Number of Cycles Used -------------  4 
Starting Wavelength (Angstroms) ---  2950 
Final Wavelength (Angstoms) -------  2984 
Wavelength Increment (Angstroms) --  .25 
Filter Wheel #1 Position ---------- (1) Ground quartz diffuser (ND=2.32)
Filter Wheel #2 Position ---------- (1) Neutral Density 0.494



************************************************************
HS scan start time = 03:43:39
Dark Count =  .7 


Time (GMT)  Wavelength (Ang)  Step Number  Raw Counts  Counts/Second

  224.54        2950.00           2144        1402.00      6109.81
  224.74        2950.25           2147        1353.00      5896.13
  224.77        2950.50           2151        1338.00      5830.71
  224.80        2950.75           2155        1350.00      5883.04
  224.83        2951.00           2158        1364.00      5944.10
  224.86        2951.25           2162        1383.00      6026.95
  224.89        2951.50           2165        1349.00      5878.68
  224.92        2951.75           2169        1390.00      6057.48
  224.95        2952.00           2172        1378.00      6005.15
  224.98        2952.25           2176        1352.00      5891.76
  225.01        2952.50           2179        1375.00      5992.07
  225.04        2952.75           2183        1422.00      6197.03
  225.07        2953.00           2186        1407.00      6131.62
  225.10        2953.25           2190        1444.00      6292.98
  225.13        2953.50           2193        1419.00      6183.95
  225.16        2953.75           2197        1414.00      6162.15
  225.20        2954.00           2200        1470.00      6406.36
  225.23        2954.25           2204        1449.00      6314.78
  225.26        2954.50           2208        1412.00      6153.42
  225.29        2954.75           2211        1390.00      6057.48
  225.32        2955.00           2215        1453.00      6332.23
  225.35        2955.25           2218        1453.00      6332.23
  225.38        2955.50           2222        1482.00      6458.70
  225.41        2955.75           2225        1467.00      6393.28
  225.44        2956.00           2229        1495.00      6515.39
  225.47        2956.25           2232        1466.00      6388.92
  225.50        2956.50           2236        1506.00      6563.37
  225.53        2956.75           2239        1498.00      6528.48
  225.56        2957.00           2243        1485.00      6471.78
  225.59        2957.25           2246        1564.00      6816.31
  225.62        2957.50           2250        1508.00      6572.09
  225.65        2957.75           2254        1558.00      6790.15
  225.68        2958.00           2257        1563.00      6811.95
  225.72        2958.25           2261        1616.00      7043.10
  225.75        2958.50           2264        1607.00      7003.85
  225.78        2958.75           2268        1612.00      7025.65
  225.81        2959.00           2271        1607.00      7003.85
  225.84        2959.25           2275        1606.00      6999.49
  225.87        2959.50           2278        1672.00      7287.33
  225.90        2959.75           2282        1656.00      7217.55
  225.93        2960.00           2285        1702.00      7418.17
  225.96        2960.25           2289        1775.00      7736.56
  225.99        2960.50           2293        1787.00      7788.90
  226.02        2960.75           2296        1797.00      7832.51
  226.05        2961.00           2300        1943.00      8469.31
  226.08        2961.25           2303        2708.00     11806.40
  226.11        2961.50           2307        8164.00     35628.58
  226.14        2961.75           2310       17484.00     76411.43
  226.17        2962.00           2314       35198.00    154238.70
  226.20        2962.25           2317       49404.00    216953.20
  226.24        2962.50           2321       67193.00    295865.90
  226.27        2962.75           2324       81583.00    360013.20
  226.30        2963.00           2328      103819.00    459693.50
  226.33        2963.25           2331      121438.00    539162.90
  226.36        2963.50           2335      143416.00    638904.80
  226.39        2963.75           2339      163625.00    731226.10
  226.42        2964.00           2342      178505.00    799579.90
  226.45        2964.25           2346      200765.00    902440.40
  226.48        2964.50           2349      217152.00    978632.20
  226.51        2964.75           2353      236534.00   1069271.00
  226.54        2965.00           2356      251907.00   1141569.00
  226.57        2965.25           2360      271456.00   1234033.00
  226.60        2965.50           2363      285945.00   1302949.00
  226.63        2965.75           2367      304662.00   1392468.00
  226.66        2966.00           2370      318063.00   1456906.00
  226.69        2966.25           2374      333861.00   1533244.00
  226.73        2966.50           2378      344308.00   1583950.00
  226.76        2966.75           2381      347428.00   1599128.00
  226.79        2967.00           2385      349101.00   1607274.00
  226.82        2967.25           2388      348938.00   1606480.00
  226.85        2967.50           2392      348316.00   1603451.00
  226.88        2967.75           2395      346848.00   1596305.00
  226.91        2968.00           2399      340027.00   1563150.00
  226.94        2968.25           2402      330266.00   1515837.00
  226.97        2968.50           2406      312108.00   1428236.00
  227.00        2968.75           2409      298146.00   1361240.00
  227.03        2969.00           2413      279544.00   1272462.00
  227.06        2969.25           2417      261277.00   1185813.00
  227.09        2969.50           2420      247055.00   1118711.00
  227.12        2969.75           2424      226415.00   1021879.00
  227.15        2970.00           2427      210556.00    947915.60
  227.18        2970.25           2431      190784.00    856229.20
  227.21        2970.50           2434      174572.00    781481.70
  227.25        2970.75           2438      151806.00    677162.00
  227.28        2971.00           2441      135978.00    605072.60
  227.31        2971.25           2445      115428.00    512006.40
  227.34        2971.50           2449       96132.00    425157.00
  227.37        2971.75           2452       81772.00    360857.70
  227.40        2972.00           2456       62231.00    273811.50
  227.43        2972.25           2459       45745.00    200774.40
  227.46        2972.50           2463       25570.00    111886.50
  227.49        2972.75           2466       13542.00     59148.04
  227.52        2973.00           2470        4969.00     21673.77
  227.55        2973.25           2473        2637.00     11496.65
  227.58        2973.50           2477        1919.00      8364.63
  227.61        2973.75           2481        1798.00      7836.87
  227.64        2974.00           2484        1785.00      7780.18
  227.67        2974.25           2488        1712.00      7461.79
  227.70        2974.50           2491        1712.00      7461.79
  227.73        2974.75           2495        1698.00      7400.73
  227.76        2975.00           2498        1650.00      7191.38
  227.80        2975.25           2502        1667.00      7265.53
  227.83        2975.50           2505        1626.00      7086.71
  227.86        2975.75           2509        1622.00      7069.27
  227.89        2976.00           2512        1531.00      6672.39
  227.92        2976.25           2516        1537.00      6698.56
  227.95        2976.50           2520        1509.00      6576.45
  227.98        2976.75           2523        1536.00      6694.20
  228.01        2977.00           2527        1457.00      6349.67
  228.04        2977.25           2530        1484.00      6467.42
  228.07        2977.50           2534        1483.00      6463.06
  228.10        2977.75           2537        1486.00      6476.14
  228.13        2978.00           2541        1435.00      6253.73
  228.16        2978.25           2544        1442.00      6284.26
  228.19        2978.50           2548        1457.00      6349.67
  228.22        2978.75           2552        1435.00      6253.73
  228.25        2979.00           2555        1404.00      6118.54
  228.28        2979.25           2559        1411.00      6149.06
  228.32        2979.50           2562        1372.00      5978.98
  228.35        2979.75           2566        1376.00      5996.43
  228.38        2980.00           2569        1394.00      6074.93
  228.41        2980.25           2573        1337.00      5826.35
  228.44        2980.50           2577        1382.00      6022.59
  228.47        2980.75           2580        1318.00      5743.49
  228.50        2981.00           2584        1342.00      5848.16
  228.53        2981.25           2587        1366.00      5952.82
  228.56        2981.50           2591        1311.00      5712.97
  228.59        2981.75           2594        1345.00      5861.24
  228.62        2982.00           2598        1351.00      5887.40
  228.65        2982.25           2601        1328.00      5787.10
  228.68        2982.50           2605        1275.00      5555.98
  228.71        2982.75           2609        1299.00      5660.64
  228.74        2983.00           2612        1292.00      5630.11
  228.77        2983.25           2616        1284.00      5595.22
  228.80        2983.50           2619        1296.00      5647.55
  228.84        2983.75           2623        1312.00      5717.33
  228.87        2984.00           2626        1247.00      5433.87
HS scan finished at 03:49:05
end
************************************************************
  HS Scan of (1) Internal mercury lamp
************************************************************
Integration time is 0.2294 seconds per sample
dh151018Reading 51.44 .94 3.33pr1000
************************************************************
Dead Time -------------------------  3.4E-08 
Number of Cycles Used -------------  4 
Starting Wavelength (Angstroms) ---  2950 
Final Wavelength (Angstoms) -------  2984 
Wavelength Increment (Angstroms) --  .25 
Filter Wheel #1 Position ---------- (1) Ground quartz diffuser (ND=2.32)
Filter Wheel #2 Position ---------- (1) Neutral Density 0.494



************************************************************
HS scan start time = 18:07:27
Dark Count =  2 


Time (GMT)  Wavelength (Ang)  Step Number  Raw Counts  Counts/Second

 1088.35        2950.00           2144        1041.00      4529.90
 1088.55        2950.25           2147        1066.00      4638.92
 1088.58        2950.50           2151        1070.00      4656.36
 1088.61        2950.75           2155        1050.00      4569.15
 1088.64        2951.00           2158        1054.00      4586.59
 1088.67        2951.25           2162        1071.00      4660.72
 1088.70        2951.50           2165        1096.00      4769.74
 1088.73        2951.75           2169        1047.00      4556.07
 1088.76        2952.00           2172        1060.00      4612.76
 1088.79        2952.25           2176        1089.00      4739.21
 1088.82        2952.50           2179        1100.00      4787.18
 1088.85        2952.75           2183        1094.00      4761.01
 1088.89        2953.00           2186        1070.00      4656.36
 1088.92        2953.25           2190        1114.00      4848.23
 1088.95        2953.50           2193        1097.00      4774.10
 1088.98        2953.75           2197        1111.00      4835.15
 1089.01        2954.00           2200        1120.00      4874.39
 1089.04        2954.25           2204        1121.00      4878.75
 1089.07        2954.50           2208        1119.00      4870.03
 1089.10        2954.75           2211        1106.00      4813.34
 1089.13        2955.00           2215        1119.00      4870.03
 1089.16        2955.25           2218        1126.00      4900.56
 1089.19        2955.50           2222        1140.00      4961.60
 1089.22        2955.75           2225        1153.00      5018.29
 1089.25        2956.00           2229        1149.00      5000.85
 1089.28        2956.25           2232        1191.00      5184.00
 1089.31        2956.50           2236        1161.00      5053.18
 1089.34        2956.75           2239        1185.00      5157.84
 1089.37        2957.00           2243        1183.00      5149.11
 1089.41        2957.25           2246        1192.00      5188.36
 1089.44        2957.50           2250        1212.00      5275.58
 1089.47        2957.75           2254        1226.00      5336.63
 1089.50        2958.00           2257        1259.00      5480.53
 1089.53        2958.25           2261        1255.00      5463.09
 1089.56        2958.50           2264        1236.00      5380.24
 1089.59        2958.75           2268        1266.00      5511.06
 1089.62        2959.00           2271        1272.00      5537.22
 1089.65        2959.25           2275        1275.00      5550.31
 1089.68        2959.50           2278        1331.00      5794.52
 1089.71        2959.75           2282        1327.00      5777.07
 1089.74        2960.00           2285        1325.00      5768.35
 1089.77        2960.25           2289        1388.00      6043.09
 1089.80        2960.50           2293        1369.00      5960.23
 1089.83        2960.75           2296        1445.00      6291.67
 1089.86        2961.00           2300        1537.00      6692.89
 1089.89        2961.25           2303        1825.00      7948.97
 1089.92        2961.50           2307        4828.00     21052.56
 1089.96        2961.75           2310       11696.00     51065.05
 1089.99        2962.00           2314       25075.00    109706.60
 1090.02        2962.25           2317       37047.00    162380.50
 1090.05        2962.50           2321       53660.00    235788.60
 1090.08        2962.75           2324       66173.00    291323.80
 1090.11        2963.00           2328       85211.00    376224.80
 1090.14        2963.25           2331       99888.00    442016.10
 1090.17        2963.50           2335      120040.00    532835.50
 1090.20        2963.75           2339      138145.00    614915.40
 1090.23        2964.00           2342      151565.00    676055.60
 1090.26        2964.25           2346      169475.00    758054.80
 1090.29        2964.50           2349      183796.00    823956.90
 1090.32        2964.75           2353      203392.00    914621.80
 1090.35        2965.00           2356      217523.00    980355.80
 1090.38        2965.25           2360      233388.00   1054514.00
 1090.41        2965.50           2363      246076.00   1114097.00
 1090.44        2965.75           2367      263017.00   1194038.00
 1090.48        2966.00           2370      274487.00   1248416.00
 1090.51        2966.25           2374      289799.00   1321330.00
 1090.54        2966.50           2378      305082.00   1394477.00
 1090.57        2966.75           2381      310705.00   1421483.00
 1090.60        2967.00           2385      313531.00   1435075.00
 1090.63        2967.25           2388      313727.00   1436018.00
 1090.66        2967.50           2392      313794.00   1436341.00
 1090.69        2967.75           2395      313755.00   1436153.00
 1090.72        2968.00           2399      312296.00   1429134.00
 1090.75        2968.25           2402      306221.00   1399943.00
 1090.78        2968.50           2406      292317.00   1333356.00
 1090.81        2968.75           2409      280171.00   1275439.00
 1090.84        2969.00           2413      262279.00   1190547.00
 1090.87        2969.25           2417      244599.00   1107149.00
 1090.90        2969.50           2420      232165.00   1048784.00
 1090.93        2969.75           2424      213800.00    963008.20
 1090.96        2970.00           2427      198929.00    893922.80
 1091.00        2970.25           2431      178354.00    798878.70
 1091.03        2970.50           2434      164204.00    733873.90
 1091.06        2970.75           2438      143790.00    640602.10
 1091.09        2971.00           2441      129777.00    576921.20
 1091.12        2971.25           2445      110890.00    491528.90
 1091.15        2971.50           2449       93254.00    412241.70
 1091.18        2971.75           2452       79363.00    350092.90
 1091.21        2972.00           2456       60144.00    264539.60
 1091.24        2972.25           2459       45820.00    201100.10
 1091.27        2972.50           2463       28366.00    124167.40
 1091.30        2972.75           2466       16543.00     72282.91
 1091.33        2973.00           2470        5955.00     25973.23
 1091.36        2973.25           2473        2757.00     12014.50
 1091.39        2973.50           2477        1620.00      7054.87
 1091.42        2973.75           2481        1477.00      6431.22
 1091.45        2974.00           2484        1456.00      6339.64
 1091.48        2974.25           2488        1414.00      6156.48
 1091.52        2974.50           2491        1372.00      5973.31
 1091.55        2974.75           2495        1391.00      6056.17
 1091.58        2975.00           2498        1362.00      5929.70
 1091.61        2975.25           2502        1317.00      5733.46
 1091.64        2975.50           2505        1278.00      5563.39
 1091.67        2975.75           2509        1247.00      5428.20
 1091.70        2976.00           2512        1266.00      5511.06
 1091.73        2976.25           2516        1250.00      5441.29
 1091.76        2976.50           2520        1250.00      5441.29
 1091.79        2976.75           2523        1215.00      5288.66
 1091.82        2977.00           2527        1212.00      5275.58
 1091.85        2977.25           2530        1192.00      5188.36
 1091.88        2977.50           2534        1208.00      5258.13
 1091.91        2977.75           2537        1161.00      5053.18
 1091.94        2978.00           2541        1176.00      5118.59
 1091.97        2978.25           2544        1109.00      4826.42
 1092.00        2978.50           2548        1137.00      4948.52
 1092.04        2978.75           2552        1114.00      4848.23
 1092.07        2979.00           2555        1133.00      4931.08
 1092.10        2979.25           2559        1126.00      4900.56
 1092.13        2979.50           2562        1086.00      4726.13
 1092.16        2979.75           2566        1103.00      4800.26
 1092.19        2980.00           2569        1091.00      4747.93
 1092.22        2980.25           2573        1089.00      4739.21
 1092.25        2980.50           2577        1072.00      4665.08
 1092.28        2980.75           2580        1061.00      4617.12
 1092.31        2981.00           2584        1051.00      4573.51
 1092.34        2981.25           2587        1078.00      4691.25
 1092.37        2981.50           2591        1046.00      4551.71
 1092.40        2981.75           2594        1036.00      4508.10
 1092.43        2982.00           2598        1049.00      4564.79
 1092.46        2982.25           2601        1028.00      4473.22
 1092.49        2982.50           2605        1040.00      4525.54
 1092.52        2982.75           2609        1035.00      4503.74
 1092.55        2983.00           2612        1057.00      4599.67
 1092.59        2983.25           2616        1019.00      4433.97
 1092.62        2983.50           2619        1025.00      4460.14
 1092.65        2983.75           2623         966.00      4202.87
 1092.68        2984.00           2626        1016.00      4420.89
HS scan finished at 18:12:54
end
