************************************************************
  HS Scan of (1) Internal mercury lamp
************************************************************
Integration time is 0.2294 seconds per sample
dh161018Reading 51.44 .94 3.33pr1000
************************************************************
Dead Time -------------------------  3.4E-08 
Number of Cycles Used -------------  4 
Starting Wavelength (Angstroms) ---  2950 
Final Wavelength (Angstoms) -------  2984 
Wavelength Increment (Angstroms) --  .25 
Filter Wheel #1 Position ---------- (1) Ground quartz diffuser (ND=2.32)
Filter Wheel #2 Position ---------- (1) Neutral Density 0.494



************************************************************
HS scan start time = 03:45:38
Dark Count =  1.6 


Time (GMT)  Wavelength (Ang)  Step Number  Raw Counts  Counts/Second

  226.54        2950.00           2144        1278.00      5565.13
  226.73        2950.25           2147        1296.00      5643.63
  226.76        2950.50           2151        1363.00      5935.81
  226.79        2950.75           2155        1319.00      5743.93
  226.82        2951.00           2158        1305.00      5682.88
  226.85        2951.25           2162        1263.00      5499.72
  226.88        2951.50           2165        1299.00      5656.71
  226.91        2951.75           2169        1319.00      5743.93
  226.94        2952.00           2172        1315.00      5726.49
  226.97        2952.25           2176        1335.00      5813.70
  227.01        2952.50           2179        1331.00      5796.26
  227.04        2952.75           2183        1339.00      5831.15
  227.07        2953.00           2186        1345.00      5857.31
  227.10        2953.25           2190        1347.00      5866.03
  227.13        2953.50           2193        1352.00      5887.84
  227.16        2953.75           2197        1362.00      5931.45
  227.19        2954.00           2200        1376.00      5992.50
  227.22        2954.25           2204        1353.00      5892.20
  227.25        2954.50           2208        1360.00      5922.73
  227.28        2954.75           2211        1394.00      6071.00
  227.31        2955.00           2215        1406.00      6123.33
  227.34        2955.25           2218        1395.00      6075.36
  227.37        2955.50           2222        1424.00      6201.83
  227.40        2955.75           2225        1415.00      6162.58
  227.43        2956.00           2229        1425.00      6206.19
  227.46        2956.25           2232        1440.00      6271.61
  227.49        2956.50           2236        1512.00      6585.61
  227.53        2956.75           2239        1469.00      6398.08
  227.56        2957.00           2243        1522.00      6629.22
  227.59        2957.25           2246        1483.00      6459.13
  227.62        2957.50           2250        1494.00      6507.11
  227.65        2957.75           2254        1509.00      6572.52
  227.68        2958.00           2257        1507.00      6563.80
  227.71        2958.25           2261        1496.00      6515.83
  227.74        2958.50           2264        1561.00      6799.30
  227.77        2958.75           2268        1568.00      6829.83
  227.80        2959.00           2271        1571.00      6842.92
  227.83        2959.25           2275        1601.00      6973.76
  227.86        2959.50           2278        1618.00      7047.90
  227.89        2959.75           2282        1663.00      7244.16
  227.92        2960.00           2285        1660.00      7231.07
  227.95        2960.25           2289        1739.00      7575.62
  227.98        2960.50           2293        1779.00      7750.08
  228.01        2960.75           2296        1777.00      7741.36
  228.05        2961.00           2300        1901.00      8282.19
  228.08        2961.25           2303        2475.00     10786.00
  228.11        2961.50           2307        7460.00     32548.64
  228.14        2961.75           2310       16872.00     73726.00
  228.17        2962.00           2314       33942.00    148702.90
  228.20        2962.25           2317       50440.00    221533.30
  228.23        2962.50           2321       72982.00    321634.10
  228.26        2962.75           2324       88902.00    392744.00
  228.29        2963.00           2328      110511.00    489822.30
  228.32        2963.25           2331      128392.00    570644.10
  228.35        2963.50           2335      150836.00    672729.60
  228.38        2963.75           2339      175611.00    786256.60
  228.41        2964.00           2342      193507.00    868817.70
  228.44        2964.25           2346      215543.00    971129.20
  228.47        2964.50           2349      230551.00   1041227.00
  228.50        2964.75           2353      253662.00   1149841.00
  228.53        2965.00           2356      270645.00   1230181.00
  228.56        2965.25           2360      293135.00   1337267.00
  228.60        2965.50           2363      310253.00   1419312.00
  228.63        2965.75           2367      329935.00   1514231.00
  228.66        2966.00           2370      344287.00   1583843.00
  228.69        2966.25           2374      364016.00   1680094.00
  228.72        2966.50           2378      380540.00   1761210.00
  228.75        2966.75           2381      385830.00   1787277.00
  228.78        2967.00           2385      388806.00   1801962.00
  228.81        2967.25           2388      388532.00   1800609.00
  228.84        2967.50           2392      389257.00   1804189.00
  228.87        2967.75           2395      388090.00   1798427.00
  228.90        2968.00           2399      384627.00   1781345.00
  228.93        2968.25           2402      375646.00   1737137.00
  228.96        2968.50           2406      358396.00   1652610.00
  228.99        2968.75           2409      342197.00   1573685.00
  229.02        2969.00           2413      317625.00   1454791.00
  229.05        2969.25           2417      294416.00   1343390.00
  229.09        2969.50           2420      278700.00   1268443.00
  229.12        2969.75           2424      257604.00   1168449.00
  229.15        2970.00           2427      239678.00   1084023.00
  229.18        2970.25           2431      216610.00    976101.60
  229.21        2970.50           2434      198139.00    890263.80
  229.24        2970.75           2438      173336.00    775794.60
  229.27        2971.00           2441      155869.00    695720.70
  229.30        2971.25           2445      132066.00    587306.10
  229.33        2971.50           2449      109525.00    485378.70
  229.36        2971.75           2452       92948.00    410871.60
  229.39        2972.00           2456       70649.00    311242.30
  229.42        2972.25           2459       51778.00    227455.80
  229.45        2972.50           2463       29431.00    128851.90
  229.48        2972.75           2466       16162.00     70615.73
  229.51        2973.00           2470        5522.00     24084.23
  229.54        2973.25           2473        2715.00     11833.01
  229.57        2973.50           2477        2006.00      8740.17
  229.61        2973.75           2481        1811.00      7889.65
  229.64        2974.00           2484        1813.00      7898.37
  229.67        2974.25           2488        1777.00      7741.36
  229.70        2974.50           2491        1722.00      7501.48
  229.73        2974.75           2495        1650.00      7187.46
  229.76        2975.00           2498        1658.00      7222.35
  229.79        2975.25           2502        1609.00      7008.65
  229.82        2975.50           2505        1577.00      6869.08
  229.85        2975.75           2509        1609.00      7008.65
  229.88        2976.00           2512        1594.00      6943.23
  229.91        2976.25           2516        1505.00      6555.08
  229.94        2976.50           2520        1523.00      6633.58
  229.97        2976.75           2523        1491.00      6494.02
  230.00        2977.00           2527        1514.00      6594.33
  230.03        2977.25           2530        1479.00      6441.69
  230.06        2977.50           2534        1438.00      6262.89
  230.09        2977.75           2537        1445.00      6293.41
  230.12        2978.00           2541        1414.00      6158.22
  230.16        2978.25           2544        1408.00      6132.05
  230.19        2978.50           2548        1417.00      6171.30
  230.22        2978.75           2552        1383.00      6023.03
  230.25        2979.00           2555        1366.00      5948.89
  230.28        2979.25           2559        1392.00      6062.28
  230.31        2979.50           2562        1359.00      5918.37
  230.34        2979.75           2566        1320.00      5748.29
  230.37        2980.00           2569        1311.00      5709.04
  230.40        2980.25           2573        1334.00      5809.34
  230.43        2980.50           2577        1342.00      5844.23
  230.46        2980.75           2580        1324.00      5765.73
  230.49        2981.00           2584        1339.00      5831.15
  230.52        2981.25           2587        1306.00      5687.24
  230.55        2981.50           2591        1281.00      5578.22
  230.58        2981.75           2594        1299.00      5656.71
  230.61        2982.00           2598        1279.00      5569.49
  230.64        2982.25           2601        1264.00      5504.08
  230.68        2982.50           2605        1240.00      5399.42
  230.71        2982.75           2609        1299.00      5656.71
  230.74        2983.00           2612        1271.00      5534.61
  230.77        2983.25           2616        1298.00      5652.35
  230.80        2983.50           2619        1245.00      5421.23
  230.83        2983.75           2623        1273.00      5543.33
  230.86        2984.00           2626        1219.00      5307.85
HS scan finished at 03:51:05
end
************************************************************
  HS Scan of (1) Internal mercury lamp
************************************************************
Integration time is 0.2294 seconds per sample
dh161018Reading 51.44 .94 3.5pr1000
************************************************************
Dead Time -------------------------  3.4E-08 
Number of Cycles Used -------------  4 
Starting Wavelength (Angstroms) ---  2950 
Final Wavelength (Angstoms) -------  2984 
Wavelength Increment (Angstroms) --  .25 
Filter Wheel #1 Position ---------- (1) Ground quartz diffuser (ND=2.32)
Filter Wheel #2 Position ---------- (1) Neutral Density 0.494



************************************************************
HS scan start time = 18:07:26
Dark Count =  2.8 


Time (GMT)  Wavelength (Ang)  Step Number  Raw Counts  Counts/Second

 1088.33        2950.00           2144         908.00      3946.48
 1088.52        2950.25           2147         925.00      4020.60
 1088.55        2950.50           2151         944.00      4103.45
 1088.58        2950.75           2155         938.00      4077.29
 1088.61        2951.00           2158         930.00      4042.40
 1088.65        2951.25           2162         974.00      4234.26
 1088.68        2951.50           2165         973.00      4229.90
 1088.71        2951.75           2169         923.00      4011.88
 1088.74        2952.00           2172         942.00      4094.73
 1088.77        2952.25           2176         955.00      4151.41
 1088.80        2952.50           2179         957.00      4160.14
 1088.83        2952.75           2183         971.00      4221.18
 1088.86        2953.00           2186         953.00      4142.69
 1088.89        2953.25           2190         936.00      4068.57
 1088.92        2953.50           2193         957.00      4160.14
 1088.95        2953.75           2197         973.00      4229.90
 1088.98        2954.00           2200         969.00      4212.46
 1089.01        2954.25           2204         975.00      4238.62
 1089.04        2954.50           2208         965.00      4195.02
 1089.07        2954.75           2211        1021.00      4439.21
 1089.10        2955.00           2215         995.00      4325.83
 1089.13        2955.25           2218        1012.00      4399.96
 1089.17        2955.50           2222        1012.00      4399.96
 1089.20        2955.75           2225         989.00      4299.67
 1089.23        2956.00           2229        1022.00      4443.57
 1089.26        2956.25           2232        1034.00      4495.89
 1089.29        2956.50           2236        1050.00      4565.66
 1089.32        2956.75           2239        1071.00      4657.23
 1089.35        2957.00           2243        1029.00      4474.09
 1089.38        2957.25           2246        1048.00      4556.94
 1089.41        2957.50           2250        1076.00      4679.04
 1089.44        2957.75           2254        1070.00      4652.87
 1089.47        2958.00           2257        1033.00      4491.53
 1089.50        2958.25           2261        1099.00      4779.33
 1089.53        2958.50           2264        1088.00      4731.36
 1089.56        2958.75           2268        1129.00      4910.15
 1089.59        2959.00           2271        1100.00      4783.69
 1089.62        2959.25           2275        1178.00      5123.82
 1089.65        2959.50           2278        1148.00      4993.00
 1089.69        2959.75           2282        1141.00      4962.48
 1089.72        2960.00           2285        1159.00      5040.97
 1089.75        2960.25           2289        1183.00      5145.63
 1089.78        2960.50           2293        1240.00      5394.19
 1089.81        2960.75           2296        1243.00      5407.27
 1089.84        2961.00           2300        1299.00      5651.48
 1089.87        2961.25           2303        1415.00      6157.35
 1089.90        2961.50           2307        2493.00     10859.28
 1089.93        2961.75           2310        6260.00     27301.71
 1089.96        2962.00           2314       18070.00     78970.25
 1089.99        2962.25           2317       30069.00    131652.50
 1090.02        2962.50           2321       46780.00    205339.70
 1090.05        2962.75           2324       58718.00    258208.10
 1090.08        2963.00           2328       75021.00    330717.10
 1090.11        2963.25           2331       87371.00    385885.10
 1090.14        2963.50           2335      105577.00    467594.00
 1090.17        2963.75           2339      123141.00    546857.70
 1090.21        2964.00           2342      136875.00    609139.10
 1090.24        2964.25           2346      152953.00    682390.30
 1090.27        2964.50           2349      165919.00    741733.40
 1090.30        2964.75           2353      181881.00    815123.50
 1090.33        2965.00           2356      193371.00    868183.00
 1090.36        2965.25           2360      208612.00    938865.40
 1090.39        2965.50           2363      220199.00    992833.90
 1090.42        2965.75           2367      235935.00   1066451.00
 1090.45        2966.00           2370      249005.00   1127883.00
 1090.48        2966.25           2374      264582.00   1201442.00
 1090.51        2966.50           2378      273948.00   1245852.00
 1090.54        2966.75           2381      277468.00   1262578.00
 1090.57        2967.00           2385      278955.00   1269650.00
 1090.60        2967.25           2388      279178.00   1270711.00
 1090.63        2967.50           2392      279784.00   1273594.00
 1090.66        2967.75           2395      279615.00   1272790.00
 1090.69        2968.00           2399      275202.00   1251809.00
 1090.73        2968.25           2402      268145.00   1218320.00
 1090.76        2968.50           2406      255169.00   1156946.00
 1090.79        2968.75           2409      244481.00   1106590.00
 1090.82        2969.00           2413      231109.00   1043834.00
 1090.85        2969.25           2417      214569.00    966586.10
 1090.88        2969.50           2420      202148.00    908845.60
 1090.91        2969.75           2424      185553.00    832059.10
 1090.94        2970.00           2427      172803.00    773339.10
 1090.97        2970.25           2431      155794.00    695372.30
 1091.00        2970.50           2434      144513.00    643891.60
 1091.03        2970.75           2438      128125.00    569428.50
 1091.06        2971.00           2441      115355.00    511667.50
 1091.09        2971.25           2445       97268.00    430246.30
 1091.12        2971.50           2449       79764.00    351879.60
 1091.15        2971.75           2452       67766.00    298405.50
 1091.18        2972.00           2456       52721.00    231626.00
 1091.21        2972.25           2459       40877.00    179268.10
 1091.25        2972.50           2463       24555.00    107419.50
 1091.28        2972.75           2466       13772.00     60145.55
 1091.31        2973.00           2470        4924.00     21468.15
 1091.34        2973.25           2473        2428.00     10575.73
 1091.37        2973.50           2477        1435.00      6244.57
 1091.40        2973.75           2481        1320.00      5743.06
 1091.43        2974.00           2484        1278.00      5559.90
 1091.46        2974.25           2488        1253.00      5450.88
 1091.49        2974.50           2491        1231.00      5354.94
 1091.52        2974.75           2495        1205.00      5241.56
 1091.55        2975.00           2498        1205.00      5241.56
 1091.58        2975.25           2502        1148.00      4993.00
 1091.61        2975.50           2505        1181.00      5136.90
 1091.64        2975.75           2509        1116.00      4853.46
 1091.67        2976.00           2512        1109.00      4822.94
 1091.70        2976.25           2516        1098.00      4774.97
 1091.73        2976.50           2520        1113.00      4840.38
 1091.76        2976.75           2523        1077.00      4683.40
 1091.80        2977.00           2527        1082.00      4705.20
 1091.83        2977.25           2530        1046.00      4548.22
 1091.86        2977.50           2534        1042.00      4530.78
 1091.89        2977.75           2537        1028.00      4469.73
 1091.92        2978.00           2541        1033.00      4491.53
 1091.95        2978.25           2544        1030.00      4478.45
 1091.98        2978.50           2548         978.00      4251.70
 1092.01        2978.75           2552        1038.00      4513.33
 1092.04        2979.00           2555        1004.00      4365.08
 1092.07        2979.25           2559        1006.00      4373.80
 1092.10        2979.50           2562         983.00      4273.51
 1092.13        2979.75           2566         961.00      4177.58
 1092.16        2980.00           2569         976.00      4242.98
 1092.19        2980.25           2573         927.00      4029.32
 1092.22        2980.50           2577         962.00      4181.94
 1092.25        2980.75           2580         919.00      3994.44
 1092.28        2981.00           2584         955.00      4151.41
 1092.32        2981.25           2587         939.00      4081.65
 1092.35        2981.50           2591         911.00      3959.56
 1092.38        2981.75           2594         949.00      4125.25
 1092.41        2982.00           2598         907.00      3942.12
 1092.44        2982.25           2601         914.00      3972.64
 1092.47        2982.50           2605         892.00      3876.71
 1092.50        2982.75           2609         899.00      3907.23
 1092.53        2983.00           2612         899.00      3907.23
 1092.56        2983.25           2616         912.00      3963.92
 1092.59        2983.50           2619         916.00      3981.36
 1092.62        2983.75           2623         902.00      3920.31
 1092.65        2984.00           2626         912.00      3963.92
HS scan finished at 18:12:53
end
