************************************************************
  HS Scan of (1) Internal mercury lamp
************************************************************
Integration time is 0.2294 seconds per sample
dh081018Reading 51.44 .94 2.76pr1000
************************************************************
Dead Time -------------------------  3.4E-08 
Number of Cycles Used -------------  4 
Starting Wavelength (Angstroms) ---  2950 
Final Wavelength (Angstoms) -------  2984 
Wavelength Increment (Angstroms) --  .25 
Filter Wheel #1 Position ---------- (1) Ground quartz diffuser (ND=2.32)
Filter Wheel #2 Position ---------- (1) Neutral Density 0.494



************************************************************
HS scan start time = 03:29:08
Dark Count =  .4 


Time (GMT)  Wavelength (Ang)  Step Number  Raw Counts  Counts/Second

  210.03        2950.00           2144         118.00       512.65
  210.22        2950.25           2147          96.00       416.75
  210.25        2950.50           2151          95.00       412.39
  210.28        2950.75           2155         104.00       451.62
  210.31        2951.00           2158          93.00       403.67
  210.34        2951.25           2162         117.00       508.29
  210.37        2951.50           2165          96.00       416.75
  210.40        2951.75           2169          89.00       386.23
  210.43        2952.00           2172          98.00       425.46
  210.46        2952.25           2176         100.00       434.18
  210.50        2952.50           2179          94.00       408.03
  210.53        2952.75           2183         101.00       438.54
  210.56        2953.00           2186         119.00       517.01
  210.59        2953.25           2190          94.00       408.03
  210.62        2953.50           2193         100.00       434.18
  210.65        2953.75           2197          98.00       425.46
  210.68        2954.00           2200         137.00       595.48
  210.71        2954.25           2204          95.00       412.39
  210.74        2954.50           2208         118.00       512.65
  210.77        2954.75           2211         104.00       451.62
  210.80        2955.00           2215         104.00       451.62
  210.83        2955.25           2218         108.00       469.06
  210.86        2955.50           2222         123.00       534.45
  210.89        2955.75           2225         101.00       438.54
  210.92        2956.00           2229         124.00       538.81
  210.95        2956.25           2232         102.00       442.90
  210.98        2956.50           2236         108.00       469.06
  211.02        2956.75           2239         127.00       551.88
  211.05        2957.00           2243         126.00       547.53
  211.08        2957.25           2246         123.00       534.45
  211.11        2957.50           2250         148.00       643.43
  211.14        2957.75           2254         136.00       591.12
  211.17        2958.00           2257         132.00       573.68
  211.20        2958.25           2261         109.00       473.42
  211.23        2958.50           2264         105.00       455.98
  211.26        2958.75           2268         122.00       530.09
  211.29        2959.00           2271         174.00       756.78
  211.32        2959.25           2275         137.00       595.48
  211.35        2959.50           2278         143.00       621.63
  211.38        2959.75           2282         146.00       634.71
  211.41        2960.00           2285         134.00       582.40
  211.44        2960.25           2289         128.00       556.24
  211.47        2960.50           2293         144.00       625.99
  211.50        2960.75           2296         149.00       647.79
  211.53        2961.00           2300         166.00       721.90
  211.57        2961.25           2303         260.00      1131.69
  211.60        2961.50           2307         928.00      4044.15
  211.63        2961.75           2310        2109.00      9194.68
  211.66        2962.00           2314        3994.00     17419.21
  211.69        2962.25           2317        5390.00     23513.13
  211.72        2962.50           2321        7178.00     31321.92
  211.75        2962.75           2324        8697.00     37959.16
  211.78        2963.00           2328       10719.00     46798.90
  211.81        2963.25           2331       12178.00     53180.64
  211.84        2963.50           2335       14124.00     61696.85
  211.87        2963.75           2339       16009.00     69950.83
  211.90        2964.00           2342       17812.00     77850.08
  211.93        2964.25           2346       20129.00     88007.50
  211.96        2964.50           2349       21668.00     94758.16
  211.99        2964.75           2353       23629.00    103364.40
  212.02        2965.00           2356       25015.00    109450.10
  212.05        2965.25           2360       27194.00    119023.00
  212.09        2965.50           2363       28717.00    125717.60
  212.12        2965.75           2367       30808.00    134913.90
  212.15        2966.00           2370       32153.00    140832.30
  212.18        2966.25           2374       33737.00    147805.40
  212.21        2966.50           2378       34897.00    152914.20
  212.24        2966.75           2381       35187.00    154191.60
  212.27        2967.00           2385       35328.00    154812.80
  212.30        2967.25           2388       35078.00    153711.40
  212.33        2967.50           2392       35036.00    153526.40
  212.36        2967.75           2395       34886.00    152865.70
  212.39        2968.00           2399       33781.00    147999.20
  212.42        2968.25           2402       32379.00    141827.00
  212.45        2968.50           2406       30579.00    133906.40
  212.48        2968.75           2409       29203.00    127854.50
  212.51        2969.00           2413       27342.00    119673.40
  212.54        2969.25           2417       25140.00    109999.10
  212.57        2969.50           2420       23638.00    103403.90
  212.61        2969.75           2424       21410.00     93626.25
  212.64        2970.00           2427       19737.00     86288.53
  212.67        2970.25           2431       17650.00     77140.16
  212.70        2970.50           2434       16163.00     70625.35
  212.73        2970.75           2438       13940.00     60891.41
  212.76        2971.00           2441       12569.00     54891.37
  212.79        2971.25           2445       10636.00     46435.94
  212.82        2971.50           2449        8491.00     37058.87
  212.85        2971.75           2452        6993.00     30513.77
  212.88        2972.00           2456        5097.00     22233.89
  212.91        2972.25           2459        3699.00     16131.78
  212.94        2972.50           2463        1957.00      8531.68
  212.97        2972.75           2466         934.00      4070.31
  213.00        2973.00           2470         278.00      1210.16
  213.03        2973.25           2473         166.00       721.90
  213.06        2973.50           2477         160.00       695.74
  213.09        2973.75           2481         156.00       678.31
  213.13        2974.00           2484         135.00       586.76
  213.16        2974.25           2488         151.00       656.51
  213.19        2974.50           2491         154.00       669.59
  213.22        2974.75           2495         151.00       656.51
  213.25        2975.00           2498         124.00       538.81
  213.28        2975.25           2502         121.00       525.73
  213.31        2975.50           2505         127.00       551.88
  213.34        2975.75           2509         110.00       477.78
  213.37        2976.00           2512         124.00       538.81
  213.40        2976.25           2516         119.00       517.01
  213.43        2976.50           2520         119.00       517.01
  213.46        2976.75           2523         125.00       543.17
  213.49        2977.00           2527         115.00       499.57
  213.52        2977.25           2530         139.00       604.20
  213.55        2977.50           2534         103.00       447.26
  213.58        2977.75           2537         100.00       434.18
  213.61        2978.00           2541          97.00       421.10
  213.65        2978.25           2544         111.00       482.14
  213.68        2978.50           2548         144.00       625.99
  213.71        2978.75           2552         124.00       538.81
  213.74        2979.00           2555         106.00       460.34
  213.77        2979.25           2559          99.00       429.82
  213.80        2979.50           2562         137.00       595.48
  213.83        2979.75           2566         119.00       517.01
  213.86        2980.00           2569         100.00       434.18
  213.89        2980.25           2573         104.00       451.62
  213.92        2980.50           2577          98.00       425.46
  213.95        2980.75           2580         100.00       434.18
  213.98        2981.00           2584          98.00       425.46
  214.01        2981.25           2587          95.00       412.39
  214.04        2981.50           2591         110.00       477.78
  214.07        2981.75           2594          94.00       408.03
  214.10        2982.00           2598         103.00       447.26
  214.13        2982.25           2601          96.00       416.75
  214.17        2982.50           2605          95.00       412.39
  214.20        2982.75           2609         113.00       490.85
  214.23        2983.00           2612          94.00       408.03
  214.26        2983.25           2616          92.00       399.31
  214.29        2983.50           2619          90.00       390.59
  214.32        2983.75           2623          88.00       381.87
  214.35        2984.00           2626         110.00       477.78
HS scan finished at 03:34:34
end
************************************************************
  HS Scan of (1) Internal mercury lamp
************************************************************
Integration time is 0.2294 seconds per sample
dh081018Reading 51.44 .94 3.47pr1000
************************************************************
Dead Time -------------------------  3.4E-08 
Number of Cycles Used -------------  4 
Starting Wavelength (Angstroms) ---  2950 
Final Wavelength (Angstoms) -------  2984 
Wavelength Increment (Angstroms) --  .25 
Filter Wheel #1 Position ---------- (1) Ground quartz diffuser (ND=2.32)
Filter Wheel #2 Position ---------- (1) Neutral Density 0.494



************************************************************
HS scan start time = 18:07:24
Dark Count =  2.9 


Time (GMT)  Wavelength (Ang)  Step Number  Raw Counts  Counts/Second

 1088.29        2950.00           2144          51.00       209.68
 1088.49        2950.25           2147          48.00       196.60
 1088.52        2950.50           2151          39.00       157.37
 1088.55        2950.75           2155          47.00       192.24
 1088.58        2951.00           2158          43.00       174.80
 1088.61        2951.25           2162          44.00       179.16
 1088.64        2951.50           2165          46.00       187.88
 1088.67        2951.75           2169          47.00       192.24
 1088.70        2952.00           2172          47.00       192.24
 1088.73        2952.25           2176          52.00       214.04
 1088.76        2952.50           2179          56.00       231.48
 1088.79        2952.75           2183          50.00       205.32
 1088.82        2953.00           2186          52.00       214.04
 1088.85        2953.25           2190          53.00       218.40
 1088.89        2953.50           2193          50.00       205.32
 1088.92        2953.75           2197          48.00       196.60
 1088.95        2954.00           2200          48.00       196.60
 1088.98        2954.25           2204          50.00       205.32
 1089.01        2954.50           2208          53.00       218.40
 1089.04        2954.75           2211          51.00       209.68
 1089.07        2955.00           2215          45.00       183.52
 1089.10        2955.25           2218          52.00       214.04
 1089.13        2955.50           2222          50.00       205.32
 1089.17        2955.75           2225          51.00       209.68
 1089.20        2956.00           2229          48.00       196.60
 1089.23        2956.25           2232          52.00       214.04
 1089.26        2956.50           2236          51.00       209.68
 1089.29        2956.75           2239          52.00       214.04
 1089.32        2957.00           2243          51.00       209.68
 1089.35        2957.25           2246          59.00       244.55
 1089.38        2957.50           2250          59.00       244.55
 1089.41        2957.75           2254          56.00       231.48
 1089.44        2958.00           2257          51.00       209.68
 1089.47        2958.25           2261          57.00       235.83
 1089.50        2958.50           2264          61.00       253.27
 1089.53        2958.75           2268          51.00       209.68
 1089.56        2959.00           2271          56.00       231.48
 1089.59        2959.25           2275          56.00       231.48
 1089.62        2959.50           2278          70.00       292.51
 1089.65        2959.75           2282          59.00       244.55
 1089.69        2960.00           2285          58.00       240.19
 1089.72        2960.25           2289          67.00       279.43
 1089.75        2960.50           2293          67.00       279.43
 1089.78        2960.75           2296          68.00       283.79
 1089.81        2961.00           2300          70.00       292.51
 1089.84        2961.25           2303         119.00       506.11
 1089.87        2961.50           2307         427.00      1848.85
 1089.90        2961.75           2310         812.00      3527.45
 1089.93        2962.00           2314        1425.00      6200.52
 1089.96        2962.25           2317        2130.00      9275.38
 1089.99        2962.50           2321        2962.00     12904.96
 1090.02        2962.75           2324        3492.00     15217.55
 1090.05        2963.00           2328        4335.00     18896.62
 1090.08        2963.25           2331        5054.00     22035.25
 1090.11        2963.50           2335        5915.00     25794.63
 1090.14        2963.75           2339        6737.00     29384.62
 1090.17        2964.00           2342        7565.00     33001.70
 1090.21        2964.25           2346        8732.00     38101.20
 1090.24        2964.50           2349        9602.00     41904.04
 1090.27        2964.75           2353       10594.00     46241.35
 1090.30        2965.00           2356       11331.00     49464.55
 1090.33        2965.25           2360       12270.00     53572.21
 1090.36        2965.50           2363       12730.00     55584.90
 1090.39        2965.75           2367       14124.00     61685.91
 1090.42        2966.00           2370       14406.00     62920.43
 1090.45        2966.25           2374       15092.00     65923.97
 1090.48        2966.50           2378       15753.00     68818.65
 1090.51        2966.75           2381       15660.00     68411.34
 1090.54        2967.00           2385       15624.00     68253.68
 1090.57        2967.25           2388       15569.00     68012.81
 1090.60        2967.50           2392       15317.00     66909.24
 1090.63        2967.75           2395       15136.00     66116.65
 1090.66        2968.00           2399       14456.00     63139.32
 1090.69        2968.25           2402       13542.00     59138.41
 1090.73        2968.50           2406       13128.00     57326.54
 1090.76        2968.75           2409       12297.00     53690.33
 1090.79        2969.00           2413       11504.00     50221.25
 1090.82        2969.25           2417       10548.00     46040.19
 1090.85        2969.50           2420       10100.00     44081.28
 1090.88        2969.75           2424        9211.00     40194.83
 1090.91        2970.00           2427        8413.00     36707.08
 1090.94        2970.25           2431        7505.00     32739.57
 1090.97        2970.50           2434        7486.00     32656.55
 1091.00        2970.75           2438        6339.00     27646.29
 1091.03        2971.00           2441        5670.00     24724.79
 1091.06        2971.25           2445        4729.00     20616.45
 1091.09        2971.50           2449        3782.00     16483.08
 1091.12        2971.75           2452        2900.00     12634.46
 1091.15        2972.00           2456        2034.00      8856.63
 1091.18        2972.25           2459        1424.00      6196.16
 1091.21        2972.50           2463         749.00      3252.76
 1091.25        2972.75           2466         368.00      1591.63
 1091.28        2973.00           2470         164.00       702.28
 1091.31        2973.25           2473          94.00       397.13
 1091.34        2973.50           2477          72.00       301.22
 1091.37        2973.75           2481          72.00       301.22
 1091.40        2974.00           2484          67.00       279.43
 1091.43        2974.25           2488          66.00       275.07
 1091.46        2974.50           2491          71.00       296.86
 1091.49        2974.75           2495          66.00       275.07
 1091.52        2975.00           2498          61.00       253.27
 1091.55        2975.25           2502          63.00       261.99
 1091.58        2975.50           2505          70.00       292.51
 1091.61        2975.75           2509          66.00       275.07
 1091.64        2976.00           2512          59.00       244.55
 1091.67        2976.25           2516          60.00       248.91
 1091.70        2976.50           2520          65.00       270.71
 1091.73        2976.75           2523          57.00       235.83
 1091.77        2977.00           2527          64.00       266.35
 1091.80        2977.25           2530          62.00       257.63
 1091.83        2977.50           2534          54.00       222.76
 1091.86        2977.75           2537          58.00       240.19
 1091.89        2978.00           2541          57.00       235.83
 1091.92        2978.25           2544          53.00       218.40
 1091.95        2978.50           2548          55.00       227.12
 1091.98        2978.75           2552          53.00       218.40
 1092.01        2979.00           2555          58.00       240.19
 1092.04        2979.25           2559          51.00       209.68
 1092.07        2979.50           2562          57.00       235.83
 1092.10        2979.75           2566          53.00       218.40
 1092.13        2980.00           2569          52.00       214.04
 1092.16        2980.25           2573          52.00       214.04
 1092.19        2980.50           2577          50.00       205.32
 1092.22        2980.75           2580          51.00       209.68
 1092.25        2981.00           2584          44.00       179.16
 1092.29        2981.25           2587          56.00       231.48
 1092.32        2981.50           2591          47.00       192.24
 1092.35        2981.75           2594          45.00       183.52
 1092.38        2982.00           2598          47.00       192.24
 1092.41        2982.25           2601          48.00       196.60
 1092.44        2982.50           2605          53.00       218.40
 1092.47        2982.75           2609          50.00       205.32
 1092.50        2983.00           2612          50.00       205.32
 1092.53        2983.25           2616          50.00       205.32
 1092.56        2983.50           2619          53.00       218.40
 1092.59        2983.75           2623          51.00       209.68
 1092.62        2984.00           2626          47.00       192.24
HS scan finished at 18:12:51
end
