************************************************************
  HS Scan of (1) Internal mercury lamp
************************************************************
Integration time is 0.2294 seconds per sample
dh151017Reading 51.44 .94 3.31pr1000
************************************************************
Dead Time -------------------------  3.4E-08 
Number of Cycles Used -------------  4 
Starting Wavelength (Angstroms) ---  2950 
Final Wavelength (Angstoms) -------  2984 
Wavelength Increment (Angstroms) --  .25 
Filter Wheel #1 Position ---------- (1) Ground quartz diffuser (ND=2.32)
Filter Wheel #2 Position ---------- (1) Neutral Density 0.494



************************************************************
HS scan start time = 03:44:11
Dark Count =  2 


Time (GMT)  Wavelength (Ang)  Step Number  Raw Counts  Counts/Second

  225.08        2950.00           2144         114.00       488.24
  225.28        2950.25           2147         108.00       462.08
  225.31        2950.50           2151         100.00       427.21
  225.34        2950.75           2155         111.00       475.16
  225.37        2951.00           2158         120.00       514.39
  225.40        2951.25           2162         110.00       470.80
  225.43        2951.50           2165         153.00       658.25
  225.46        2951.75           2169         128.00       549.27
  225.49        2952.00           2172         123.00       527.47
  225.52        2952.25           2176         106.00       453.36
  225.55        2952.50           2179         128.00       549.27
  225.58        2952.75           2183         130.00       557.99
  225.61        2953.00           2186         106.00       453.36
  225.64        2953.25           2190         135.00       579.78
  225.68        2953.50           2193         113.00       483.88
  225.71        2953.75           2197         146.00       627.74
  225.74        2954.00           2200         103.00       440.29
  225.77        2954.25           2204         108.00       462.08
  225.80        2954.50           2208         171.00       736.72
  225.83        2954.75           2211         112.00       479.52
  225.87        2955.00           2215         113.00       483.88
  225.90        2955.25           2218         137.00       588.50
  225.94        2955.50           2222         125.00       536.19
  225.97        2955.75           2225         142.00       610.30
  226.00        2956.00           2229         136.00       584.14
  226.03        2956.25           2232         126.00       540.55
  226.06        2956.50           2236         154.00       662.61
  226.09        2956.75           2239         146.00       627.74
  226.12        2957.00           2243         152.00       653.89
  226.15        2957.25           2246         138.00       592.86
  226.18        2957.50           2250         131.00       562.35
  226.21        2957.75           2254         142.00       610.30
  226.24        2958.00           2257         134.00       575.43
  226.27        2958.25           2261         139.00       597.22
  226.30        2958.50           2264         144.00       619.02
  226.33        2958.75           2268         144.00       619.02
  226.36        2959.00           2271         159.00       684.41
  226.39        2959.25           2275         144.00       619.02
  226.42        2959.50           2278         160.00       688.77
  226.46        2959.75           2282         144.00       619.02
  226.49        2960.00           2285         157.00       675.69
  226.52        2960.25           2289         142.00       610.30
  226.55        2960.50           2293         172.00       741.08
  226.58        2960.75           2296         176.00       758.52
  226.61        2961.00           2300         217.00       937.26
  226.64        2961.25           2303         449.00      1948.69
  226.67        2961.50           2307        1666.00      7255.50
  226.70        2961.75           2310        3208.00     13982.24
  226.73        2962.00           2314        5140.00     22414.63
  226.76        2962.25           2317        6823.00     29764.19
  226.79        2962.50           2321        9349.00     40801.99
  226.82        2962.75           2324       11159.00     48716.20
  226.85        2963.00           2328       13803.00     60284.74
  226.88        2963.25           2331       15791.00     68989.01
  226.91        2963.50           2335       18134.00     79254.25
  226.94        2963.75           2339       20587.00     90009.12
  226.98        2964.00           2342       22665.00     99126.03
  227.01        2964.25           2346       25532.00    111713.90
  227.04        2964.50           2349       27482.00    120281.70
  227.07        2964.75           2353       30289.00    132623.70
  227.10        2965.00           2356       31930.00    139843.80
  227.13        2965.25           2360       34306.00    150304.10
  227.16        2965.50           2363       36435.00    159683.30
  227.19        2965.75           2367       38745.00    169866.60
  227.22        2966.00           2370       40235.00    176438.90
  227.25        2966.25           2374       42167.00    184965.10
  227.28        2966.50           2378       43156.00    189331.70
  227.31        2966.75           2381       43497.00    190837.60
  227.34        2967.00           2385       43578.00    191195.30
  227.37        2967.25           2388       43591.00    191252.70
  227.40        2967.50           2392       43358.00    190223.70
  227.43        2967.75           2395       43047.00    188850.40
  227.46        2968.00           2399       41225.00    180807.30
  227.50        2968.25           2402       39575.00    173527.30
  227.53        2968.50           2406       37479.00    164284.80
  227.56        2968.75           2409       35742.00    156629.60
  227.59        2969.00           2413       33216.00    145504.50
  227.62        2969.25           2417       31141.00    136371.90
  227.65        2969.50           2420       29486.00    129092.00
  227.68        2969.75           2424       26742.00    117029.70
  227.71        2970.00           2427       24620.00    107708.50
  227.74        2970.25           2431       22059.00     96466.71
  227.77        2970.50           2434       20152.00     88101.35
  227.80        2970.75           2438       17668.00     77212.03
  227.83        2971.00           2441       15972.00     69781.76
  227.86        2971.25           2445       13566.00     59247.39
  227.89        2971.50           2449       11264.00     49175.44
  227.92        2971.75           2452        9194.00     40124.45
  227.95        2972.00           2456        6550.00     28571.77
  227.98        2972.25           2459        4755.00     20733.88
  228.01        2972.50           2463        2597.00     11316.47
  228.05        2972.75           2466        1317.00      5733.46
  228.08        2973.00           2470         396.00      1717.62
  228.11        2973.25           2473         229.00       989.57
  228.14        2973.50           2477         192.00       828.27
  228.17        2973.75           2481         171.00       736.72
  228.20        2974.00           2484         166.00       714.93
  228.23        2974.25           2488         158.00       680.05
  228.26        2974.50           2491         175.00       754.16
  228.29        2974.75           2495         150.00       645.18
  228.32        2975.00           2498         160.00       688.77
  228.35        2975.25           2502         147.00       632.10
  228.38        2975.50           2505         144.00       619.02
  228.41        2975.75           2509         156.00       671.33
  228.44        2976.00           2512         144.00       619.02
  228.47        2976.25           2516         167.00       719.29
  228.50        2976.50           2520         132.00       566.71
  228.53        2976.75           2523         157.00       675.69
  228.57        2977.00           2527         151.00       649.53
  228.60        2977.25           2530         134.00       575.43
  228.63        2977.50           2534         134.00       575.43
  228.66        2977.75           2537         162.00       697.49
  228.69        2978.00           2541         138.00       592.86
  228.73        2978.25           2544         142.00       610.30
  228.76        2978.50           2548         142.00       610.30
  228.79        2978.75           2552         133.00       571.07
  228.83        2979.00           2555         160.00       688.77
  228.86        2979.25           2559         136.00       584.14
  228.89        2979.50           2562         133.00       571.07
  228.93        2979.75           2566         118.00       505.68
  228.96        2980.00           2569         124.00       531.83
  228.99        2980.25           2573         135.00       579.78
  229.02        2980.50           2577         107.00       457.72
  229.05        2980.75           2580         127.00       544.91
  229.09        2981.00           2584         159.00       684.41
  229.12        2981.25           2587         114.00       488.24
  229.15        2981.50           2591         131.00       562.35
  229.18        2981.75           2594         116.00       496.96
  229.21        2982.00           2598         135.00       579.78
  229.24        2982.25           2601         109.00       466.44
  229.27        2982.50           2605         109.00       466.44
  229.30        2982.75           2609         124.00       531.83
  229.33        2983.00           2612         119.00       510.03
  229.36        2983.25           2616         148.00       636.46
  229.39        2983.50           2619         109.00       466.44
  229.42        2983.75           2623         130.00       557.99
  229.45        2984.00           2626         157.00       675.69
HS scan finished at 03:49:41
end
************************************************************
  HS Scan of (1) Internal mercury lamp
************************************************************
Integration time is 0.2294 seconds per sample
dh151017Reading 51.44 .94 3.45pr1000
************************************************************
Dead Time -------------------------  3.4E-08 
Number of Cycles Used -------------  4 
Starting Wavelength (Angstroms) ---  2950 
Final Wavelength (Angstoms) -------  2984 
Wavelength Increment (Angstroms) --  .25 
Filter Wheel #1 Position ---------- (1) Ground quartz diffuser (ND=2.32)
Filter Wheel #2 Position ---------- (1) Neutral Density 0.494



************************************************************
HS scan start time = 18:07:27
Dark Count =  2.4 


Time (GMT)  Wavelength (Ang)  Step Number  Raw Counts  Counts/Second

 1088.35        2950.00           2144          92.00       390.59
 1088.55        2950.25           2147          86.00       364.43
 1088.58        2950.50           2151          94.00       399.31
 1088.61        2950.75           2155          81.00       342.64
 1088.64        2951.00           2158          95.00       403.67
 1088.67        2951.25           2162         105.00       447.26
 1088.70        2951.50           2165          94.00       399.31
 1088.73        2951.75           2169         101.00       429.82
 1088.76        2952.00           2172          92.00       390.59
 1088.79        2952.25           2176          92.00       390.59
 1088.82        2952.50           2179          98.00       416.75
 1088.85        2952.75           2183          93.00       394.95
 1088.88        2953.00           2186          94.00       399.31
 1088.91        2953.25           2190          94.00       399.31
 1088.94        2953.50           2193         115.00       490.85
 1088.98        2953.75           2197         102.00       434.18
 1089.01        2954.00           2200         108.00       460.34
 1089.04        2954.25           2204         111.00       473.42
 1089.07        2954.50           2208          98.00       416.75
 1089.10        2954.75           2211          95.00       403.67
 1089.13        2955.00           2215         104.00       442.90
 1089.16        2955.25           2218         111.00       473.42
 1089.19        2955.50           2222         130.00       556.24
 1089.22        2955.75           2225         106.00       451.62
 1089.25        2956.00           2229         104.00       442.90
 1089.28        2956.25           2232         132.00       564.96
 1089.31        2956.50           2236         103.00       438.54
 1089.34        2956.75           2239         161.00       691.39
 1089.37        2957.00           2243         125.00       534.45
 1089.40        2957.25           2246         128.00       547.53
 1089.43        2957.50           2250         118.00       503.93
 1089.46        2957.75           2254         126.00       538.81
 1089.50        2958.00           2257         108.00       460.34
 1089.53        2958.25           2261         131.00       560.60
 1089.56        2958.50           2264         124.00       530.09
 1089.59        2958.75           2268         130.00       556.24
 1089.62        2959.00           2271         112.00       477.78
 1089.65        2959.25           2275         130.00       556.24
 1089.68        2959.50           2278         142.00       608.56
 1089.71        2959.75           2282         131.00       560.60
 1089.74        2960.00           2285         126.00       538.81
 1089.77        2960.25           2289         142.00       608.56
 1089.80        2960.50           2293         141.00       604.20
 1089.83        2960.75           2296         157.00       673.95
 1089.86        2961.00           2300         165.00       708.82
 1089.89        2961.25           2303         296.00      1279.92
 1089.92        2961.50           2307        1030.00      4480.19
 1089.95        2961.75           2310        2311.00     10067.09
 1089.98        2962.00           2314        4387.00     19125.77
 1090.01        2962.25           2317        5945.00     25927.82
 1090.05        2962.50           2321        7930.00     34598.66
 1090.08        2962.75           2324        9348.00     40795.87
 1090.11        2963.00           2328       11294.00     49304.90
 1090.14        2963.25           2331       12888.00     56278.47
 1090.17        2963.50           2335       15141.00     66140.72
 1090.20        2963.75           2339       17537.00     76636.21
 1090.23        2964.00           2342       19189.00     83877.05
 1090.26        2964.25           2346       21532.00     94152.71
 1090.29        2964.50           2349       23203.00    101485.60
 1090.32        2964.75           2353       25442.00    111316.80
 1090.35        2965.00           2356       26956.00    117968.30
 1090.38        2965.25           2360       28669.00    125497.70
 1090.41        2965.50           2363       30241.00    132410.80
 1090.44        2965.75           2367       32555.00    142592.90
 1090.47        2966.00           2370       34171.00    149707.80
 1090.50        2966.25           2374       36211.00    158694.40
 1090.53        2966.50           2378       37148.00    162823.90
 1090.57        2966.75           2381       37564.00    164657.70
 1090.60        2967.00           2385       37782.00    165618.80
 1090.63        2967.25           2388       37617.00    164891.40
 1090.66        2967.50           2392       37662.00    165089.70
 1090.69        2967.75           2395       37397.00    163921.50
 1090.72        2968.00           2399       36370.00    159395.10
 1090.75        2968.25           2402       34834.00    152627.90
 1090.78        2968.50           2406       32983.00    144476.90
 1090.81        2968.75           2409       31350.00    137289.70
 1090.84        2969.00           2413       29374.00    128597.70
 1090.87        2969.25           2417       27206.00    119066.90
 1090.90        2969.50           2420       25311.00    110741.40
 1090.93        2969.75           2424       23033.00    100739.40
 1090.96        2970.00           2427       21467.00     93867.54
 1090.99        2970.25           2431       19084.00     83416.71
 1091.02        2970.50           2434       17585.00     76846.55
 1091.05        2970.75           2438       15396.00     67257.38
 1091.09        2971.00           2441       13676.00     59727.10
 1091.12        2971.25           2445       11438.00     49934.75
 1091.15        2971.50           2449        9302.00     40594.79
 1091.18        2971.75           2452        7680.00     33506.33
 1091.21        2972.00           2456        5592.00     24386.39
 1091.24        2972.25           2459        4105.00     17894.93
 1091.27        2972.50           2463        2083.00      9072.55
 1091.30        2972.75           2466         970.00      4218.57
 1091.33        2973.00           2470         267.00      1153.49
 1091.36        2973.25           2473         188.00       809.09
 1091.39        2973.50           2477         161.00       691.39
 1091.42        2973.75           2481         161.00       691.39
 1091.45        2974.00           2484         158.00       678.31
 1091.48        2974.25           2488         146.00       625.99
 1091.51        2974.50           2491         132.00       564.96
 1091.54        2974.75           2495         138.00       591.12
 1091.57        2975.00           2498         149.00       639.07
 1091.61        2975.25           2502         142.00       608.56
 1091.64        2975.50           2505         117.00       499.57
 1091.67        2975.75           2509         174.00       748.06
 1091.70        2976.00           2512         112.00       477.78
 1091.73        2976.25           2516         151.00       647.79
 1091.76        2976.50           2520         149.00       639.07
 1091.79        2976.75           2523         130.00       556.24
 1091.82        2977.00           2527         127.00       543.17
 1091.85        2977.25           2530         132.00       564.96
 1091.88        2977.50           2534         132.00       564.96
 1091.91        2977.75           2537         129.00       551.88
 1091.94        2978.00           2541         123.00       525.73
 1091.97        2978.25           2544         113.00       482.14
 1092.00        2978.50           2548          98.00       416.75
 1092.03        2978.75           2552         105.00       447.26
 1092.06        2979.00           2555         101.00       429.82
 1092.09        2979.25           2559         128.00       547.53
 1092.13        2979.50           2562         102.00       434.18
 1092.16        2979.75           2566          99.00       421.10
 1092.19        2980.00           2569         131.00       560.60
 1092.22        2980.25           2573         113.00       482.14
 1092.25        2980.50           2577         104.00       442.90
 1092.28        2980.75           2580         100.00       425.46
 1092.31        2981.00           2584          91.00       386.23
 1092.34        2981.25           2587          90.00       381.87
 1092.37        2981.50           2591          88.00       373.15
 1092.40        2981.75           2594         103.00       438.54
 1092.43        2982.00           2598         104.00       442.90
 1092.46        2982.25           2601          87.00       368.79
 1092.49        2982.50           2605          95.00       403.67
 1092.52        2982.75           2609          92.00       390.59
 1092.55        2983.00           2612          92.00       390.59
 1092.58        2983.25           2616          93.00       394.95
 1092.61        2983.50           2619          89.00       377.51
 1092.65        2983.75           2623         105.00       447.26
 1092.68        2984.00           2626          98.00       416.75
HS scan finished at 18:12:54
end
