************************************************************
  HS Scan of (1) Internal mercury lamp
************************************************************
Integration time is 0.2294 seconds per sample
dh101018Reading 51.44 .94 3.11pr1000
************************************************************
Dead Time -------------------------  3.4E-08 
Number of Cycles Used -------------  4 
Starting Wavelength (Angstroms) ---  2950 
Final Wavelength (Angstoms) -------  2984 
Wavelength Increment (Angstroms) --  .25 
Filter Wheel #1 Position ---------- (1) Ground quartz diffuser (ND=2.32)
Filter Wheel #2 Position ---------- (1) Neutral Density 0.494



************************************************************
HS scan start time = 03:33:27
Dark Count =  .8 


Time (GMT)  Wavelength (Ang)  Step Number  Raw Counts  Counts/Second

  214.35        2950.00           2144          78.00       336.53
  214.54        2950.25           2147          64.00       275.50
  214.57        2950.50           2151          58.00       249.35
  214.60        2950.75           2155          52.00       223.19
  214.63        2951.00           2158          55.00       236.27
  214.66        2951.25           2162          59.00       253.71
  214.69        2951.50           2165          85.00       367.05
  214.72        2951.75           2169          67.00       288.58
  214.75        2952.00           2172          60.00       258.07
  214.78        2952.25           2176          55.00       236.27
  214.81        2952.50           2179          61.00       262.43
  214.85        2952.75           2183          56.00       240.63
  214.88        2953.00           2186          63.00       271.14
  214.91        2953.25           2190          80.00       345.25
  214.94        2953.50           2193          66.00       284.22
  214.97        2953.75           2197          63.00       271.14
  215.00        2954.00           2200          60.00       258.07
  215.03        2954.25           2204          63.00       271.14
  215.06        2954.50           2208          69.00       297.30
  215.09        2954.75           2211          63.00       271.14
  215.12        2955.00           2215          98.00       423.72
  215.15        2955.25           2218          69.00       297.30
  215.18        2955.50           2222          63.00       271.14
  215.21        2955.75           2225          63.00       271.14
  215.24        2956.00           2229          67.00       288.58
  215.27        2956.25           2232          66.00       284.22
  215.30        2956.50           2236          98.00       423.72
  215.33        2956.75           2239          69.00       297.30
  215.36        2957.00           2243          74.00       319.10
  215.40        2957.25           2246          67.00       288.58
  215.43        2957.50           2250         107.00       462.95
  215.46        2957.75           2254          76.00       327.82
  215.49        2958.00           2257          63.00       271.14
  215.52        2958.25           2261         110.00       476.03
  215.55        2958.50           2264          76.00       327.82
  215.58        2958.75           2268          72.00       310.38
  215.61        2959.00           2271          66.00       284.22
  215.64        2959.25           2275         125.00       541.42
  215.67        2959.50           2278         117.00       506.55
  215.70        2959.75           2282         114.00       493.47
  215.73        2960.00           2285         116.00       502.19
  215.76        2960.25           2289         149.00       646.05
  215.79        2960.50           2293         125.00       541.42
  215.82        2960.75           2296         131.00       567.58
  215.85        2961.00           2300         150.00       650.41
  215.88        2961.25           2303         275.00      1195.34
  215.92        2961.50           2307        1085.00      4727.00
  215.95        2961.75           2310        2215.00      9655.31
  215.98        2962.00           2314        3948.00     17216.70
  216.01        2962.25           2317        5360.00     23380.39
  216.04        2962.50           2321        7275.00     31743.93
  216.07        2962.75           2324        8837.00     38569.29
  216.10        2963.00           2328       10938.00     47754.90
  216.13        2963.25           2331       12174.00     53161.39
  216.16        2963.50           2335       14272.00     62343.00
  216.19        2963.75           2339       16270.00     71092.30
  216.22        2964.00           2342       18230.00     79680.27
  216.25        2964.25           2346       20006.00     87466.35
  216.28        2964.50           2349       21585.00     94392.25
  216.31        2964.75           2353       23460.00    102620.70
  216.34        2965.00           2356       24751.00    108289.00
  216.37        2965.25           2360       26835.00    117443.60
  216.40        2965.50           2363       28215.00    123508.80
  216.44        2965.75           2367       30131.00    131934.00
  216.47        2966.00           2370       31230.00    136768.80
  216.50        2966.25           2374       33090.00    144955.00
  216.53        2966.50           2378       34127.00    149521.10
  216.56        2966.75           2381       34020.00    149049.90
  216.59        2967.00           2385       34079.00    149309.70
  216.62        2967.25           2388       29556.00    129405.10
  216.65        2967.50           2392       20641.00     90251.22
  216.68        2967.75           2395       20082.00     87799.62
  216.71        2968.00           2399       19020.00     83143.16
  216.74        2968.25           2402       19180.00     83844.61
  216.77        2968.50           2406       17743.00     77545.94
  216.80        2968.75           2409       23280.00    101830.60
  216.83        2969.00           2413       16938.00     74018.65
  216.86        2969.25           2417       15473.00     67601.59
  216.89        2969.50           2420       14415.00     62969.03
  216.92        2969.75           2424       13157.00     57462.64
  216.96        2970.00           2427       11995.00     52378.29
  216.99        2970.25           2431       10685.00     46648.47
  217.02        2970.50           2434        9694.00     42315.42
  217.05        2970.75           2438        8641.00     37712.67
  217.08        2971.00           2441        7703.00     33613.81
  217.11        2971.25           2445        6351.00     27707.87
  217.14        2971.50           2449        5106.00     22271.44
  217.17        2971.75           2452        4229.00     18443.13
  217.20        2972.00           2456        3084.00     13446.43
  217.23        2972.25           2459        2832.00     12346.94
  217.26        2972.50           2463        1197.00      5215.40
  217.29        2972.75           2466         591.00      2573.02
  217.32        2973.00           2470         180.00       781.19
  217.35        2973.25           2473         105.00       454.24
  217.38        2973.50           2477          91.00       393.20
  217.41        2973.75           2481          92.00       397.56
  217.44        2974.00           2484          92.00       397.56
  217.48        2974.25           2488          89.00       384.49
  217.51        2974.50           2491          78.00       336.53
  217.54        2974.75           2495          73.00       314.74
  217.57        2975.00           2498          75.00       323.46
  217.60        2975.25           2502          70.00       301.66
  217.63        2975.50           2505          83.00       358.33
  217.66        2975.75           2509          84.00       362.69
  217.69        2976.00           2512          79.00       340.89
  217.72        2976.25           2516          73.00       314.74
  217.75        2976.50           2520          71.00       306.02
  217.78        2976.75           2523          70.00       301.66
  217.81        2977.00           2527          87.00       375.77
  217.84        2977.25           2530          73.00       314.74
  217.87        2977.50           2534          80.00       345.25
  217.90        2977.75           2537          72.00       310.38
  217.93        2978.00           2541          71.00       306.02
  217.96        2978.25           2544          71.00       306.02
  218.00        2978.50           2548          68.00       292.94
  218.03        2978.75           2552          71.00       306.02
  218.06        2979.00           2555          76.00       327.82
  218.09        2979.25           2559          68.00       292.94
  218.12        2979.50           2562          70.00       301.66
  218.15        2979.75           2566          65.00       279.86
  218.18        2980.00           2569          66.00       284.22
  218.21        2980.25           2573          59.00       253.71
  218.24        2980.50           2577          82.00       353.97
  218.27        2980.75           2580          69.00       297.30
  218.30        2981.00           2584          65.00       279.86
  218.33        2981.25           2587          62.00       266.79
  218.36        2981.50           2591          59.00       253.71
  218.39        2981.75           2594          57.00       244.99
  218.42        2982.00           2598          61.00       262.43
  218.45        2982.25           2601          80.00       345.25
  218.48        2982.50           2605          61.00       262.43
  218.52        2982.75           2609          57.00       244.99
  218.55        2983.00           2612          59.00       253.71
  218.58        2983.25           2616          64.00       275.50
  218.61        2983.50           2619          55.00       236.27
  218.64        2983.75           2623          74.00       319.10
  218.67        2984.00           2626          56.00       240.63
HS scan finished at 03:38:53
end
************************************************************
  HS Scan of (1) Internal mercury lamp
************************************************************
Integration time is 0.2294 seconds per sample
dh101018Reading 51.44 .94 3.74pr1000
************************************************************
Dead Time -------------------------  3.4E-08 
Number of Cycles Used -------------  4 
Starting Wavelength (Angstroms) ---  2950 
Final Wavelength (Angstoms) -------  2984 
Wavelength Increment (Angstroms) --  .25 
Filter Wheel #1 Position ---------- (1) Ground quartz diffuser (ND=2.32)
Filter Wheel #2 Position ---------- (1) Neutral Density 0.494



************************************************************
HS scan start time = 18:07:25
Dark Count =  5.5 


Time (GMT)  Wavelength (Ang)  Step Number  Raw Counts  Counts/Second

 1088.31        2950.00           2144          31.00       111.16
 1088.50        2950.25           2147          31.00       111.16
 1088.53        2950.50           2151          36.00       132.96
 1088.56        2950.75           2155          34.00       124.24
 1088.59        2951.00           2158          34.00       124.24
 1088.62        2951.25           2162          38.00       141.67
 1088.65        2951.50           2165          31.00       111.16
 1088.69        2951.75           2169          35.00       128.60
 1088.72        2952.00           2172          28.00        98.08
 1088.75        2952.25           2176          35.00       128.60
 1088.78        2952.50           2179          35.00       128.60
 1088.81        2952.75           2183          36.00       132.96
 1088.84        2953.00           2186          37.00       137.32
 1088.87        2953.25           2190          34.00       124.24
 1088.90        2953.50           2193          38.00       141.67
 1088.93        2953.75           2197          34.00       124.24
 1088.96        2954.00           2200          30.00       106.80
 1088.99        2954.25           2204          38.00       141.67
 1089.02        2954.50           2208          34.00       124.24
 1089.05        2954.75           2211          39.00       146.03
 1089.08        2955.00           2215          36.00       132.96
 1089.11        2955.25           2218          38.00       141.67
 1089.14        2955.50           2222          43.00       163.47
 1089.17        2955.75           2225          42.00       159.11
 1089.21        2956.00           2229          41.00       154.75
 1089.24        2956.25           2232          33.00       119.88
 1089.27        2956.50           2236          36.00       132.96
 1089.30        2956.75           2239          40.00       150.39
 1089.33        2957.00           2243          34.00       124.24
 1089.36        2957.25           2246          43.00       163.47
 1089.39        2957.50           2250          39.00       146.03
 1089.42        2957.75           2254          39.00       146.03
 1089.45        2958.00           2257          39.00       146.03
 1089.48        2958.25           2261          45.00       172.19
 1089.51        2958.50           2264          41.00       154.75
 1089.54        2958.75           2268          34.00       124.24
 1089.57        2959.00           2271          44.00       167.83
 1089.60        2959.25           2275          35.00       128.60
 1089.63        2959.50           2278          45.00       172.19
 1089.66        2959.75           2282          41.00       154.75
 1089.69        2960.00           2285          44.00       167.83
 1089.73        2960.25           2289          51.00       198.34
 1089.76        2960.50           2293          44.00       167.83
 1089.79        2960.75           2296          39.00       146.03
 1089.82        2961.00           2300          48.00       185.27
 1089.85        2961.25           2303          59.00       233.22
 1089.88        2961.50           2307         195.00       826.09
 1089.91        2961.75           2310         480.00      2068.59
 1089.94        2962.00           2314         923.00      4000.11
 1089.97        2962.25           2317        1294.00      5617.90
 1090.00        2962.50           2321        1748.00      7597.86
 1090.03        2962.75           2324        2128.00      9255.31
 1090.06        2963.00           2328        2747.00     11955.60
 1090.09        2963.25           2331        3092.00     13460.82
 1090.12        2963.50           2335        4052.00     17650.08
 1090.15        2963.75           2339        4525.00     19714.61
 1090.18        2964.00           2342        4902.00     21360.32
 1090.21        2964.25           2346        5359.00     23355.51
 1090.25        2964.50           2349        5966.00     26005.99
 1090.28        2964.75           2353        6346.00     27665.51
 1090.31        2965.00           2356        6896.00     30067.78
 1090.34        2965.25           2360        7347.00     32037.93
 1090.37        2965.50           2363        7723.00     33680.66
 1090.40        2965.75           2367        9574.00     41770.27
 1090.43        2966.00           2370        9825.00     42867.58
 1090.46        2966.25           2374       10290.00     44900.67
 1090.49        2966.50           2378       10581.00     46173.14
 1090.52        2966.75           2381       10661.00     46522.96
 1090.55        2967.00           2385       10559.00     46076.93
 1090.58        2967.25           2388       10409.00     45421.01
 1090.61        2967.50           2392       10182.00     44428.44
 1090.64        2967.75           2395       10054.00     43868.79
 1090.67        2968.00           2399        9779.00     42666.48
 1090.70        2968.25           2402        9507.00     41477.37
 1090.73        2968.50           2406        8607.00     37543.54
 1090.76        2968.75           2409        8076.00     35223.06
 1090.80        2969.00           2413        7463.00     32544.71
 1090.83        2969.25           2417        7046.00     30723.01
 1090.86        2969.50           2420        6464.00     28180.87
 1090.89        2969.75           2424        5990.00     26110.79
 1090.92        2970.00           2427        5658.00     24661.04
 1090.95        2970.25           2431        5316.00     23167.76
 1090.98        2970.50           2434        4689.00     20430.49
 1091.01        2970.75           2438        4074.00     17746.10
 1091.04        2971.00           2441        3607.00     15708.04
 1091.07        2971.25           2445        2977.00     12959.07
 1091.10        2971.50           2449        2364.00     10284.76
 1091.13        2971.75           2452        2033.00      8840.93
 1091.16        2972.00           2456        1511.00      6564.24
 1091.19        2972.25           2459        1105.00      4793.72
 1091.22        2972.50           2463         570.00      2460.97
 1091.25        2972.75           2466         318.00      1362.31
 1091.29        2973.00           2470         140.00       586.32
 1091.32        2973.25           2473          55.00       215.78
 1091.35        2973.50           2477          56.00       220.14
 1091.38        2973.75           2481          43.00       163.47
 1091.41        2974.00           2484          51.00       198.34
 1091.44        2974.25           2488          48.00       185.27
 1091.47        2974.50           2491          49.00       189.63
 1091.50        2974.75           2495          40.00       150.39
 1091.53        2975.00           2498          44.00       167.83
 1091.56        2975.25           2502          44.00       167.83
 1091.59        2975.50           2505          37.00       137.32
 1091.62        2975.75           2509          35.00       128.60
 1091.65        2976.00           2512          40.00       150.39
 1091.68        2976.25           2516          41.00       154.75
 1091.71        2976.50           2520          36.00       132.96
 1091.74        2976.75           2523          39.00       146.03
 1091.77        2977.00           2527          38.00       141.67
 1091.81        2977.25           2530          38.00       141.67
 1091.84        2977.50           2534          39.00       146.03
 1091.87        2977.75           2537          46.00       176.55
 1091.90        2978.00           2541          39.00       146.03
 1091.93        2978.25           2544          39.00       146.03
 1091.96        2978.50           2548          33.00       119.88
 1091.99        2978.75           2552          42.00       159.11
 1092.02        2979.00           2555          41.00       154.75
 1092.05        2979.25           2559          38.00       141.67
 1092.08        2979.50           2562          42.00       159.11
 1092.11        2979.75           2566          37.00       137.32
 1092.14        2980.00           2569          34.00       124.24
 1092.17        2980.25           2573          40.00       150.39
 1092.20        2980.50           2577          34.00       124.24
 1092.23        2980.75           2580          33.00       119.88
 1092.26        2981.00           2584          32.00       115.52
 1092.29        2981.25           2587          36.00       132.96
 1092.32        2981.50           2591          33.00       119.88
 1092.36        2981.75           2594          33.00       119.88
 1092.39        2982.00           2598          41.00       154.75
 1092.42        2982.25           2601          35.00       128.60
 1092.45        2982.50           2605          29.00       102.44
 1092.48        2982.75           2609          37.00       137.32
 1092.51        2983.00           2612          33.00       119.88
 1092.54        2983.25           2616          32.00       115.52
 1092.57        2983.50           2619          32.00       115.52
 1092.60        2983.75           2623          35.00       128.60
 1092.63        2984.00           2626          33.00       119.88
HS scan finished at 18:12:51
end
