************************************************************
  HS Scan of (1) Internal mercury lamp
************************************************************
Integration time is 0.2294 seconds per sample
dh131018Reading 51.44 .94 3.52pr1000
************************************************************
Dead Time -------------------------  3.4E-08 
Number of Cycles Used -------------  4 
Starting Wavelength (Angstroms) ---  2950 
Final Wavelength (Angstoms) -------  2984 
Wavelength Increment (Angstroms) --  .25 
Filter Wheel #1 Position ---------- (1) Ground quartz diffuser (ND=2.32)
Filter Wheel #2 Position ---------- (1) Neutral Density 0.494



************************************************************
HS scan start time = 03:39:37
Dark Count =  3.1 


Time (GMT)  Wavelength (Ang)  Step Number  Raw Counts  Counts/Second

  220.52        2950.00           2144        1242.00      5401.60
  220.72        2950.25           2147        1253.00      5449.57
  220.75        2950.50           2151        1242.00      5401.60
  220.78        2950.75           2155        1250.00      5436.49
  220.81        2951.00           2158        1249.00      5432.13
  220.84        2951.25           2162        1273.00      5536.79
  220.87        2951.50           2165        1289.00      5606.56
  220.90        2951.75           2169        1252.00      5445.21
  220.93        2952.00           2172        1289.00      5606.56
  220.96        2952.25           2176        1299.00      5650.17
  220.99        2952.50           2179        1293.00      5624.01
  221.02        2952.75           2183        1257.00      5467.01
  221.05        2953.00           2186        1268.00      5514.98
  221.08        2953.25           2190        1288.00      5602.20
  221.11        2953.50           2193        1301.00      5658.89
  221.14        2953.75           2197        1325.00      5763.55
  221.17        2954.00           2200        1289.00      5606.56
  221.21        2954.25           2204        1306.00      5680.70
  221.24        2954.50           2208        1339.00      5824.61
  221.27        2954.75           2211        1332.00      5794.08
  221.30        2955.00           2215        1296.00      5637.09
  221.33        2955.25           2218        1348.00      5863.85
  221.36        2955.50           2222        1371.00      5964.16
  221.39        2955.75           2225        1354.00      5890.02
  221.42        2956.00           2229        1421.00      6182.21
  221.45        2956.25           2232        1403.00      6103.71
  221.48        2956.50           2236        1370.00      5959.80
  221.51        2956.75           2239        1409.00      6129.87
  221.54        2957.00           2243        1453.00      6321.76
  221.57        2957.25           2246        1438.00      6256.34
  221.60        2957.50           2250        1459.00      6347.93
  221.63        2957.75           2254        1469.00      6391.54
  221.66        2958.00           2257        1500.00      6526.73
  221.69        2958.25           2261        1524.00      6631.40
  221.73        2958.50           2264        1501.00      6531.09
  221.76        2958.75           2268        1512.00      6579.07
  221.79        2959.00           2271        1541.00      6705.54
  221.82        2959.25           2275        1535.00      6679.37
  221.85        2959.50           2278        1572.00      6840.74
  221.88        2959.75           2282        1626.00      7076.24
  221.91        2960.00           2285        1584.00      6893.07
  221.94        2960.25           2289        1644.00      7154.75
  221.97        2960.50           2293        1690.00      7355.37
  222.00        2960.75           2296        1764.00      7678.12
  222.03        2961.00           2300        1929.00      8397.78
  222.06        2961.25           2303        2727.00     11878.82
  222.09        2961.50           2307        9869.00     43070.44
  222.12        2961.75           2310       21184.00     92622.97
  222.15        2962.00           2314       39558.00    173447.50
  222.18        2962.25           2317       54133.00    237879.10
  222.21        2962.50           2321       76608.00    337793.30
  222.24        2962.75           2324       95350.00    421637.30
  222.28        2963.00           2328      121710.00    540382.30
  222.31        2963.25           2331      141285.00    629192.90
  222.34        2963.50           2335      164322.00    734409.80
  222.37        2963.75           2339      185164.00    830262.80
  222.40        2964.00           2342      203428.00    914783.80
  222.43        2964.25           2346      228574.00   1031966.00
  222.46        2964.50           2349      246975.00   1118323.00
  222.49        2964.75           2353      270425.00   1229130.00
  222.52        2965.00           2356      286427.00   1305236.00
  222.55        2965.25           2360      306416.00   1400874.00
  222.58        2965.50           2363      321870.00   1475253.00
  222.61        2965.75           2367      343678.00   1580875.00
  222.64        2966.00           2370      361148.00   1666054.00
  222.67        2966.25           2374      380939.00   1763167.00
  222.70        2966.50           2378      393923.00   1827240.00
  222.73        2966.75           2381      396733.00   1841145.00
  222.76        2967.00           2385      398838.00   1851570.00
  222.80        2967.25           2388      398894.00   1851847.00
  222.83        2967.50           2392      398084.00   1847835.00
  222.86        2967.75           2395      397793.00   1846393.00
  222.89        2968.00           2399      393384.00   1824574.00
  222.92        2968.25           2402      382005.00   1768417.00
  222.95        2968.50           2406      362102.00   1670720.00
  222.98        2968.75           2409      346045.00   1592387.00
  223.01        2969.00           2413      325759.00   1494032.00
  223.04        2969.25           2417      306030.00   1399021.00
  223.07        2969.50           2420      288574.00   1315478.00
  223.10        2969.75           2424      263580.00   1196698.00
  223.13        2970.00           2427      245844.00   1113001.00
  223.16        2970.25           2431      220402.00    993779.90
  223.19        2970.50           2434      202484.00    910403.10
  223.22        2970.75           2438      177027.00    792765.00
  223.25        2971.00           2441      157832.00    704690.80
  223.28        2971.25           2445      134138.00    596704.60
  223.32        2971.50           2449      108223.00    479506.10
  223.35        2971.75           2452       88801.00    392285.10
  223.38        2972.00           2456       64918.00    285739.50
  223.41        2972.25           2459       48230.00    211749.60
  223.44        2972.50           2463       27529.00    120483.40
  223.47        2972.75           2466       14755.00     64447.52
  223.50        2973.00           2470        4978.00     21702.58
  223.53        2973.25           2473        2620.00     11412.01
  223.56        2973.50           2477        1866.00      8122.99
  223.59        2973.75           2481        1762.00      7669.39
  223.62        2974.00           2484        1749.00      7612.70
  223.65        2974.25           2488        1701.00      7403.35
  223.68        2974.50           2491        1651.00      7185.28
  223.71        2974.75           2495        1643.00      7150.39
  223.74        2975.00           2498        1605.00      6984.66
  223.77        2975.25           2502        1586.00      6901.79
  223.80        2975.50           2505        1603.00      6975.94
  223.84        2975.75           2509        1523.00      6627.04
  223.87        2976.00           2512        1509.00      6565.98
  223.90        2976.25           2516        1497.00      6513.65
  223.93        2976.50           2520        1496.00      6509.29
  223.96        2976.75           2523        1493.00      6496.20
  224.00        2977.00           2527        1406.00      6116.79
  224.03        2977.25           2530        1410.00      6134.24
  224.06        2977.50           2534        1400.00      6090.62
  224.09        2977.75           2537        1361.00      5920.55
  224.12        2978.00           2541        1384.00      6020.85
  224.15        2978.25           2544        1368.00      5951.07
  224.18        2978.50           2548        1336.00      5811.52
  224.21        2978.75           2552        1306.00      5680.70
  224.24        2979.00           2555        1304.00      5671.97
  224.27        2979.25           2559        1318.00      5733.03
  224.30        2979.50           2562        1318.00      5733.03
  224.33        2979.75           2566        1307.00      5685.06
  224.36        2980.00           2569        1295.00      5632.73
  224.39        2980.25           2573        1241.00      5397.24
  224.42        2980.50           2577        1257.00      5467.01
  224.45        2980.75           2580        1248.00      5427.77
  224.48        2981.00           2584        1255.00      5458.29
  224.51        2981.25           2587        1257.00      5467.01
  224.55        2981.50           2591        1267.00      5510.62
  224.58        2981.75           2594        1302.00      5663.25
  224.61        2982.00           2598        1230.00      5349.27
  224.64        2982.25           2601        1226.00      5331.83
  224.67        2982.50           2605        1252.00      5445.21
  224.70        2982.75           2609        1243.00      5405.96
  224.73        2983.00           2612        1213.00      5275.14
  224.76        2983.25           2616        1246.00      5419.05
  224.79        2983.50           2619        1193.00      5187.93
  224.82        2983.75           2623        1180.00      5131.24
  224.85        2984.00           2626        1205.00      5240.25
HS scan finished at 03:45:04
end
************************************************************
  HS Scan of (1) Internal mercury lamp
************************************************************
Integration time is 0.2294 seconds per sample
dh131018Reading 51.44 .94 3.78pr1000
************************************************************
Dead Time -------------------------  3.4E-08 
Number of Cycles Used -------------  4 
Starting Wavelength (Angstroms) ---  2950 
Final Wavelength (Angstoms) -------  2984 
Wavelength Increment (Angstroms) --  .25 
Filter Wheel #1 Position ---------- (1) Ground quartz diffuser (ND=2.32)
Filter Wheel #2 Position ---------- (1) Neutral Density 0.494



************************************************************
HS scan start time = 18:07:29
Dark Count =  4.8 


Time (GMT)  Wavelength (Ang)  Step Number  Raw Counts  Counts/Second

 1088.38        2950.00           2144        1083.00      4700.84
 1088.57        2950.25           2147        1074.00      4661.59
 1088.60        2950.50           2151        1097.00      4761.89
 1088.64        2950.75           2155        1114.00      4836.02
 1088.67        2951.00           2158        1131.00      4910.15
 1088.70        2951.25           2162        1151.00      4997.36
 1088.73        2951.50           2165        1144.00      4966.84
 1088.76        2951.75           2169        1136.00      4931.95
 1088.79        2952.00           2172        1138.00      4940.67
 1088.82        2952.25           2176        1123.00      4875.26
 1088.85        2952.50           2179        1161.00      5040.97
 1088.88        2952.75           2183        1147.00      4979.92
 1088.91        2953.00           2186        1162.00      5045.33
 1088.94        2953.25           2190        1134.00      4923.23
 1088.97        2953.50           2193        1175.00      5102.02
 1089.00        2953.75           2197        1195.00      5189.23
 1089.03        2954.00           2200        1192.00      5176.15
 1089.06        2954.25           2204        1200.00      5211.04
 1089.09        2954.50           2208        1204.00      5228.48
 1089.12        2954.75           2211        1193.00      5180.51
 1089.16        2955.00           2215        1214.00      5272.09
 1089.19        2955.25           2218        1209.00      5250.28
 1089.22        2955.50           2222        1197.00      5197.95
 1089.25        2955.75           2225        1214.00      5272.09
 1089.28        2956.00           2229        1234.00      5359.30
 1089.31        2956.25           2232        1250.00      5429.08
 1089.34        2956.50           2236        1243.00      5398.55
 1089.37        2956.75           2239        1257.00      5459.60
 1089.40        2957.00           2243        1266.00      5498.85
 1089.43        2957.25           2246        1274.00      5533.73
 1089.46        2957.50           2250        1278.00      5551.18
 1089.49        2957.75           2254        1275.00      5538.10
 1089.52        2958.00           2257        1318.00      5725.61
 1089.55        2958.25           2261        1333.00      5791.03
 1089.58        2958.50           2264        1355.00      5886.97
 1089.61        2958.75           2268        1382.00      6004.71
 1089.64        2959.00           2271        1356.00      5891.33
 1089.68        2959.25           2275        1421.00      6174.79
 1089.71        2959.50           2278        1418.00      6161.71
 1089.74        2959.75           2282        1414.00      6144.27
 1089.77        2960.00           2285        1447.00      6288.18
 1089.80        2960.25           2289        1456.00      6327.43
 1089.83        2960.50           2293        1534.00      6667.60
 1089.86        2960.75           2296        1534.00      6667.60
 1089.89        2961.00           2300        1619.00      7038.30
 1089.92        2961.25           2303        1803.00      7840.80
 1089.95        2961.50           2307        4219.00     18382.02
 1089.98        2961.75           2310       10833.00     47278.21
 1090.01        2962.00           2314       24622.00    107704.90
 1090.04        2962.25           2317       38239.00    167623.10
 1090.07        2962.50           2321       60005.00    263910.20
 1090.10        2962.75           2324       75541.00    333026.90
 1090.13        2963.00           2328       98230.00    434556.50
 1090.16        2963.25           2331      113774.00    504523.20
 1090.20        2963.50           2335      135525.00    602996.00
 1090.23        2963.75           2339      156723.00    699610.80
 1090.26        2964.00           2342      174294.00    780184.50
 1090.29        2964.25           2346      197154.00    885685.80
 1090.32        2964.50           2349      214295.00    965300.60
 1090.35        2964.75           2353      236806.00   1070528.00
 1090.38        2965.00           2356      255413.00   1158089.00
 1090.41        2965.25           2360      278225.00   1266168.00
 1090.44        2965.50           2363      294804.00   1345230.00
 1090.47        2965.75           2367      314363.00   1439066.00
 1090.50        2966.00           2370      327643.00   1503129.00
 1090.54        2966.25           2374      347030.00   1597171.00
 1090.57        2966.50           2378      361111.00   1665865.00
 1090.60        2966.75           2381      365383.00   1686771.00
 1090.63        2967.00           2385      367069.00   1695030.00
 1090.66        2967.25           2388      368606.00   1702564.00
 1090.69        2967.50           2392      368129.00   1700225.00
 1090.72        2967.75           2395      366671.00   1693080.00
 1090.75        2968.00           2399      364015.00   1680073.00
 1090.78        2968.25           2402      354606.00   1634089.00
 1090.81        2968.50           2406      335795.00   1542597.00
 1090.84        2968.75           2409      321073.00   1471399.00
 1090.87        2969.00           2413      301008.00   1374928.00
 1090.91        2969.25           2417      281207.00   1280357.00
 1090.94        2969.50           2420      267236.00   1214003.00
 1090.97        2969.75           2424      248009.00   1123183.00
 1091.00        2970.00           2427      232338.00   1049581.00
 1091.03        2970.25           2431      208111.00    936527.20
 1091.06        2970.50           2434      190936.00    856913.00
 1091.09        2970.75           2438      167427.00    748641.90
 1091.12        2971.00           2441      150954.00    673253.60
 1091.15        2971.25           2445      128737.00    572193.40
 1091.18        2971.50           2449      106956.00    473792.70
 1091.21        2971.75           2452       88642.00    391565.60
 1091.24        2972.00           2456       67620.00    297747.10
 1091.27        2972.25           2459       52408.00    230231.10
 1091.30        2972.50           2463       31249.00    136834.80
 1091.33        2972.75           2466       17150.00     74929.97
 1091.36        2973.00           2470        5767.00     25140.05
 1091.39        2973.25           2473        2830.00     12320.77
 1091.43        2973.50           2477        1771.00      7701.23
 1091.46        2973.75           2481        1654.00      7190.95
 1091.50        2974.00           2484        1573.00      6837.68
 1091.53        2974.25           2488        1551.00      6741.74
 1091.56        2974.50           2491        1503.00      6532.40
 1091.59        2974.75           2495        1484.00      6449.54
 1091.62        2975.00           2498        1454.00      6318.71
 1091.65        2975.25           2502        1439.00      6253.29
 1091.69        2975.50           2505        1418.00      6161.71
 1091.72        2975.75           2509        1428.00      6205.32
 1091.75        2976.00           2512        1381.00      6000.35
 1091.78        2976.25           2516        1349.00      5860.80
 1091.81        2976.50           2520        1337.00      5808.47
 1091.84        2976.75           2523        1365.00      5930.58
 1091.87        2977.00           2527        1300.00      5647.12
 1091.90        2977.25           2530        1265.00      5494.49
 1091.93        2977.50           2534        1275.00      5538.10
 1091.97        2977.75           2537        1284.00      5577.34
 1092.00        2978.00           2541        1234.00      5359.30
 1092.03        2978.25           2544        1279.00      5555.54
 1092.06        2978.50           2548        1235.00      5363.66
 1092.09        2978.75           2552        1224.00      5315.69
 1092.12        2979.00           2555        1187.00      5154.35
 1092.15        2979.25           2559        1177.00      5110.74
 1092.18        2979.50           2562        1179.00      5119.46
 1092.21        2979.75           2566        1191.00      5171.79
 1092.24        2980.00           2569        1152.00      5001.72
 1092.27        2980.25           2573        1178.00      5115.10
 1092.30        2980.50           2577        1156.00      5019.17
 1092.33        2980.75           2580        1160.00      5036.61
 1092.36        2981.00           2584        1129.00      4901.43
 1092.39        2981.25           2587        1122.00      4870.90
 1092.42        2981.50           2591        1133.00      4918.87
 1092.45        2981.75           2594        1146.00      4975.56
 1092.48        2982.00           2598        1106.00      4801.13
 1092.52        2982.25           2601        1098.00      4766.25
 1092.55        2982.50           2605        1119.00      4857.82
 1092.58        2982.75           2609        1088.00      4722.64
 1092.61        2983.00           2612        1111.00      4822.94
 1092.64        2983.25           2616        1084.00      4705.20
 1092.67        2983.50           2619        1108.00      4809.85
 1092.70        2983.75           2623        1073.00      4657.23
 1092.73        2984.00           2626        1091.00      4735.72
HS scan finished at 18:12:57
end
