************************************************************
  HS Scan of (1) Internal mercury lamp
************************************************************
Integration time is 0.2294 seconds per sample
dh071017Reading 51.44 .94 3.09pr1000
************************************************************
Dead Time -------------------------  3.4E-08 
Number of Cycles Used -------------  4 
Starting Wavelength (Angstroms) ---  2950 
Final Wavelength (Angstoms) -------  2984 
Wavelength Increment (Angstroms) --  .25 
Filter Wheel #1 Position ---------- (1) Ground quartz diffuser (ND=2.32)
Filter Wheel #2 Position ---------- (1) Neutral Density 0.494



************************************************************
HS scan start time = 03:27:32
Dark Count =  1.1 


Time (GMT)  Wavelength (Ang)  Step Number  Raw Counts  Counts/Second

  208.42        2950.00           2144         120.00       518.32
  208.62        2950.25           2147         123.00       531.40
  208.65        2950.50           2151         118.00       509.60
  208.68        2950.75           2155          90.00       387.54
  208.71        2951.00           2158          89.00       383.18
  208.74        2951.25           2162          93.00       400.62
  208.77        2951.50           2165          97.00       418.05
  208.80        2951.75           2169          92.00       396.26
  208.83        2952.00           2172         100.00       431.13
  208.86        2952.25           2176         132.00       570.63
  208.89        2952.50           2179          97.00       418.05
  208.92        2952.75           2183         111.00       479.08
  208.95        2953.00           2186          93.00       400.62
  208.98        2953.25           2190          95.00       409.33
  209.02        2953.50           2193         134.00       579.35
  209.05        2953.75           2197         120.00       518.32
  209.08        2954.00           2200         125.00       540.11
  209.11        2954.25           2204         110.00       474.72
  209.14        2954.50           2208         103.00       444.21
  209.17        2954.75           2211         105.00       452.93
  209.20        2955.00           2215         123.00       531.40
  209.23        2955.25           2218         132.00       570.63
  209.26        2955.50           2222         132.00       570.63
  209.29        2955.75           2225         140.00       605.51
  209.32        2956.00           2229         121.00       522.68
  209.35        2956.25           2232         126.00       544.47
  209.38        2956.50           2236         114.00       492.16
  209.41        2956.75           2239         112.00       483.44
  209.44        2957.00           2243         125.00       540.11
  209.47        2957.25           2246         115.00       496.52
  209.50        2957.50           2250         167.00       723.21
  209.54        2957.75           2254         136.00       588.07
  209.57        2958.00           2257         156.00       675.26
  209.60        2958.25           2261         145.00       627.30
  209.63        2958.50           2264         143.00       618.58
  209.66        2958.75           2268         148.00       640.38
  209.69        2959.00           2271         135.00       583.71
  209.72        2959.25           2275         143.00       618.58
  209.75        2959.50           2278         148.00       640.38
  209.79        2959.75           2282         184.00       797.32
  209.82        2960.00           2285         154.00       666.54
  209.85        2960.25           2289         148.00       640.38
  209.88        2960.50           2293         169.00       731.93
  209.91        2960.75           2296         166.00       718.85
  209.94        2961.00           2300         194.00       840.91
  209.97        2961.25           2303         310.00      1346.62
  210.00        2961.50           2307        1089.00      4743.14
  210.03        2961.75           2310        2327.00     10142.56
  210.06        2962.00           2314        4654.00     20296.91
  210.09        2962.25           2317        6462.00     28191.35
  210.12        2962.50           2321        9107.00     39748.10
  210.15        2962.75           2324       10847.00     47355.61
  210.18        2963.00           2328       13185.00     57583.87
  210.21        2963.25           2331       15056.00     65774.22
  210.25        2963.50           2335       17695.00     77334.30
  210.28        2963.75           2339       20358.00     89008.72
  210.31        2964.00           2342       22645.00     99042.21
  210.34        2964.25           2346       25223.00    110360.60
  210.37        2964.50           2349       27262.00    119318.70
  210.40        2964.75           2353       30007.00    131387.30
  210.43        2965.00           2356       32109.00    140635.60
  210.46        2965.25           2360       34670.00    151911.20
  210.49        2965.50           2363       36361.00    159361.10
  210.52        2965.75           2367       38918.00    170633.50
  210.55        2966.00           2370       40884.00    179306.50
  210.58        2966.25           2374       43071.00    188960.30
  210.61        2966.50           2378       44090.00    193460.60
  210.64        2966.75           2381       44569.00    195576.50
  210.67        2967.00           2385       44769.00    196460.00
  210.70        2967.25           2388       44853.00    196831.20
  210.73        2967.50           2392       44634.00    195863.60
  210.77        2967.75           2395       44375.00    194719.50
  210.80        2968.00           2399       43494.00    190828.30
  210.83        2968.25           2402       41833.00    183494.80
  210.86        2968.50           2406       39733.00    174228.30
  210.89        2968.75           2409       37985.00    166519.40
  210.92        2969.00           2413       35168.00    154104.80
  210.95        2969.25           2417       32687.00    143179.60
  210.98        2969.50           2420       31045.00    135953.50
  211.01        2969.75           2424       28559.00    125019.80
  211.04        2970.00           2427       27111.00    118655.10
  211.07        2970.25           2431       24234.00    106017.50
  211.10        2970.50           2434       22243.00     97278.06
  211.13        2970.75           2438       19393.00     84777.14
  211.16        2971.00           2441       17224.00     75270.43
  211.19        2971.25           2445       14597.00     63764.51
  211.22        2971.50           2449       11963.00     52236.99
  211.25        2971.75           2452       10137.00     44250.92
  211.29        2972.00           2456        7824.00     34141.18
  211.32        2972.25           2459        6120.00     26697.72
  211.35        2972.50           2463        3575.00     15587.60
  211.38        2972.75           2466        1805.00      7865.66
  211.41        2973.00           2470         433.00      1882.86
  211.44        2973.25           2473         251.00      1089.40
  211.47        2973.50           2477         192.00       832.19
  211.50        2973.75           2481         188.00       814.76
  211.53        2974.00           2484         185.00       801.68
  211.56        2974.25           2488         174.00       753.72
  211.59        2974.50           2491         160.00       692.69
  211.62        2974.75           2495         164.00       710.13
  211.65        2975.00           2498         158.00       683.97
  211.68        2975.25           2502         168.00       727.57
  211.71        2975.50           2505         153.00       662.18
  211.74        2975.75           2509         155.00       670.90
  211.77        2976.00           2512         155.00       670.90
  211.81        2976.25           2516         154.00       666.54
  211.84        2976.50           2520         150.00       649.10
  211.87        2976.75           2523         138.00       596.79
  211.90        2977.00           2527         143.00       618.58
  211.93        2977.25           2530         139.00       601.15
  211.96        2977.50           2534         129.00       557.55
  211.99        2977.75           2537         152.00       657.82
  212.02        2978.00           2541         136.00       588.07
  212.05        2978.25           2544         149.00       644.74
  212.08        2978.50           2548         180.00       779.88
  212.11        2978.75           2552         129.00       557.55
  212.14        2979.00           2555         153.00       662.18
  212.17        2979.25           2559         139.00       601.15
  212.20        2979.50           2562         125.00       540.11
  212.23        2979.75           2566         115.00       496.52
  212.26        2980.00           2569         124.00       535.76
  212.29        2980.25           2573         140.00       605.51
  212.32        2980.50           2577         130.00       561.91
  212.36        2980.75           2580         121.00       522.68
  212.39        2981.00           2584         126.00       544.47
  212.42        2981.25           2587         108.00       466.01
  212.45        2981.50           2591         129.00       557.55
  212.48        2981.75           2594         130.00       561.91
  212.51        2982.00           2598         112.00       483.44
  212.54        2982.25           2601         119.00       513.96
  212.57        2982.50           2605         123.00       531.40
  212.60        2982.75           2609         143.00       618.58
  212.63        2983.00           2612         112.00       483.44
  212.66        2983.25           2616         125.00       540.11
  212.69        2983.50           2619         120.00       518.32
  212.72        2983.75           2623         110.00       474.72
  212.75        2984.00           2626         119.00       513.96
HS scan finished at 03:32:58
end
************************************************************
  HS Scan of (1) Internal mercury lamp
************************************************************
Integration time is 0.2294 seconds per sample
dh071017Reading 51.44 .94 3.39pr1000
************************************************************
Dead Time -------------------------  3.4E-08 
Number of Cycles Used -------------  4 
Starting Wavelength (Angstroms) ---  2950 
Final Wavelength (Angstoms) -------  2984 
Wavelength Increment (Angstroms) --  .25 
Filter Wheel #1 Position ---------- (1) Ground quartz diffuser (ND=2.32)
Filter Wheel #2 Position ---------- (1) Neutral Density 0.494



************************************************************
HS scan start time = 18:37:28
Dark Count =  1.9 


Time (GMT)  Wavelength (Ang)  Step Number  Raw Counts  Counts/Second

 1118.37        2950.00           2144          78.00       331.74
 1118.56        2950.25           2147          79.00       336.10
 1118.59        2950.50           2151          90.00       384.05
 1118.62        2950.75           2155         108.00       462.52
 1118.65        2951.00           2158          94.00       401.49
 1118.68        2951.25           2162          83.00       353.54
 1118.72        2951.50           2165          74.00       314.30
 1118.75        2951.75           2169          84.00       357.89
 1118.78        2952.00           2172          76.00       323.02
 1118.81        2952.25           2176          78.00       331.74
 1118.84        2952.50           2179          83.00       353.54
 1118.87        2952.75           2183          87.00       370.97
 1118.90        2953.00           2186          92.00       392.77
 1118.94        2953.25           2190          90.00       384.05
 1118.97        2953.50           2193          90.00       384.05
 1119.00        2953.75           2197          90.00       384.05
 1119.03        2954.00           2200          95.00       405.85
 1119.06        2954.25           2204         104.00       445.08
 1119.09        2954.50           2208          95.00       405.85
 1119.12        2954.75           2211          96.00       410.21
 1119.15        2955.00           2215         101.00       432.00
 1119.18        2955.25           2218          89.00       379.69
 1119.21        2955.50           2222         121.00       519.19
 1119.24        2955.75           2225         107.00       458.16
 1119.27        2956.00           2229          99.00       423.28
 1119.30        2956.25           2232          94.00       401.49
 1119.33        2956.50           2236         102.00       436.36
 1119.36        2956.75           2239         106.00       453.80
 1119.39        2957.00           2243         107.00       458.16
 1119.43        2957.25           2246         130.00       558.42
 1119.46        2957.50           2250          96.00       410.21
 1119.49        2957.75           2254         114.00       488.67
 1119.52        2958.00           2257         134.00       575.86
 1119.55        2958.25           2261         114.00       488.67
 1119.58        2958.50           2264         128.00       549.71
 1119.61        2958.75           2268         131.00       562.78
 1119.64        2959.00           2271         116.00       497.39
 1119.67        2959.25           2275         151.00       649.97
 1119.70        2959.50           2278         118.00       506.11
 1119.73        2959.75           2282         127.00       545.35
 1119.76        2960.00           2285         147.00       632.53
 1119.79        2960.25           2289         132.00       567.14
 1119.82        2960.50           2293         137.00       588.94
 1119.85        2960.75           2296         151.00       649.97
 1119.88        2961.00           2300         164.00       706.64
 1119.91        2961.25           2303         339.00      1469.56
 1119.94        2961.50           2307        1373.00      5978.11
 1119.98        2961.75           2310        2673.00     11648.47
 1120.01        2962.00           2314        4479.00     19529.53
 1120.04        2962.25           2317        5815.00     25362.32
 1120.07        2962.50           2321        7703.00     33609.01
 1120.10        2962.75           2324        9343.00     40776.20
 1120.13        2963.00           2328       11490.00     50164.39
 1120.16        2963.25           2331       13258.00     57899.83
 1120.19        2963.50           2335       15415.00     67342.77
 1120.22        2963.75           2339       17453.00     76270.32
 1120.25        2964.00           2342       19339.00     84536.88
 1120.28        2964.25           2346       21426.00     93689.86
 1120.31        2964.50           2349       22851.00     99942.78
 1120.34        2964.75           2353       25130.00    109948.60
 1120.37        2965.00           2356       26653.00    116639.10
 1120.40        2965.25           2360       28706.00    125662.60
 1120.43        2965.50           2363       30143.00    131982.00
 1120.46        2965.75           2367       32029.00    140279.90
 1120.50        2966.00           2370       33252.00    145663.40
 1120.53        2966.25           2374       35206.00    154268.70
 1120.56        2966.50           2378       36659.00    160670.90
 1120.59        2966.75           2381       36993.00    162142.90
 1120.62        2967.00           2385       37000.00    162173.80
 1120.65        2967.25           2388       36644.00    160604.80
 1120.68        2967.50           2392       37023.00    162275.20
 1120.71        2967.75           2395       36996.00    162156.20
 1120.74        2968.00           2399       35821.00    156978.20
 1120.77        2968.25           2402       34511.00    151207.40
 1120.80        2968.50           2406       32683.00    143158.50
 1120.83        2968.75           2409       31079.00    136099.60
 1120.86        2969.00           2413       28848.00    126286.90
 1120.89        2969.25           2417       26800.00    117285.00
 1120.92        2969.50           2420       25166.00    110106.70
 1120.95        2969.75           2424       23127.00    101154.20
 1120.99        2970.00           2427       21503.00     94027.68
 1121.02        2970.25           2431       19115.00     83554.82
 1121.05        2970.50           2434       17533.00     76620.88
 1121.08        2970.75           2438       15059.00     65783.85
 1121.11        2971.00           2441       13506.00     58985.22
 1121.14        2971.25           2445       11511.00     50256.25
 1121.17        2971.50           2449        9162.00     39985.01
 1121.20        2971.75           2452        7432.00     32425.01
 1121.23        2972.00           2456        5325.00     23222.78
 1121.26        2972.25           2459        3938.00     17168.26
 1121.29        2972.50           2463        2000.00      8712.69
 1121.32        2972.75           2466        1029.00      4478.01
 1121.35        2973.00           2470         291.00      1260.30
 1121.38        2973.25           2473         181.00       780.75
 1121.41        2973.50           2477         162.00       697.92
 1121.44        2973.75           2481         169.00       728.44
 1121.47        2974.00           2484         149.00       641.25
 1121.51        2974.25           2488         136.00       584.58
 1121.54        2974.50           2491         121.00       519.19
 1121.57        2974.75           2495         126.00       540.99
 1121.60        2975.00           2498         121.00       519.19
 1121.63        2975.25           2502         124.00       532.27
 1121.66        2975.50           2505         129.00       554.06
 1121.69        2975.75           2509         126.00       540.99
 1121.72        2976.00           2512         154.00       663.05
 1121.75        2976.25           2516         146.00       628.17
 1121.78        2976.50           2520         110.00       471.24
 1121.81        2976.75           2523         128.00       549.71
 1121.84        2977.00           2527         115.00       493.03
 1121.87        2977.25           2530         107.00       458.16
 1121.90        2977.50           2534         105.00       449.44
 1121.93        2977.75           2537         107.00       458.16
 1121.96        2978.00           2541         113.00       484.31
 1121.99        2978.25           2544         114.00       488.67
 1122.03        2978.50           2548         104.00       445.08
 1122.06        2978.75           2552         104.00       445.08
 1122.09        2979.00           2555         107.00       458.16
 1122.12        2979.25           2559          94.00       401.49
 1122.15        2979.50           2562         115.00       493.03
 1122.18        2979.75           2566         141.00       606.38
 1122.21        2980.00           2569         100.00       427.64
 1122.24        2980.25           2573         103.00       440.72
 1122.27        2980.50           2577          98.00       418.92
 1122.30        2980.75           2580          91.00       388.41
 1122.33        2981.00           2584          94.00       401.49
 1122.36        2981.25           2587         112.00       479.96
 1122.39        2981.50           2591          97.00       414.57
 1122.42        2981.75           2594          92.00       392.77
 1122.45        2982.00           2598          96.00       410.21
 1122.48        2982.25           2601          92.00       392.77
 1122.51        2982.50           2605          93.00       397.13
 1122.55        2982.75           2609          92.00       392.77
 1122.58        2983.00           2612          94.00       401.49
 1122.61        2983.25           2616          87.00       370.97
 1122.64        2983.50           2619          90.00       384.05
 1122.67        2983.75           2623          89.00       379.69
 1122.70        2984.00           2626         108.00       462.52
HS scan finished at 18:42:55
end
