************************************************************
  HS Scan of (1) Internal mercury lamp
************************************************************
Integration time is 0.2294 seconds per sample
dh121018Reading 51.44 .94 3.13pr1000
************************************************************
Dead Time -------------------------  3.4E-08 
Number of Cycles Used -------------  4 
Starting Wavelength (Angstroms) ---  2950 
Final Wavelength (Angstoms) -------  2984 
Wavelength Increment (Angstroms) --  .25 
Filter Wheel #1 Position ---------- (1) Ground quartz diffuser (ND=2.32)
Filter Wheel #2 Position ---------- (1) Neutral Density 0.494



************************************************************
HS scan start time = 03:37:36
Dark Count =  1.1 


Time (GMT)  Wavelength (Ang)  Step Number  Raw Counts  Counts/Second

  218.51        2950.00           2144        1432.00      6238.90
  218.70        2950.25           2147        1400.00      6099.35
  218.73        2950.50           2151        1378.00      6003.41
  218.76        2950.75           2155        1402.00      6108.07
  218.79        2951.00           2158        1418.00      6177.85
  218.82        2951.25           2162        1412.00      6151.68
  218.85        2951.50           2165        1400.00      6099.35
  218.88        2951.75           2169        1448.00      6308.68
  218.91        2952.00           2172        1431.00      6234.54
  218.94        2952.25           2176        1442.00      6282.51
  218.97        2952.50           2179        1412.00      6151.68
  219.00        2952.75           2183        1438.00      6265.07
  219.04        2953.00           2186        1460.00      6361.01
  219.07        2953.25           2190        1439.00      6269.43
  219.10        2953.50           2193        1442.00      6282.51
  219.13        2953.75           2197        1454.00      6334.84
  219.16        2954.00           2200        1462.00      6369.73
  219.19        2954.25           2204        1476.00      6430.79
  219.22        2954.50           2208        1446.00      6299.95
  219.25        2954.75           2211        1456.00      6343.57
  219.28        2955.00           2215        1492.00      6500.57
  219.31        2955.25           2218        1482.00      6456.95
  219.34        2955.50           2222        1531.00      6670.65
  219.37        2955.75           2225        1530.00      6666.29
  219.40        2956.00           2229        1522.00      6631.40
  219.43        2956.25           2232        1558.00      6788.40
  219.46        2956.50           2236        1571.00      6845.10
  219.49        2956.75           2239        1577.00      6871.27
  219.52        2957.00           2243        1584.00      6901.79
  219.56        2957.25           2246        1579.00      6879.99
  219.59        2957.50           2250        1596.00      6954.13
  219.62        2957.75           2254        1610.00      7015.19
  219.65        2958.00           2257        1647.00      7176.56
  219.68        2958.25           2261        1637.00      7132.94
  219.71        2958.50           2264        1654.00      7207.08
  219.74        2958.75           2268        1638.00      7137.30
  219.77        2959.00           2271        1640.00      7146.03
  219.80        2959.25           2275        1753.00      7638.86
  219.83        2959.50           2278        1740.00      7582.16
  219.86        2959.75           2282        1777.00      7743.54
  219.89        2960.00           2285        1746.00      7608.33
  219.92        2960.25           2289        1804.00      7861.30
  219.95        2960.50           2293        1858.00      8096.82
  219.98        2960.75           2296        1893.00      8249.48
  220.01        2961.00           2300        1979.00      8624.59
  220.04        2961.25           2303        2311.00     10072.76
  220.08        2961.50           2307        5845.00     25496.81
  220.11        2961.75           2310       15285.00     66776.99
  220.14        2962.00           2314       35629.00    156135.70
  220.17        2962.25           2317       52016.00    228511.80
  220.20        2962.50           2321       72388.00    318989.80
  220.23        2962.75           2324       87656.00    387168.20
  220.26        2963.00           2328      110331.00    489013.20
  220.29        2963.25           2331      129530.00    575805.30
  220.32        2963.50           2335      154127.00    687761.40
  220.35        2963.75           2339      178421.00    799191.40
  220.38        2964.00           2342      195810.00    879478.90
  220.41        2964.25           2346      219210.00    988227.60
  220.44        2964.50           2349      237035.00   1071620.00
  220.47        2964.75           2353      258036.00   1170492.00
  220.50        2965.00           2356      274075.00   1246464.00
  220.53        2965.25           2360      298097.00   1361004.00
  220.56        2965.50           2363      315218.00   1443200.00
  220.59        2965.75           2367      336382.00   1545462.00
  220.63        2966.00           2370      351343.00   1618195.00
  220.66        2966.25           2374      370141.00   1710110.00
  220.69        2966.50           2378      382616.00   1771436.00
  220.72        2966.75           2381      387420.00   1795123.00
  220.75        2967.00           2385      389323.00   1804517.00
  220.78        2967.25           2388      389266.00   1804235.00
  220.81        2967.50           2392      389583.00   1805801.00
  220.84        2967.75           2395      388338.00   1799654.00
  220.87        2968.00           2399      382578.00   1771249.00
  220.90        2968.25           2402      372993.00   1724107.00
  220.93        2968.50           2406      354759.00   1634854.00
  220.96        2968.75           2409      339562.00   1560890.00
  220.99        2969.00           2413      320815.00   1470173.00
  221.02        2969.25           2417      300662.00   1373288.00
  221.05        2969.50           2420      284563.00   1296360.00
  221.08        2969.75           2424      261099.00   1184970.00
  221.11        2970.00           2427      244067.00   1104651.00
  221.15        2970.25           2431      220730.00    995320.00
  221.18        2970.50           2434      202344.00    909762.80
  221.21        2970.75           2438      177253.00    793814.50
  221.24        2971.00           2441      160057.00    714881.80
  221.27        2971.25           2445      137723.00    613001.00
  221.30        2971.50           2449      116732.00    517892.60
  221.33        2971.75           2452       99346.00    439585.30
  221.36        2972.00           2456       75813.00    334256.30
  221.39        2972.25           2459       58281.00    256277.00
  221.42        2972.50           2463       35915.00    157395.90
  221.45        2972.75           2466       20489.00     89583.25
  221.48        2973.00           2470        7014.00     30602.45
  221.51        2973.25           2473        3288.00     14335.23
  221.54        2973.50           2477        2067.00      9008.43
  221.57        2973.75           2481        1901.00      8284.37
  221.60        2974.00           2484        1889.00      8232.03
  221.63        2974.25           2488        1831.00      7979.06
  221.67        2974.50           2491        1793.00      7813.32
  221.70        2974.75           2495        1776.00      7739.18
  221.73        2975.00           2498        1735.00      7560.36
  221.76        2975.25           2502        1664.00      7250.70
  221.79        2975.50           2505        1691.00      7368.45
  221.82        2975.75           2509        1717.00      7481.85
  221.85        2976.00           2512        1656.00      7215.81
  221.88        2976.25           2516        1622.00      7067.52
  221.91        2976.50           2520        1573.00      6853.82
  221.94        2976.75           2523        1557.00      6784.04
  221.97        2977.00           2527        1564.00      6814.57
  222.00        2977.25           2530        1560.00      6797.12
  222.03        2977.50           2534        1544.00      6727.35
  222.06        2977.75           2537        1507.00      6565.98
  222.09        2978.00           2541        1476.00      6430.79
  222.12        2978.25           2544        1545.00      6731.71
  222.15        2978.50           2548        1515.00      6600.87
  222.19        2978.75           2552        1453.00      6330.48
  222.22        2979.00           2555        1449.00      6313.04
  222.25        2979.25           2559        1458.00      6352.29
  222.28        2979.50           2562        1429.00      6225.82
  222.31        2979.75           2566        1431.00      6234.54
  222.34        2980.00           2569        1439.00      6269.43
  222.37        2980.25           2573        1441.00      6278.15
  222.40        2980.50           2577        1419.00      6182.21
  222.43        2980.75           2580        1376.00      5994.68
  222.46        2981.00           2584        1391.00      6060.10
  222.50        2981.25           2587        1378.00      6003.41
  222.53        2981.50           2591        1344.00      5855.13
  222.56        2981.75           2594        1363.00      5937.99
  222.59        2982.00           2598        1346.00      5863.85
  222.62        2982.25           2601        1393.00      6068.82
  222.65        2982.50           2605        1379.00      6007.77
  222.68        2982.75           2609        1333.00      5807.16
  222.71        2983.00           2612        1346.00      5863.85
  222.74        2983.25           2616        1330.00      5794.08
  222.77        2983.50           2619        1327.00      5781.00
  222.80        2983.75           2623        1336.00      5820.25
  222.83        2984.00           2626        1311.00      5711.22
HS scan finished at 03:43:03
end
************************************************************
  HS Scan of (1) Internal mercury lamp
************************************************************
Integration time is 0.2294 seconds per sample
dh121018Reading 51.44 .94 3.68pr1000
************************************************************
Dead Time -------------------------  3.4E-08 
Number of Cycles Used -------------  4 
Starting Wavelength (Angstroms) ---  2950 
Final Wavelength (Angstoms) -------  2984 
Wavelength Increment (Angstroms) --  .25 
Filter Wheel #1 Position ---------- (1) Ground quartz diffuser (ND=2.32)
Filter Wheel #2 Position ---------- (1) Neutral Density 0.494



************************************************************
HS scan start time = 18:07:26
Dark Count =  4.2 


Time (GMT)  Wavelength (Ang)  Step Number  Raw Counts  Counts/Second

 1088.34        2950.00           2144         915.00      3970.89
 1088.53        2950.25           2147         904.00      3922.93
 1088.56        2950.50           2151         925.00      4014.50
 1088.59        2950.75           2155         902.00      3914.21
 1088.62        2951.00           2158         882.00      3827.00
 1088.65        2951.25           2162         920.00      3992.70
 1088.68        2951.50           2165         900.00      3905.49
 1088.72        2951.75           2169         907.00      3936.01
 1088.76        2952.00           2172         917.00      3979.61
 1088.79        2952.25           2176         926.00      4018.86
 1088.82        2952.50           2179         929.00      4031.94
 1088.85        2952.75           2183         923.00      4005.78
 1088.88        2953.00           2186         947.00      4110.43
 1088.91        2953.25           2190         944.00      4097.35
 1088.94        2953.50           2193         955.00      4145.31
 1088.97        2953.75           2197         952.00      4132.23
 1089.00        2954.00           2200         957.00      4154.03
 1089.03        2954.25           2204         934.00      4053.74
 1089.06        2954.50           2208         948.00      4114.79
 1089.09        2954.75           2211         971.00      4215.08
 1089.13        2955.00           2215         963.00      4180.19
 1089.16        2955.25           2218         972.00      4219.44
 1089.19        2955.50           2222         955.00      4145.31
 1089.22        2955.75           2225         985.00      4276.12
 1089.25        2956.00           2229         959.00      4162.75
 1089.28        2956.25           2232        1013.00      4398.22
 1089.31        2956.50           2236        1008.00      4376.41
 1089.34        2956.75           2239        1016.00      4411.30
 1089.37        2957.00           2243        1025.00      4450.54
 1089.40        2957.25           2246        1035.00      4494.15
 1089.43        2957.50           2250        1018.00      4420.02
 1089.46        2957.75           2254        1040.00      4515.95
 1089.49        2958.00           2257        1031.00      4476.71
 1089.52        2958.25           2261        1089.00      4729.62
 1089.55        2958.50           2264        1092.00      4742.70
 1089.58        2958.75           2268        1107.00      4808.11
 1089.61        2959.00           2271        1084.00      4707.82
 1089.65        2959.25           2275        1130.00      4908.40
 1089.68        2959.50           2278        1113.00      4834.27
 1089.71        2959.75           2282        1158.00      5030.50
 1089.74        2960.00           2285        1195.00      5191.85
 1089.77        2960.25           2289        1189.00      5165.68
 1089.80        2960.50           2293        1223.00      5313.95
 1089.83        2960.75           2296        1238.00      5379.36
 1089.86        2961.00           2300        1296.00      5632.29
 1089.89        2961.25           2303        1542.00      6705.10
 1089.92        2961.50           2307        4319.00     18821.11
 1089.95        2961.75           2310       10678.00     46602.99
 1089.98        2962.00           2314       22491.00     98352.75
 1090.01        2962.25           2317       32676.00    143117.60
 1090.04        2962.50           2321       48490.00    212894.70
 1090.07        2962.75           2324       62149.00    273431.70
 1090.10        2963.00           2328       81471.00    359497.30
 1090.13        2963.25           2331       94794.00    419138.10
 1090.17        2963.50           2335      114606.00    508280.40
 1090.20        2963.75           2339      131172.00    583238.10
 1090.23        2964.00           2342      142749.00    635851.70
 1090.26        2964.25           2346      159760.00    713508.10
 1090.29        2964.50           2349      173465.00    776375.60
 1090.32        2964.75           2353      191699.00    860443.20
 1090.35        2965.00           2356      204758.00    920952.80
 1090.38        2965.25           2360      220054.00    992150.80
 1090.41        2965.50           2363      231562.00   1045949.00
 1090.44        2965.75           2367      247435.00   1120483.00
 1090.47        2966.00           2370      259160.00   1175789.00
 1090.50        2966.25           2374      275290.00   1252220.00
 1090.53        2966.50           2378      288387.00   1314580.00
 1090.56        2966.75           2381      292427.00   1333871.00
 1090.59        2967.00           2385      294101.00   1341872.00
 1090.62        2967.25           2388      294882.00   1345606.00
 1090.65        2967.50           2392      294077.00   1341757.00
 1090.69        2967.75           2395      294046.00   1341609.00
 1090.72        2968.00           2399      292119.00   1332399.00
 1090.75        2968.25           2402      286316.00   1304701.00
 1090.78        2968.50           2406      272958.00   1241145.00
 1090.81        2968.75           2409      261407.00   1186412.00
 1090.84        2969.00           2413      244515.00   1106743.00
 1090.87        2969.25           2417      227990.00   1029229.00
 1090.90        2969.50           2420      216564.00    975875.10
 1090.93        2969.75           2424      200369.00    900587.90
 1090.96        2970.00           2427      187383.00    840500.20
 1090.99        2970.25           2431      168973.00    755740.00
 1091.02        2970.50           2434      155216.00    692723.80
 1091.05        2970.75           2438      136905.00    609269.00
 1091.08        2971.00           2441      123818.00    549915.20
 1091.11        2971.25           2445      106496.00    471724.30
 1091.14        2971.50           2449       87337.00    385726.70
 1091.17        2971.75           2452       72464.00    319314.60
 1091.21        2972.00           2456       53895.00    236819.90
 1091.24        2972.25           2459       41616.00    182523.30
 1091.27        2972.50           2463       25848.00    113092.30
 1091.30        2972.75           2466       14404.00     62905.98
 1091.33        2973.00           2470        4745.00     20680.62
 1091.36        2973.25           2473        2287.00      9954.55
 1091.39        2973.50           2477        1393.00      6055.30
 1091.42        2973.75           2481        1276.00      5545.07
 1091.45        2974.00           2484        1276.00      5545.07
 1091.48        2974.25           2488        1222.00      5309.59
 1091.51        2974.50           2491        1239.00      5383.72
 1091.54        2974.75           2495        1154.00      5013.06
 1091.57        2975.00           2498        1142.00      4960.73
 1091.60        2975.25           2502        1175.00      5104.64
 1091.63        2975.50           2505        1130.00      4908.40
 1091.66        2975.75           2509        1128.00      4899.68
 1091.69        2976.00           2512        1101.00      4781.95
 1091.73        2976.25           2516        1113.00      4834.27
 1091.76        2976.50           2520        1088.00      4725.26
 1091.79        2976.75           2523        1039.00      4511.59
 1091.82        2977.00           2527        1021.00      4433.10
 1091.85        2977.25           2530        1011.00      4389.50
 1091.88        2977.50           2534        1012.00      4393.86
 1091.91        2977.75           2537        1034.00      4489.79
 1091.94        2978.00           2541        1012.00      4393.86
 1091.97        2978.25           2544         989.00      4293.57
 1092.00        2978.50           2548         981.00      4258.68
 1092.03        2978.75           2552         968.00      4202.00
 1092.06        2979.00           2555         983.00      4267.40
 1092.09        2979.25           2559         968.00      4202.00
 1092.12        2979.50           2562         965.00      4188.91
 1092.15        2979.75           2566         945.00      4101.71
 1092.18        2980.00           2569         959.00      4162.75
 1092.21        2980.25           2573         909.00      3944.73
 1092.25        2980.50           2577         964.00      4184.55
 1092.28        2980.75           2580         928.00      4027.58
 1092.31        2981.00           2584         934.00      4053.74
 1092.34        2981.25           2587         895.00      3883.69
 1092.37        2981.50           2591         921.00      3997.06
 1092.40        2981.75           2594         922.00      4001.42
 1092.43        2982.00           2598         885.00      3840.08
 1092.46        2982.25           2601         936.00      4062.46
 1092.49        2982.50           2605         882.00      3827.00
 1092.52        2982.75           2609         886.00      3844.44
 1092.55        2983.00           2612         926.00      4018.86
 1092.58        2983.25           2616         870.00      3774.68
 1092.61        2983.50           2619         860.00      3731.07
 1092.64        2983.75           2623         864.00      3748.52
 1092.67        2984.00           2626         890.00      3861.88
HS scan finished at 18:12:54
end
