************************************************************
  HS Scan of (1) Internal mercury lamp
************************************************************
Integration time is 0.2294 seconds per sample
dh131017Reading 51.44 .94 3.25pr1000
************************************************************
Dead Time -------------------------  3.4E-08 
Number of Cycles Used -------------  4 
Starting Wavelength (Angstroms) ---  2950 
Final Wavelength (Angstoms) -------  2984 
Wavelength Increment (Angstroms) --  .25 
Filter Wheel #1 Position ---------- (1) Ground quartz diffuser (ND=2.32)
Filter Wheel #2 Position ---------- (1) Neutral Density 0.494



************************************************************
HS scan start time = 03:40:07
Dark Count =  1.6 


Time (GMT)  Wavelength (Ang)  Step Number  Raw Counts  Counts/Second

  221.02        2950.00           2144         120.00       516.14
  221.21        2950.25           2147         132.00       568.45
  221.24        2950.50           2151         106.00       455.11
  221.27        2950.75           2155         107.00       459.47
  221.31        2951.00           2158         109.00       468.19
  221.34        2951.25           2162         102.00       437.67
  221.37        2951.50           2165         103.00       442.03
  221.40        2951.75           2169         104.00       446.39
  221.43        2952.00           2172         128.00       551.01
  221.46        2952.25           2176         109.00       468.19
  221.49        2952.50           2179         149.00       642.56
  221.52        2952.75           2183         145.00       625.12
  221.55        2953.00           2186         120.00       516.14
  221.58        2953.25           2190         116.00       498.70
  221.61        2953.50           2193         110.00       472.54
  221.64        2953.75           2197         139.00       598.97
  221.67        2954.00           2200         113.00       485.62
  221.70        2954.25           2204         137.00       590.25
  221.73        2954.50           2208         111.00       476.90
  221.76        2954.75           2211         130.00       559.73
  221.79        2955.00           2215         127.00       546.65
  221.82        2955.25           2218         119.00       511.78
  221.86        2955.50           2222         143.00       616.40
  221.89        2955.75           2225         149.00       642.56
  221.92        2956.00           2229         177.00       764.62
  221.95        2956.25           2232         159.00       686.15
  221.98        2956.50           2236         123.00       529.22
  222.01        2956.75           2239         161.00       694.87
  222.04        2957.00           2243         131.00       564.09
  222.07        2957.25           2246         127.00       546.65
  222.10        2957.50           2250         133.00       572.81
  222.13        2957.75           2254         159.00       686.15
  222.16        2958.00           2257         168.00       725.39
  222.19        2958.25           2261         148.00       638.20
  222.22        2958.50           2264         161.00       694.87
  222.25        2958.75           2268         152.00       655.64
  222.28        2959.00           2271         145.00       625.12
  222.31        2959.25           2275         149.00       642.56
  222.34        2959.50           2278         151.00       651.28
  222.38        2959.75           2282         160.00       690.51
  222.41        2960.00           2285         149.00       642.56
  222.44        2960.25           2289         167.00       721.03
  222.47        2960.50           2293         159.00       686.15
  222.50        2960.75           2296         176.00       760.26
  222.53        2961.00           2300         210.00       908.48
  222.56        2961.25           2303         425.00      1845.80
  222.59        2961.50           2307        1623.00      7069.70
  222.62        2961.75           2310        3140.00     13687.28
  222.65        2962.00           2314        5459.00     23809.15
  222.68        2962.25           2317        7395.00     32264.67
  222.71        2962.50           2321        9533.00     41608.09
  222.74        2962.75           2324       11210.00     48941.01
  222.77        2963.00           2328       13671.00     59708.72
  222.80        2963.25           2331       15712.00     68644.78
  222.83        2963.50           2335       18696.00     81719.34
  222.86        2963.75           2339       21391.00     93537.64
  222.90        2964.00           2342       23391.00    102314.30
  222.93        2964.25           2346       25827.00    113011.40
  222.96        2964.50           2349       27746.00    121443.80
  222.99        2964.75           2353       30434.00    133263.30
  223.02        2965.00           2356       32349.00    141689.70
  223.05        2965.25           2360       34798.00    152472.80
  223.08        2965.50           2363       36685.00    160786.80
  223.11        2965.75           2367       39027.00    171112.10
  223.14        2966.00           2370       40524.00    177715.70
  223.17        2966.25           2374       42790.00    187717.40
  223.20        2966.50           2378       43800.00    192177.50
  223.23        2966.75           2381       44058.00    193317.00
  223.26        2967.00           2385       44099.00    193498.10
  223.29        2967.25           2388       44308.00    194421.30
  223.32        2967.50           2392       44047.00    193268.40
  223.35        2967.75           2395       43875.00    192508.70
  223.38        2968.00           2399       42509.00    186476.70
  223.42        2968.25           2402       40880.00    179286.60
  223.45        2968.50           2406       38584.00    169158.40
  223.48        2968.75           2409       36357.00    159341.30
  223.51        2969.00           2413       34015.00    149024.30
  223.54        2969.25           2417       31842.00    139458.30
  223.57        2969.50           2420       29800.00    130474.70
  223.60        2969.75           2424       27383.00    119848.30
  223.63        2970.00           2427       25569.00    111878.10
  223.66        2970.25           2431       22990.00    100554.20
  223.69        2970.50           2434       21043.00     92011.03
  223.72        2970.75           2438       18142.00     79291.06
  223.75        2971.00           2441       16155.00     70585.06
  223.78        2971.25           2445       13600.00     59397.96
  223.81        2971.50           2449       11079.00     48368.07
  223.84        2971.75           2452        9385.00     40961.11
  223.87        2972.00           2456        7159.00     31233.68
  223.91        2972.25           2459        5262.00     22949.02
  223.94        2972.50           2463        2753.00     11998.79
  223.97        2972.75           2466        1273.00      5543.33
  224.00        2973.00           2470         403.00      1749.89
  224.03        2973.25           2473         225.00       973.88
  224.06        2973.50           2477         187.00       808.22
  224.09        2973.75           2481         170.00       734.11
  224.12        2974.00           2484         160.00       690.51
  224.15        2974.25           2488         165.00       712.31
  224.18        2974.50           2491         169.00       729.75
  224.21        2974.75           2495         161.00       694.87
  224.24        2975.00           2498         146.00       629.48
  224.27        2975.25           2502         160.00       690.51
  224.30        2975.50           2505         143.00       616.40
  224.33        2975.75           2509         142.00       612.04
  224.36        2976.00           2512         144.00       620.76
  224.39        2976.25           2516         135.00       581.53
  224.43        2976.50           2520         153.00       660.00
  224.46        2976.75           2523         129.00       555.37
  224.49        2977.00           2527         167.00       721.03
  224.52        2977.25           2530         144.00       620.76
  224.55        2977.50           2534         127.00       546.65
  224.58        2977.75           2537         139.00       598.97
  224.61        2978.00           2541         127.00       546.65
  224.64        2978.25           2544         128.00       551.01
  224.67        2978.50           2548         116.00       498.70
  224.70        2978.75           2552         151.00       651.28
  224.73        2979.00           2555         135.00       581.53
  224.76        2979.25           2559         124.00       533.58
  224.79        2979.50           2562         126.00       542.29
  224.82        2979.75           2566         173.00       747.19
  224.85        2980.00           2569         142.00       612.04
  224.88        2980.25           2573         118.00       507.42
  224.91        2980.50           2577         145.00       625.12
  224.94        2980.75           2580         126.00       542.29
  224.98        2981.00           2584         156.00       673.08
  225.01        2981.25           2587         111.00       476.90
  225.04        2981.50           2591         110.00       472.54
  225.07        2981.75           2594         107.00       459.47
  225.10        2982.00           2598         132.00       568.45
  225.13        2982.25           2601         130.00       559.73
  225.16        2982.50           2605         103.00       442.03
  225.19        2982.75           2609         110.00       472.54
  225.22        2983.00           2612         110.00       472.54
  225.25        2983.25           2616         125.00       537.93
  225.29        2983.50           2619         107.00       459.47
  225.33        2983.75           2623         112.00       481.26
  225.36        2984.00           2626         119.00       511.78
HS scan finished at 03:45:35
end
************************************************************
  HS Scan of (1) Internal mercury lamp
************************************************************
Integration time is 0.2294 seconds per sample
dh131017Reading 51.44 .94 3.56pr1000
************************************************************
Dead Time -------------------------  3.4E-08 
Number of Cycles Used -------------  4 
Starting Wavelength (Angstroms) ---  2950 
Final Wavelength (Angstoms) -------  2984 
Wavelength Increment (Angstroms) --  .25 
Filter Wheel #1 Position ---------- (1) Ground quartz diffuser (ND=2.32)
Filter Wheel #2 Position ---------- (1) Neutral Density 0.494



************************************************************
HS scan start time = 18:07:24
Dark Count =  3.4 


Time (GMT)  Wavelength (Ang)  Step Number  Raw Counts  Counts/Second

 1088.31        2950.00           2144          87.00       364.43
 1088.50        2950.25           2147          82.00       342.64
 1088.53        2950.50           2151          85.00       355.71
 1088.56        2950.75           2155          78.00       325.20
 1088.59        2951.00           2158          78.00       325.20
 1088.62        2951.25           2162          81.00       338.28
 1088.65        2951.50           2165          91.00       381.87
 1088.68        2951.75           2169          81.00       338.28
 1088.71        2952.00           2172          81.00       338.28
 1088.74        2952.25           2176          82.00       342.64
 1088.77        2952.50           2179          82.00       342.64
 1088.80        2952.75           2183          83.00       347.00
 1088.84        2953.00           2186          92.00       386.23
 1088.87        2953.25           2190          87.00       364.43
 1088.90        2953.50           2193          82.00       342.64
 1088.93        2953.75           2197          82.00       342.64
 1088.96        2954.00           2200          86.00       360.07
 1088.99        2954.25           2204          82.00       342.64
 1089.02        2954.50           2208          88.00       368.79
 1089.05        2954.75           2211          88.00       368.79
 1089.08        2955.00           2215          82.00       342.64
 1089.11        2955.25           2218          95.00       399.31
 1089.14        2955.50           2222          97.00       408.03
 1089.17        2955.75           2225          94.00       394.95
 1089.20        2956.00           2229          91.00       381.87
 1089.23        2956.25           2232          93.00       390.59
 1089.26        2956.50           2236          97.00       408.03
 1089.29        2956.75           2239         110.00       464.70
 1089.32        2957.00           2243          92.00       386.23
 1089.36        2957.25           2246         102.00       429.82
 1089.39        2957.50           2250          99.00       416.75
 1089.42        2957.75           2254          98.00       412.39
 1089.45        2958.00           2257          95.00       399.31
 1089.48        2958.25           2261         108.00       455.98
 1089.51        2958.50           2264         104.00       438.54
 1089.54        2958.75           2268         103.00       434.18
 1089.57        2959.00           2271         110.00       464.70
 1089.60        2959.25           2275         123.00       521.37
 1089.63        2959.50           2278         128.00       543.17
 1089.66        2959.75           2282         118.00       499.57
 1089.69        2960.00           2285         136.00       578.04
 1089.72        2960.25           2289         116.00       490.85
 1089.75        2960.50           2293         130.00       551.88
 1089.78        2960.75           2296         157.00       669.59
 1089.81        2961.00           2300         167.00       713.18
 1089.84        2961.25           2303         324.00      1397.63
 1089.88        2961.50           2307        1290.00      5609.61
 1089.91        2961.75           2310        2468.00     10747.61
 1089.94        2962.00           2314        4085.00     17803.28
 1089.97        2962.25           2317        5372.00     23421.44
 1090.00        2962.50           2321        7241.00     31584.03
 1090.03        2962.75           2324        8619.00     37605.16
 1090.06        2963.00           2328       10483.00     45753.77
 1090.09        2963.25           2331       11957.00     52200.68
 1090.12        2963.50           2335       13800.00     60265.47
 1090.15        2963.75           2339       15828.00     69144.93
 1090.18        2964.00           2342       17123.00     74817.81
 1090.21        2964.25           2346       19356.00     84604.83
 1090.24        2964.50           2349       20833.00     91081.98
 1090.27        2964.75           2353       22804.00     99729.93
 1090.30        2965.00           2356       23929.00    104668.30
 1090.33        2965.25           2360       25688.00    112392.90
 1090.36        2965.50           2363       27013.00    118214.40
 1090.40        2965.75           2367       29024.00    127054.20
 1090.43        2966.00           2370       30359.00    132925.50
 1090.46        2966.25           2374       32051.00    140370.20
 1090.49        2966.50           2378       32848.00    143878.20
 1090.52        2966.75           2381       33072.00    144864.30
 1090.55        2967.00           2385       33169.00    145291.40
 1090.58        2967.25           2388       33278.00    145771.30
 1090.61        2967.50           2392       33336.00    146026.60
 1090.64        2967.75           2395       32899.00    144102.80
 1090.67        2968.00           2399       32284.00    141395.70
 1090.70        2968.25           2402       30954.00    135543.00
 1090.73        2968.50           2406       29211.00    127876.50
 1090.76        2968.75           2409       27855.00    121915.00
 1090.79        2969.00           2413       26196.00    114624.60
 1090.82        2969.25           2417       24336.00    106455.20
 1090.85        2969.50           2420       22947.00    100357.60
 1090.88        2969.75           2424       20801.00     90941.61
 1090.91        2970.00           2427       19169.00     83784.99
 1090.96        2970.25           2431       17272.00     75470.66
 1090.99        2970.50           2434       15802.00     69031.06
 1091.02        2970.75           2438       13628.00     59512.63
 1091.05        2971.00           2441       12249.00     53478.15
 1091.08        2971.25           2445       10339.00     45124.10
 1091.11        2971.50           2449        8118.00     35415.77
 1091.14        2971.75           2452        6633.00     28928.18
 1091.17        2972.00           2456        4667.00     20343.62
 1091.21        2972.25           2459        3381.00     14731.01
 1091.24        2972.50           2463        1839.00      8003.92
 1091.27        2972.75           2466         967.00      4201.12
 1091.30        2973.00           2470         273.00      1175.29
 1091.33        2973.25           2473         165.00       704.46
 1091.36        2973.50           2477         165.00       704.46
 1091.39        2973.75           2481         151.00       643.43
 1091.42        2974.00           2484         140.00       595.48
 1091.45        2974.25           2488         116.00       490.85
 1091.48        2974.50           2491         147.00       625.99
 1091.51        2974.75           2495         146.00       621.63
 1091.54        2975.00           2498         113.00       477.78
 1091.57        2975.25           2502         109.00       460.34
 1091.60        2975.50           2505         106.00       447.26
 1091.63        2975.75           2509         100.00       421.10
 1091.66        2976.00           2512         125.00       530.09
 1091.69        2976.25           2516         137.00       582.40
 1091.73        2976.50           2520         108.00       455.98
 1091.76        2976.75           2523         118.00       499.57
 1091.79        2977.00           2527         107.00       451.62
 1091.82        2977.25           2530         106.00       447.26
 1091.85        2977.50           2534         112.00       473.42
 1091.88        2977.75           2537         125.00       530.09
 1091.91        2978.00           2541         102.00       429.82
 1091.94        2978.25           2544          99.00       416.75
 1091.97        2978.50           2548          89.00       373.15
 1092.00        2978.75           2552          93.00       390.59
 1092.03        2979.00           2555          94.00       394.95
 1092.06        2979.25           2559          91.00       381.87
 1092.09        2979.50           2562          89.00       373.15
 1092.12        2979.75           2566          87.00       364.43
 1092.15        2980.00           2569          88.00       368.79
 1092.18        2980.25           2573          79.00       329.56
 1092.21        2980.50           2577         105.00       442.90
 1092.25        2980.75           2580          90.00       377.51
 1092.28        2981.00           2584          80.00       333.92
 1092.31        2981.25           2587          86.00       360.07
 1092.34        2981.50           2591          88.00       368.79
 1092.37        2981.75           2594          87.00       364.43
 1092.40        2982.00           2598          87.00       364.43
 1092.43        2982.25           2601          85.00       355.71
 1092.46        2982.50           2605          78.00       325.20
 1092.49        2982.75           2609          77.00       320.84
 1092.52        2983.00           2612          84.00       351.36
 1092.55        2983.25           2616          84.00       351.36
 1092.58        2983.50           2619          80.00       333.92
 1092.61        2983.75           2623          77.00       320.84
 1092.64        2984.00           2626          84.00       351.36
HS scan finished at 18:12:52
end
