************************************************************
  HS Scan of (1) Internal mercury lamp
************************************************************
Integration time is 0.2294 seconds per sample
dh181018Reading 51.44 .94 3.17pr1000
************************************************************
Dead Time -------------------------  3.4E-08 
Number of Cycles Used -------------  4 
Starting Wavelength (Angstroms) ---  2950 
Final Wavelength (Angstoms) -------  2984 
Wavelength Increment (Angstroms) --  .25 
Filter Wheel #1 Position ---------- (1) Ground quartz diffuser (ND=2.32)
Filter Wheel #2 Position ---------- (1) Neutral Density 0.494



************************************************************
HS scan start time = 03:49:28
Dark Count =  1.8 


Time (GMT)  Wavelength (Ang)  Step Number  Raw Counts  Counts/Second

  230.36        2950.00           2144        1380.00      6009.07
  230.55        2950.25           2147        1404.00      6113.74
  230.58        2950.50           2151        1390.00      6052.68
  230.61        2950.75           2155        1377.00      5995.99
  230.64        2951.00           2158        1406.00      6122.46
  230.67        2951.25           2162        1404.00      6113.74
  230.70        2951.50           2165        1433.00      6240.21
  230.74        2951.75           2169        1449.00      6309.99
  230.77        2952.00           2172        1439.00      6266.37
  230.80        2952.25           2176        1443.00      6283.82
  230.83        2952.50           2179        1412.00      6148.63
  230.86        2952.75           2183        1452.00      6323.07
  230.89        2953.00           2186        1442.00      6279.46
  230.92        2953.25           2190        1430.00      6227.12
  230.95        2953.50           2193        1455.00      6336.15
  230.98        2953.75           2197        1474.00      6419.01
  231.01        2954.00           2200        1439.00      6266.37
  231.04        2954.25           2204        1480.00      6445.18
  231.07        2954.50           2208        1488.00      6480.07
  231.10        2954.75           2211        1422.00      6192.24
  231.13        2955.00           2215        1467.00      6388.48
  231.16        2955.25           2218        1478.00      6436.46
  231.19        2955.50           2222        1503.00      6545.48
  231.23        2955.75           2225        1512.00      6584.73
  231.26        2956.00           2229        1515.00      6597.82
  231.29        2956.25           2232        1508.00      6567.29
  231.32        2956.50           2236        1518.00      6610.90
  231.35        2956.75           2239        1520.00      6619.62
  231.38        2957.00           2243        1558.00      6785.35
  231.41        2957.25           2246        1569.00      6833.32
  231.44        2957.50           2250        1553.00      6763.54
  231.47        2957.75           2254        1602.00      6977.24
  231.50        2958.00           2257        1626.00      7081.91
  231.53        2958.25           2261        1617.00      7042.66
  231.56        2958.50           2264        1644.00      7160.42
  231.59        2958.75           2268        1686.00      7343.59
  231.62        2959.00           2271        1712.00      7456.99
  231.65        2959.25           2275        1664.00      7247.64
  231.68        2959.50           2278        1697.00      7391.57
  231.71        2959.75           2282        1723.00      7504.97
  231.75        2960.00           2285        1756.00      7648.89
  231.78        2960.25           2289        1737.00      7566.03
  231.81        2960.50           2293        1789.00      7792.82
  231.84        2960.75           2296        1871.00      8150.47
  231.87        2961.00           2300        1977.00      8612.81
  231.90        2961.25           2303        2475.00     10785.12
  231.93        2961.50           2307        7566.00     33010.88
  231.96        2961.75           2310       16821.00     73501.68
  231.99        2962.00           2314       34248.00    150049.50
  232.02        2962.25           2317       49970.00    219452.60
  232.05        2962.50           2321       70668.00    311326.00
  232.08        2962.75           2324       85425.00    377182.90
  232.11        2963.00           2328      107073.00    474333.00
  232.14        2963.25           2331      124638.00    553637.90
  232.17        2963.50           2335      149550.00    666860.00
  232.20        2963.75           2339      173877.00    778280.90
  232.23        2964.00           2342      191475.00    859418.60
  232.27        2964.25           2346      213005.00    959307.60
  232.30        2964.50           2349      228146.00   1029970.00
  232.33        2964.75           2353      250657.00   1135671.00
  232.36        2965.00           2356      268584.00   1220406.00
  232.39        2965.25           2360      289969.00   1322142.00
  232.42        2965.50           2363      305941.00   1398600.00
  232.45        2965.75           2367      325251.00   1491583.00
  232.48        2966.00           2370      340264.00   1564295.00
  232.51        2966.25           2374      360448.00   1662637.00
  232.54        2966.50           2378      376778.00   1742701.00
  232.57        2966.75           2381      382641.00   1771556.00
  232.60        2967.00           2385      384840.00   1782394.00
  232.63        2967.25           2388      384780.00   1782098.00
  232.66        2967.50           2392      385266.00   1784494.00
  232.69        2967.75           2395      384190.00   1779189.00
  232.72        2968.00           2399      381528.00   1766074.00
  232.75        2968.25           2402      374608.00   1732036.00
  232.79        2968.50           2406      357158.00   1646561.00
  232.82        2968.75           2409      340802.00   1566908.00
  232.85        2969.00           2413      316441.00   1449086.00
  232.88        2969.25           2417      292891.00   1336100.00
  232.91        2969.50           2420      276263.00   1256855.00
  232.94        2969.75           2424      255122.00   1156729.00
  232.97        2970.00           2427      238419.00   1078111.00
  233.00        2970.25           2431      214127.00    964532.10
  233.03        2970.50           2434      196338.00    881920.50
  233.06        2970.75           2438      173409.00    776129.20
  233.09        2971.00           2441      155108.00    692241.10
  233.12        2971.25           2445      131648.00    585408.60
  233.15        2971.50           2449      108585.00    481142.70
  233.18        2971.75           2452       92964.00    410942.50
  233.21        2972.00           2456       71438.00    314755.00
  233.24        2972.25           2459       52770.00    231847.50
  233.27        2972.50           2463       30051.00    131577.70
  233.30        2972.75           2466       15994.00     69879.00
  233.34        2973.00           2470        5352.00     23341.10
  233.37        2973.25           2473        2909.00     12678.53
  233.40        2973.50           2477        2053.00      8944.31
  233.43        2973.75           2481        1895.00      8255.15
  233.46        2974.00           2484        1865.00      8124.30
  233.49        2974.25           2488        1883.00      8202.81
  233.52        2974.50           2491        1798.00      7832.08
  233.55        2974.75           2495        1789.00      7792.82
  233.58        2975.00           2498        1709.00      7443.91
  233.61        2975.25           2502        1704.00      7422.10
  233.64        2975.50           2505        1667.00      7260.73
  233.67        2975.75           2509        1645.00      7164.78
  233.70        2976.00           2512        1634.00      7116.80
  233.73        2976.25           2516        1592.00      6933.63
  233.76        2976.50           2520        1610.00      7012.13
  233.79        2976.75           2523        1585.00      6903.10
  233.82        2977.00           2527        1555.00      6772.27
  233.86        2977.25           2530        1550.00      6750.46
  233.89        2977.50           2534        1581.00      6885.66
  233.92        2977.75           2537        1527.00      6650.15
  233.95        2978.00           2541        1508.00      6567.29
  233.98        2978.25           2544        1462.00      6366.68
  234.01        2978.50           2548        1462.00      6366.68
  234.04        2978.75           2552        1478.00      6436.46
  234.07        2979.00           2555        1440.00      6270.74
  234.10        2979.25           2559        1445.00      6292.54
  234.13        2979.50           2562        1437.00      6257.65
  234.16        2979.75           2566        1436.00      6253.29
  234.19        2980.00           2569        1405.00      6118.10
  234.22        2980.25           2573        1415.00      6161.71
  234.25        2980.50           2577        1402.00      6105.02
  234.28        2980.75           2580        1347.00      5865.16
  234.31        2981.00           2584        1361.00      5926.22
  234.35        2981.25           2587        1407.00      6126.82
  234.38        2981.50           2591        1346.00      5860.80
  234.41        2981.75           2594        1345.00      5856.44
  234.44        2982.00           2598        1350.00      5878.25
  234.47        2982.25           2601        1366.00      5948.02
  234.50        2982.50           2605        1345.00      5856.44
  234.53        2982.75           2609        1323.00      5760.50
  234.56        2983.00           2612        1333.00      5804.11
  234.59        2983.25           2616        1290.00      5616.59
  234.62        2983.50           2619        1361.00      5926.22
  234.65        2983.75           2623        1293.00      5629.67
  234.68        2984.00           2626        1316.00      5729.97
HS scan finished at 03:54:54
end
************************************************************
  HS Scan of (1) Internal mercury lamp
************************************************************
Integration time is 0.2294 seconds per sample
dh181018Reading 51.44 .94 3.33pr1000
************************************************************
Dead Time -------------------------  3.4E-08 
Number of Cycles Used -------------  4 
Starting Wavelength (Angstroms) ---  2950 
Final Wavelength (Angstoms) -------  2984 
Wavelength Increment (Angstroms) --  .25 
Filter Wheel #1 Position ---------- (1) Ground quartz diffuser (ND=2.32)
Filter Wheel #2 Position ---------- (1) Neutral Density 0.494



************************************************************
HS scan start time = 18:07:28
Dark Count =  2.3 


Time (GMT)  Wavelength (Ang)  Step Number  Raw Counts  Counts/Second

 1088.37        2950.00           2144         832.00      3617.27
 1088.56        2950.25           2147         802.00      3486.46
 1088.59        2950.50           2151         841.00      3656.51
 1088.62        2950.75           2155         845.00      3673.96
 1088.65        2951.00           2158         889.00      3865.81
 1088.68        2951.25           2162         867.00      3769.88
 1088.71        2951.50           2165         825.00      3586.75
 1088.74        2951.75           2169         883.00      3839.65
 1088.77        2952.00           2172         854.00      3713.20
 1088.80        2952.25           2176         845.00      3673.96
 1088.83        2952.50           2179         840.00      3652.15
 1088.87        2952.75           2183         861.00      3743.72
 1088.90        2953.00           2186         856.00      3721.92
 1088.93        2953.25           2190         882.00      3835.29
 1088.96        2953.50           2193         879.00      3822.21
 1088.99        2953.75           2197         868.00      3774.24
 1089.02        2954.00           2200         876.00      3809.12
 1089.05        2954.25           2204         869.00      3778.60
 1089.08        2954.50           2208         857.00      3726.28
 1089.11        2954.75           2211         894.00      3887.61
 1089.14        2955.00           2215         890.00      3870.17
 1089.17        2955.25           2218         867.00      3769.88
 1089.20        2955.50           2222         910.00      3957.38
 1089.23        2955.75           2225         889.00      3865.81
 1089.26        2956.00           2229         922.00      4009.70
 1089.29        2956.25           2232         893.00      3883.25
 1089.32        2956.50           2236         929.00      4040.22
 1089.35        2956.75           2239         920.00      4000.98
 1089.39        2957.00           2243         913.00      3970.46
 1089.42        2957.25           2246         931.00      4048.94
 1089.45        2957.50           2250         937.00      4075.11
 1089.48        2957.75           2254         957.00      4162.32
 1089.51        2958.00           2257         971.00      4223.36
 1089.54        2958.25           2261         955.00      4153.59
 1089.57        2958.50           2264         998.00      4341.09
 1089.60        2958.75           2268         983.00      4275.69
 1089.63        2959.00           2271        1003.00      4362.90
 1089.66        2959.25           2275        1037.00      4511.15
 1089.69        2959.50           2278        1010.00      4393.42
 1089.72        2959.75           2282        1028.00      4471.91
 1089.75        2960.00           2285        1027.00      4467.55
 1089.78        2960.25           2289        1070.00      4655.05
 1089.81        2960.50           2293        1094.00      4759.71
 1089.84        2960.75           2296        1108.00      4820.76
 1089.87        2961.00           2300        1128.00      4907.97
 1089.91        2961.25           2303        1222.00      5317.88
 1089.94        2961.50           2307        1866.00      8126.48
 1089.97        2961.75           2310        4611.00     20103.97
 1090.00        2962.00           2314       12753.00     55688.17
 1090.03        2962.25           2317       20834.00     91091.19
 1090.06        2962.50           2321       34535.00    151311.30
 1090.09        2962.75           2324       45623.00    200228.10
 1090.12        2963.00           2328       60045.00    264098.90
 1090.15        2963.25           2331       70752.00    311697.80
 1090.18        2963.50           2335       85180.00    376084.80
 1090.21        2963.75           2339       99950.00    442293.30
 1090.24        2964.00           2342      110642.00    490409.70
 1090.27        2964.25           2346      124678.00    553816.80
 1090.30        2964.50           2349      135031.00    600763.60
 1090.33        2964.75           2353      149339.00    665895.00
 1090.36        2965.00           2356      160204.00    715549.20
 1090.39        2965.25           2360      175864.00    787417.30
 1090.42        2965.50           2363      187339.00    840305.90
 1090.46        2965.75           2367      201134.00    904144.30
 1090.49        2966.00           2370      210970.00    949834.30
 1090.52        2966.25           2374      224679.00   1013757.00
 1090.55        2966.50           2378      237242.00   1072585.00
 1090.58        2966.75           2381      240407.00   1087444.00
 1090.61        2967.00           2385      242204.00   1095887.00
 1090.64        2967.25           2388      242045.00   1095140.00
 1090.67        2967.50           2392      242368.00   1096658.00
 1090.70        2967.75           2395      242373.00   1096681.00
 1090.73        2968.00           2399      241342.00   1091836.00
 1090.76        2968.25           2402      235532.00   1064564.00
 1090.79        2968.50           2406      225139.00   1015907.00
 1090.82        2968.75           2409      215224.00    969639.70
 1090.85        2969.00           2413      202542.00    910675.80
 1090.88        2969.25           2417      189284.00    849289.70
 1090.91        2969.50           2420      180060.00    806734.30
 1090.94        2969.75           2424      167028.00    746822.80
 1090.98        2970.00           2427      155611.00    694538.00
 1091.01        2970.25           2431      139774.00    622321.90
 1091.04        2970.50           2434      127728.00    567631.60
 1091.07        2970.75           2438      113717.00    504277.30
 1091.10        2971.00           2441      102561.00    454028.70
 1091.13        2971.25           2445       88900.00    392731.90
 1091.16        2971.50           2449       74277.00    327402.50
 1091.19        2971.75           2452       63614.00    279948.00
 1091.22        2972.00           2456       48648.00    213601.90
 1091.25        2972.25           2459       38414.00    168405.70
 1091.28        2972.50           2463       24477.00    107079.20
 1091.31        2972.75           2466       15090.00     65917.85
 1091.34        2973.00           2470        5734.00     25006.87
 1091.37        2973.25           2473        2628.00     11450.40
 1091.40        2973.50           2477        1344.00      5849.90
 1091.43        2973.75           2481        1156.00      5030.07
 1091.46        2974.00           2484        1122.00      4881.80
 1091.50        2974.25           2488        1128.00      4907.97
 1091.53        2974.50           2491        1081.00      4703.02
 1091.56        2974.75           2495        1078.00      4689.94
 1091.59        2975.00           2498        1074.00      4672.49
 1091.62        2975.25           2502        1038.00      4515.51
 1091.65        2975.50           2505        1047.00      4554.76
 1091.68        2975.75           2509        1008.00      4384.70
 1091.71        2976.00           2512         998.00      4341.09
 1091.74        2976.25           2516         989.00      4301.85
 1091.78        2976.50           2520         997.00      4336.73
 1091.81        2976.75           2523         990.00      4306.21
 1091.84        2977.00           2527         944.00      4105.63
 1091.87        2977.25           2530         906.00      3939.94
 1091.90        2977.50           2534         928.00      4035.86
 1091.93        2977.75           2537         940.00      4088.19
 1091.96        2978.00           2541         922.00      4009.70
 1091.99        2978.25           2544         896.00      3896.33
 1092.02        2978.50           2548         895.00      3891.97
 1092.05        2978.75           2552         896.00      3896.33
 1092.08        2979.00           2555         873.00      3796.04
 1092.11        2979.25           2559         896.00      3896.33
 1092.14        2979.50           2562         873.00      3796.04
 1092.17        2979.75           2566         856.00      3721.92
 1092.20        2980.00           2569         870.00      3782.96
 1092.23        2980.25           2573         888.00      3861.45
 1092.26        2980.50           2577         844.00      3669.60
 1092.30        2980.75           2580         870.00      3782.96
 1092.33        2981.00           2584         866.00      3765.52
 1092.36        2981.25           2587         853.00      3708.84
 1092.39        2981.50           2591         833.00      3621.63
 1092.42        2981.75           2594         795.00      3455.94
 1092.45        2982.00           2598         805.00      3499.54
 1092.48        2982.25           2601         864.00      3756.80
 1092.51        2982.50           2605         800.00      3477.74
 1092.54        2982.75           2609         791.00      3438.50
 1092.57        2983.00           2612         798.00      3469.02
 1092.60        2983.25           2616         785.00      3412.34
 1092.63        2983.50           2619         846.00      3678.32
 1092.66        2983.75           2623         795.00      3455.94
 1092.69        2984.00           2626         788.00      3425.42
HS scan finished at 18:12:55
end
