************************************************************
  HS Scan of (1) Internal mercury lamp
************************************************************
Integration time is 0.2294 seconds per sample
dh211018Reading 51.44 .94 2.88pr1000
************************************************************
Dead Time -------------------------  3.4E-08 
Number of Cycles Used -------------  4 
Starting Wavelength (Angstroms) ---  2950 
Final Wavelength (Angstoms) -------  2984 
Wavelength Increment (Angstroms) --  .25 
Filter Wheel #1 Position ---------- (1) Ground quartz diffuser (ND=2.32)
Filter Wheel #2 Position ---------- (1) Neutral Density 0.494



************************************************************
HS scan start time = 03:56:21
Dark Count =  .5 


Time (GMT)  Wavelength (Ang)  Step Number  Raw Counts  Counts/Second

  237.24        2950.00           2144        1479.00      6446.49
  237.43        2950.25           2147        1454.00      6337.46
  237.46        2950.50           2151        1497.00      6524.99
  237.49        2950.75           2155        1464.00      6381.07
  237.52        2951.00           2158        1493.00      6507.54
  237.56        2951.25           2162        1517.00      6612.21
  237.59        2951.50           2165        1539.00      6708.16
  237.62        2951.75           2169        1495.00      6516.27
  237.65        2952.00           2172        1539.00      6708.16
  237.68        2952.25           2176        1527.00      6655.82
  237.71        2952.50           2179        1519.00      6620.93
  237.74        2952.75           2183        1525.00      6647.10
  237.77        2953.00           2186        1525.00      6647.10
  237.80        2953.25           2190        1518.00      6616.57
  237.83        2953.50           2193        1501.00      6542.43
  237.87        2953.75           2197        1561.00      6804.10
  237.90        2954.00           2200        1519.00      6620.93
  237.93        2954.25           2204        1558.00      6791.02
  237.96        2954.50           2208        1554.00      6773.57
  237.99        2954.75           2211        1568.00      6834.63
  238.02        2955.00           2215        1583.00      6900.05
  238.05        2955.25           2218        1579.00      6882.60
  238.08        2955.50           2222        1614.00      7035.25
  238.11        2955.75           2225        1558.00      6791.02
  238.14        2956.00           2229        1603.00      6987.27
  238.17        2956.25           2232        1636.00      7131.20
  238.20        2956.50           2236        1642.00      7157.37
  238.23        2956.75           2239        1634.00      7122.47
  238.27        2957.00           2243        1676.00      7305.65
  238.30        2957.25           2246        1640.00      7148.64
  238.33        2957.50           2250        1679.00      7318.74
  238.36        2957.75           2254        1692.00      7375.43
  238.39        2958.00           2257        1735.00      7562.97
  238.42        2958.25           2261        1730.00      7541.17
  238.45        2958.50           2264        1709.00      7449.58
  238.48        2958.75           2268        1726.00      7523.72
  238.51        2959.00           2271        1751.00      7632.76
  238.54        2959.25           2275        1817.00      7920.62
  238.57        2959.50           2278        1788.00      7794.13
  238.60        2959.75           2282        1827.00      7964.23
  238.63        2960.00           2285        1843.00      8034.02
  238.66        2960.25           2289        1907.00      8313.16
  238.69        2960.50           2293        1900.00      8282.63
  238.72        2960.75           2296        1967.00      8574.86
  238.76        2961.00           2300        2105.00      9176.80
  238.79        2961.25           2303        2704.00     11789.82
  238.82        2961.50           2307        7969.00     34777.37
  238.85        2961.75           2310       17290.00     75562.23
  238.88        2962.00           2314       34764.00    152327.90
  238.91        2962.25           2317       48986.00    215105.00
  238.94        2962.50           2321       69172.00    304672.00
  238.97        2962.75           2324       84394.00    372577.90
  239.00        2963.00           2328      107248.00    475126.80
  239.03        2963.25           2331      125324.00    556749.80
  239.06        2963.50           2335      147979.00    659699.80
  239.09        2963.75           2339      168499.00    753581.10
  239.12        2964.00           2342      183233.00    821367.30
  239.15        2964.25           2346      204639.00    920417.40
  239.18        2964.50           2349      221359.00    998258.80
  239.21        2964.75           2353      244978.00   1108938.00
  239.24        2965.00           2356      260968.00   1184353.00
  239.27        2965.25           2360      279937.00   1274333.00
  239.31        2965.50           2363      294764.00   1345059.00
  239.34        2965.75           2367      314171.00   1438162.00
  239.37        2966.00           2370      328360.00   1506617.00
  239.40        2966.25           2374      347974.00   1601787.00
  239.43        2966.50           2378      362744.00   1673874.00
  239.46        2966.75           2381      367254.00   1695958.00
  239.49        2967.00           2385      369213.00   1705561.00
  239.52        2967.25           2388      368776.00   1703418.00
  239.55        2967.50           2392      368812.00   1703595.00
  239.58        2967.75           2395      368828.00   1703674.00
  239.61        2968.00           2399      365462.00   1687179.00
  239.65        2968.25           2402      356503.00   1643370.00
  239.68        2968.50           2406      337963.00   1553133.00
  239.71        2968.75           2409      324328.00   1487132.00
  239.74        2969.00           2413      303695.00   1387830.00
  239.77        2969.25           2417      284619.00   1296629.00
  239.80        2969.50           2420      269298.00   1223797.00
  239.83        2969.75           2424      245632.00   1112015.00
  239.86        2970.00           2427      227232.00   1025701.00
  239.89        2970.25           2431      204021.00    917548.20
  239.92        2970.50           2434      187320.00    840226.50
  239.95        2970.75           2438      166000.00    742115.50
  239.99        2971.00           2441      148950.00    664128.60
  240.02        2971.25           2445      127205.00    565269.90
  240.05        2971.50           2449      104828.00    464233.80
  240.08        2971.75           2452       86414.00    381613.00
  240.11        2972.00           2456       63635.00    280049.30
  240.14        2972.25           2459       48203.00    211641.70
  240.17        2972.50           2463       27423.00    120029.00
  240.20        2972.75           2466       14149.00     61805.85
  240.23        2973.00           2470        5220.00     22770.46
  240.26        2973.25           2473        2896.00     12627.48
  240.29        2973.50           2477        2085.00      9089.56
  240.32        2973.75           2481        1982.00      8640.29
  240.35        2974.00           2484        1957.00      8531.25
  240.38        2974.25           2488        1877.00      8182.31
  240.41        2974.50           2491        1827.00      7964.23
  240.44        2974.75           2495        1792.00      7811.58
  240.47        2975.00           2498        1804.00      7863.92
  240.50        2975.25           2502        1765.00      7693.82
  240.54        2975.50           2505        1735.00      7562.97
  240.57        2975.75           2509        1759.00      7667.65
  240.60        2976.00           2512        1724.00      7515.00
  240.63        2976.25           2516        1729.00      7536.81
  240.66        2976.50           2520        1697.00      7397.24
  240.69        2976.75           2523        1633.00      7118.11
  240.72        2977.00           2527        1623.00      7074.50
  240.75        2977.25           2530        1642.00      7157.37
  240.78        2977.50           2534        1620.00      7061.42
  240.81        2977.75           2537        1581.00      6891.33
  240.84        2978.00           2541        1582.00      6895.69
  240.87        2978.25           2544        1585.00      6908.77
  240.90        2978.50           2548        1553.00      6769.21
  240.93        2978.75           2552        1505.00      6559.88
  240.96        2979.00           2555        1558.00      6791.02
  240.99        2979.25           2559        1535.00      6690.71
  241.02        2979.50           2562        1501.00      6542.43
  241.06        2979.75           2566        1514.00      6599.13
  241.09        2980.00           2569        1507.00      6568.60
  241.12        2980.25           2573        1502.00      6546.79
  241.15        2980.50           2577        1492.00      6503.18
  241.18        2980.75           2580        1448.00      6311.29
  241.21        2981.00           2584        1478.00      6442.13
  241.24        2981.25           2587        1463.00      6376.71
  241.27        2981.50           2591        1437.00      6263.32
  241.30        2981.75           2594        1450.00      6320.02
  241.33        2982.00           2598        1437.00      6263.32
  241.36        2982.25           2601        1430.00      6232.79
  241.40        2982.50           2605        1435.00      6254.60
  241.44        2982.75           2609        1436.00      6258.96
  241.47        2983.00           2612        1443.00      6289.49
  241.50        2983.25           2616        1435.00      6254.60
  241.53        2983.50           2619        1401.00      6106.32
  241.56        2983.75           2623        1421.00      6193.55
  241.59        2984.00           2626        1402.00      6110.69
HS scan finished at 04:01:49
end
************************************************************
  HS Scan of (1) Internal mercury lamp
************************************************************
Integration time is 0.2294 seconds per sample
dh211018Reading 51.44 .94 3.47pr1000
************************************************************
Dead Time -------------------------  3.4E-08 
Number of Cycles Used -------------  4 
Starting Wavelength (Angstroms) ---  2950 
Final Wavelength (Angstoms) -------  2984 
Wavelength Increment (Angstroms) --  .25 
Filter Wheel #1 Position ---------- (1) Ground quartz diffuser (ND=2.32)
Filter Wheel #2 Position ---------- (1) Neutral Density 0.494



************************************************************
HS scan start time = 18:07:29
Dark Count =  2.7 


Time (GMT)  Wavelength (Ang)  Step Number  Raw Counts  Counts/Second

 1088.38        2950.00           2144         889.00      3864.06
 1088.58        2950.25           2147         878.00      3816.10
 1088.61        2950.50           2151         860.00      3737.62
 1088.64        2950.75           2155         847.00      3680.93
 1088.67        2951.00           2158         862.00      3746.34
 1088.70        2951.25           2162         887.00      3855.34
 1088.73        2951.50           2165         876.00      3807.38
 1088.76        2951.75           2169         859.00      3733.26
 1088.79        2952.00           2172         885.00      3846.62
 1088.82        2952.25           2176         917.00      3986.16
 1088.85        2952.50           2179         893.00      3881.51
 1088.88        2952.75           2183         925.00      4021.04
 1088.91        2953.00           2186         908.00      3946.91
 1088.94        2953.25           2190         920.00      3999.24
 1088.98        2953.50           2193         914.00      3973.07
 1089.01        2953.75           2197         890.00      3868.42
 1089.04        2954.00           2200         907.00      3942.55
 1089.07        2954.25           2204         889.00      3864.06
 1089.10        2954.50           2208         929.00      4038.48
 1089.13        2954.75           2211         932.00      4051.56
 1089.16        2955.00           2215         923.00      4012.32
 1089.19        2955.25           2218         949.00      4125.69
 1089.22        2955.50           2222         946.00      4112.61
 1089.25        2955.75           2225         918.00      3990.52
 1089.28        2956.00           2229         938.00      4077.72
 1089.31        2956.25           2232         936.00      4069.00
 1089.34        2956.50           2236         959.00      4169.29
 1089.37        2956.75           2239         968.00      4208.54
 1089.40        2957.00           2243         972.00      4225.98
 1089.43        2957.25           2246         987.00      4291.39
 1089.46        2957.50           2250         962.00      4182.37
 1089.50        2957.75           2254        1014.00      4409.12
 1089.53        2958.00           2257        1005.00      4369.87
 1089.56        2958.25           2261         987.00      4291.39
 1089.59        2958.50           2264        1014.00      4409.12
 1089.62        2958.75           2268        1048.00      4557.38
 1089.65        2959.00           2271        1022.00      4444.00
 1089.68        2959.25           2275        1039.00      4518.13
 1089.71        2959.50           2278        1046.00      4548.66
 1089.74        2959.75           2282        1093.00      4753.60
 1089.77        2960.00           2285        1100.00      4784.13
 1089.80        2960.25           2289        1116.00      4853.90
 1089.83        2960.50           2293        1147.00      4989.08
 1089.86        2960.75           2296        1145.00      4980.36
 1089.89        2961.00           2300        1246.00      5420.79
 1089.92        2961.25           2303        1349.00      5869.96
 1089.95        2961.50           2307        2908.00     12670.24
 1089.98        2961.75           2310        7482.00     32639.95
 1090.02        2962.00           2314       17740.00     77524.48
 1090.05        2962.25           2317       27817.00    121751.00
 1090.08        2962.50           2321       42862.00    188030.40
 1090.11        2962.75           2324       53556.00    235324.80
 1090.14        2963.00           2328       67262.00    296163.90
 1090.17        2963.25           2331       78199.00    344893.90
 1090.20        2963.50           2335       93796.00    414668.80
 1090.23        2963.75           2339      110607.00    490250.00
 1090.26        2964.00           2342      122547.00    544170.50
 1090.29        2964.25           2346      137727.00    613012.00
 1090.32        2964.50           2349      148548.00    662284.90
 1090.35        2964.75           2353      163543.00    730841.10
 1090.38        2965.00           2356      176204.00    788979.60
 1090.41        2965.25           2360      192114.00    862369.20
 1090.44        2965.50           2363      203592.00    915546.70
 1090.47        2965.75           2367      216705.00    976539.30
 1090.50        2966.00           2370      226572.00   1022604.00
 1090.53        2966.25           2374      240155.00   1086258.00
 1090.57        2966.50           2378      253605.00   1149567.00
 1090.60        2966.75           2381      259514.00   1177469.00
 1090.63        2967.00           2385      262089.00   1189645.00
 1090.66        2967.25           2388      262365.00   1190950.00
 1090.69        2967.50           2392      262778.00   1192904.00
 1090.72        2967.75           2395      263018.00   1194040.00
 1090.75        2968.00           2399      261813.00   1188339.00
 1090.78        2968.25           2402      258662.00   1173442.00
 1090.81        2968.50           2406      247270.00   1119714.00
 1090.84        2968.75           2409      236989.00   1071396.00
 1090.87        2969.00           2413      220990.00    996526.00
 1090.90        2969.25           2417      204204.00    918387.60
 1090.93        2969.50           2420      193112.00    866985.20
 1090.96        2969.75           2424      178523.00    799653.60
 1090.99        2970.00           2427      167019.00    746779.60
 1091.02        2970.25           2431      151696.00    676650.50
 1091.06        2970.50           2434      138617.00    617058.20
 1091.09        2970.75           2438      122722.00    544962.10
 1091.12        2971.00           2441      110414.00    489380.10
 1091.15        2971.25           2445       94886.00    419557.60
 1091.18        2971.50           2449       79489.00    350652.20
 1091.21        2971.75           2452       68100.00    299891.90
 1091.24        2972.00           2456       53480.00    234988.10
 1091.27        2972.25           2459       42362.00    185822.90
 1091.30        2972.50           2463       25856.00    113134.00
 1091.33        2972.75           2466       14989.00     65473.84
 1091.36        2973.00           2470        4949.00     21577.72
 1091.39        2973.25           2473        2249.00      9795.33
 1091.42        2973.50           2477        1384.00      6022.59
 1091.45        2973.75           2481        1213.00      5276.88
 1091.48        2974.00           2484        1200.00      5220.19
 1091.51        2974.25           2488        1147.00      4989.08
 1091.54        2974.50           2491        1149.00      4997.80
 1091.57        2974.75           2495        1124.00      4888.78
 1091.61        2975.00           2498        1098.00      4775.41
 1091.64        2975.25           2502        1114.00      4845.18
 1091.67        2975.50           2505        1056.00      4592.26
 1091.70        2975.75           2509        1080.00      4696.91
 1091.73        2976.00           2512        1043.00      4535.57
 1091.76        2976.25           2516         998.00      4339.35
 1091.79        2976.50           2520        1028.00      4470.17
 1091.82        2976.75           2523        1019.00      4430.92
 1091.85        2977.00           2527         965.00      4195.46
 1091.88        2977.25           2530         956.00      4156.21
 1091.91        2977.50           2534         974.00      4234.70
 1091.94        2977.75           2537         963.00      4186.73
 1091.97        2978.00           2541         946.00      4112.61
 1092.00        2978.25           2544         963.00      4186.73
 1092.03        2978.50           2548         926.00      4025.40
 1092.06        2978.75           2552         925.00      4021.04
 1092.09        2979.00           2555         902.00      3920.75
 1092.13        2979.25           2559         889.00      3864.06
 1092.16        2979.50           2562         902.00      3920.75
 1092.19        2979.75           2566         889.00      3864.06
 1092.22        2980.00           2569         900.00      3912.03
 1092.25        2980.25           2573         866.00      3763.78
 1092.28        2980.50           2577         866.00      3763.78
 1092.31        2980.75           2580         871.00      3785.58
 1092.34        2981.00           2584         900.00      3912.03
 1092.37        2981.25           2587         896.00      3894.59
 1092.40        2981.50           2591         874.00      3798.66
 1092.43        2981.75           2594         883.00      3837.90
 1092.46        2982.00           2598         875.00      3803.02
 1092.49        2982.25           2601         832.00      3615.53
 1092.52        2982.50           2605         866.00      3763.78
 1092.55        2982.75           2609         829.00      3602.45
 1092.58        2983.00           2612         855.00      3715.81
 1092.61        2983.25           2616         869.00      3776.86
 1092.65        2983.50           2619         822.00      3571.92
 1092.68        2983.75           2623         815.00      3541.40
 1092.71        2984.00           2626         860.00      3737.62
HS scan finished at 18:12:56
end
