************************************************************
  HS Scan of (1) Internal mercury lamp
************************************************************
Integration time is 0.2294 seconds per sample
dh201018Reading 51.44 .94 2.74pr1000
************************************************************
Dead Time -------------------------  3.4E-08 
Number of Cycles Used -------------  4 
Starting Wavelength (Angstroms) ---  2950 
Final Wavelength (Angstoms) -------  2984 
Wavelength Increment (Angstroms) --  .25 
Filter Wheel #1 Position ---------- (1) Ground quartz diffuser (ND=2.32)
Filter Wheel #2 Position ---------- (1) Neutral Density 0.494



************************************************************
HS scan start time = 03:53:14
Dark Count =  .5 


Time (GMT)  Wavelength (Ang)  Step Number  Raw Counts  Counts/Second

  234.13        2950.00           2144        1474.00      6424.68
  234.33        2950.25           2147        1474.00      6424.68
  234.36        2950.50           2151        1473.00      6420.32
  234.39        2950.75           2155        1502.00      6546.79
  234.42        2951.00           2158        1513.00      6594.77
  234.45        2951.25           2162        1486.00      6477.02
  234.49        2951.50           2165        1492.00      6503.18
  234.52        2951.75           2169        1499.00      6533.71
  234.55        2952.00           2172        1490.00      6494.46
  234.58        2952.25           2176        1511.00      6586.04
  234.61        2952.50           2179        1480.00      6450.85
  234.64        2952.75           2183        1509.00      6577.32
  234.67        2953.00           2186        1514.00      6599.13
  234.70        2953.25           2190        1543.00      6725.60
  234.73        2953.50           2193        1543.00      6725.60
  234.76        2953.75           2197        1564.00      6817.19
  234.79        2954.00           2200        1546.00      6738.68
  234.82        2954.25           2204        1539.00      6708.16
  234.85        2954.50           2208        1533.00      6681.99
  234.88        2954.75           2211        1585.00      6908.77
  234.92        2955.00           2215        1554.00      6773.57
  234.95        2955.25           2218        1567.00      6830.27
  234.98        2955.50           2222        1582.00      6895.69
  235.01        2955.75           2225        1580.00      6886.97
  235.04        2956.00           2229        1614.00      7035.25
  235.07        2956.25           2232        1602.00      6982.91
  235.10        2956.50           2236        1597.00      6961.11
  235.13        2956.75           2239        1644.00      7166.09
  235.16        2957.00           2243        1654.00      7209.70
  235.19        2957.25           2246        1610.00      7017.80
  235.22        2957.50           2250        1664.00      7253.31
  235.25        2957.75           2254        1646.00      7174.81
  235.28        2958.00           2257        1664.00      7253.31
  235.31        2958.25           2261        1708.00      7445.22
  235.34        2958.50           2264        1708.00      7445.22
  235.37        2958.75           2268        1712.00      7462.66
  235.40        2959.00           2271        1712.00      7462.66
  235.44        2959.25           2275        1771.00      7719.99
  235.47        2959.50           2278        1775.00      7737.43
  235.50        2959.75           2282        1820.00      7933.70
  235.53        2960.00           2285        1844.00      8038.38
  235.56        2960.25           2289        1860.00      8108.16
  235.59        2960.50           2293        1843.00      8034.02
  235.62        2960.75           2296        1905.00      8304.44
  235.65        2961.00           2300        1972.00      8596.67
  235.68        2961.25           2303        2208.00      9626.08
  235.71        2961.50           2307        5046.00     22010.80
  235.74        2961.75           2310       13085.00     57148.86
  235.77        2962.00           2314       28922.00    126618.50
  235.81        2962.25           2317       42065.00    184521.50
  235.84        2962.50           2321       59268.00    260658.60
  235.87        2962.75           2324       74541.00    328587.40
  235.90        2963.00           2328       96519.00    426894.70
  235.93        2963.25           2331      113527.00    503428.20
  235.96        2963.50           2335      135499.00    602897.50
  235.99        2963.75           2339      154790.00    690793.70
  236.03        2964.00           2342      170004.00    760490.60
  236.06        2964.25           2346      191536.00    859706.80
  236.09        2964.50           2349      207163.00    932141.20
  236.12        2964.75           2353      228828.00   1033167.00
  236.15        2965.00           2356      244051.00   1104578.00
  236.18        2965.25           2360      264055.00   1198958.00
  236.21        2965.50           2363      279566.00   1272568.00
  236.24        2965.75           2367      297758.00   1359384.00
  236.27        2966.00           2370      310792.00   1421909.00
  236.30        2966.25           2374      327581.00   1502850.00
  236.33        2966.50           2378      339870.00   1562389.00
  236.36        2966.75           2381      345965.00   1592010.00
  236.39        2967.00           2385      347565.00   1599796.00
  236.42        2967.25           2388      347774.00   1600813.00
  236.45        2967.50           2392      348457.00   1604139.00
  236.48        2967.75           2395      347100.00   1597533.00
  236.51        2968.00           2399      342472.00   1575027.00
  236.54        2968.25           2402      333885.00   1533361.00
  236.58        2968.50           2406      318381.00   1458439.00
  236.61        2968.75           2409      304815.00   1393203.00
  236.64        2969.00           2413      286339.00   1304829.00
  236.67        2969.25           2417      266760.00   1211768.00
  236.70        2969.50           2420      253652.00   1149799.00
  236.73        2969.75           2424      233711.00   1056035.00
  236.76        2970.00           2427      217120.00    978484.00
  236.79        2970.25           2431      195343.00    877319.60
  236.82        2970.50           2434      179569.00    804480.90
  236.85        2970.75           2438      158951.00    709822.50
  236.88        2971.00           2441      144158.00    642285.10
  236.91        2971.25           2445      124202.00    551670.10
  236.94        2971.50           2449      103547.00    458470.90
  236.97        2971.75           2452       88724.00    391952.00
  237.00        2972.00           2456       68342.00    300978.50
  237.03        2972.25           2459       53508.00    235121.90
  237.06        2972.50           2463       33972.00    148839.80
  237.10        2972.75           2466       19759.00     86384.56
  237.13        2973.00           2470        6533.00     28504.07
  237.16        2973.25           2473        3196.00     13936.42
  237.19        2973.50           2477        2208.00      9626.08
  237.22        2973.75           2481        1912.00      8334.97
  237.25        2974.00           2484        1885.00      8217.20
  237.28        2974.25           2488        1883.00      8208.48
  237.31        2974.50           2491        1818.00      7924.98
  237.34        2974.75           2495        1770.00      7715.63
  237.37        2975.00           2498        1762.00      7680.73
  237.40        2975.25           2502        1715.00      7475.74
  237.43        2975.50           2505        1708.00      7445.22
  237.46        2975.75           2509        1689.00      7362.35
  237.49        2976.00           2512        1686.00      7349.26
  237.52        2976.25           2516        1667.00      7266.40
  237.55        2976.50           2520        1648.00      7183.53
  237.58        2976.75           2523        1641.00      7153.00
  237.62        2977.00           2527        1603.00      6987.27
  237.65        2977.25           2530        1596.00      6956.75
  237.68        2977.50           2534        1611.00      7022.16
  237.71        2977.75           2537        1597.00      6961.11
  237.74        2978.00           2541        1550.00      6756.13
  237.77        2978.25           2544        1574.00      6860.80
  237.80        2978.50           2548        1523.00      6638.38
  237.83        2978.75           2552        1505.00      6559.88
  237.86        2979.00           2555        1512.00      6590.40
  237.89        2979.25           2559        1514.00      6599.13
  237.92        2979.50           2562        1531.00      6673.27
  237.95        2979.75           2566        1519.00      6620.93
  237.98        2980.00           2569        1466.00      6389.79
  238.01        2980.25           2573        1465.00      6385.43
  238.04        2980.50           2577        1460.00      6363.63
  238.07        2980.75           2580        1463.00      6376.71
  238.10        2981.00           2584        1466.00      6389.79
  238.14        2981.25           2587        1448.00      6311.29
  238.17        2981.50           2591        1444.00      6293.85
  238.20        2981.75           2594        1430.00      6232.79
  238.23        2982.00           2598        1433.00      6245.88
  238.26        2982.25           2601        1444.00      6293.85
  238.29        2982.50           2605        1405.00      6123.77
  238.32        2982.75           2609        1419.00      6184.82
  238.35        2983.00           2612        1410.00      6145.57
  238.38        2983.25           2616        1402.00      6110.69
  238.41        2983.50           2619        1378.00      6006.02
  238.44        2983.75           2623        1394.00      6075.80
  238.47        2984.00           2626        1398.00      6093.24
HS scan finished at 03:58:42
end
************************************************************
  HS Scan of (1) Internal mercury lamp
************************************************************
Integration time is 0.2294 seconds per sample
dh201018Reading 51.44 .94 3.49pr1000
************************************************************
Dead Time -------------------------  3.4E-08 
Number of Cycles Used -------------  4 
Starting Wavelength (Angstroms) ---  2950 
Final Wavelength (Angstoms) -------  2984 
Wavelength Increment (Angstroms) --  .25 
Filter Wheel #1 Position ---------- (1) Ground quartz diffuser (ND=2.32)
Filter Wheel #2 Position ---------- (1) Neutral Density 0.494



************************************************************
HS scan start time = 18:07:30
Dark Count =  2.9 


Time (GMT)  Wavelength (Ang)  Step Number  Raw Counts  Counts/Second

 1088.41        2950.00           2144        1050.00      4565.22
 1088.60        2950.25           2147        1035.00      4499.82
 1088.63        2950.50           2151        1037.00      4508.54
 1088.66        2950.75           2155        1057.00      4595.75
 1088.69        2951.00           2158        1050.00      4565.22
 1088.72        2951.25           2162        1024.00      4451.85
 1088.75        2951.50           2165        1036.00      4504.18
 1088.78        2951.75           2169        1055.00      4587.03
 1088.81        2952.00           2172        1066.00      4634.99
 1088.84        2952.25           2176        1063.00      4621.91
 1088.87        2952.50           2179        1065.00      4630.63
 1088.91        2952.75           2183        1064.00      4626.27
 1088.94        2953.00           2186        1072.00      4661.16
 1088.97        2953.25           2190        1102.00      4791.98
 1089.00        2953.50           2193        1083.00      4709.12
 1089.03        2953.75           2197        1101.00      4787.61
 1089.06        2954.00           2200        1069.00      4648.08
 1089.09        2954.25           2204        1104.00      4800.70
 1089.12        2954.50           2208        1089.00      4735.29
 1089.15        2954.75           2211        1111.00      4831.22
 1089.18        2955.00           2215        1114.00      4844.30
 1089.21        2955.25           2218        1154.00      5018.73
 1089.24        2955.50           2222        1155.00      5023.09
 1089.27        2955.75           2225        1159.00      5040.53
 1089.30        2956.00           2229        1157.00      5031.81
 1089.33        2956.25           2232        1162.00      5053.61
 1089.36        2956.50           2236        1146.00      4983.84
 1089.39        2956.75           2239        1160.00      5044.89
 1089.43        2957.00           2243        1151.00      5005.65
 1089.46        2957.25           2246        1198.00      5210.60
 1089.49        2957.50           2250        1199.00      5214.96
 1089.52        2957.75           2254        1228.00      5341.42
 1089.55        2958.00           2257        1227.00      5337.06
 1089.58        2958.25           2261        1223.00      5319.62
 1089.61        2958.50           2264        1231.00      5354.51
 1089.64        2958.75           2268        1255.00      5459.17
 1089.67        2959.00           2271        1275.00      5546.38
 1089.70        2959.25           2275        1300.00      5655.40
 1089.73        2959.50           2278        1293.00      5624.88
 1089.76        2959.75           2282        1320.00      5742.62
 1089.79        2960.00           2285        1343.00      5842.92
 1089.82        2960.25           2289        1312.00      5707.73
 1089.85        2960.50           2293        1375.00      5982.47
 1089.88        2960.75           2296        1455.00      6331.35
 1089.92        2961.00           2300        1525.00      6636.63
 1089.95        2961.25           2303        1821.00      7927.59
 1089.98        2961.50           2307        4783.00     20852.18
 1090.01        2961.75           2310       12105.00     52850.33
 1090.04        2962.00           2314       26145.00    114402.70
 1090.07        2962.25           2317       37815.00    165762.00
 1090.11        2962.50           2321       54762.00    240667.00
 1090.14        2962.75           2324       68435.00    301381.60
 1090.17        2963.00           2328       88870.00    392594.90
 1090.20        2963.25           2331      103452.00    458032.90
 1090.23        2963.50           2335      123373.00    547907.10
 1090.26        2963.75           2339      140698.00    626522.60
 1090.29        2964.00           2342      154471.00    689324.90
 1090.32        2964.25           2346      172927.00    773908.60
 1090.35        2964.50           2349      187463.00    840875.80
 1090.38        2964.75           2353      205899.00    926257.70
 1090.41        2965.00           2356      218863.00    986600.60
 1090.44        2965.25           2360      237137.00   1072090.00
 1090.47        2965.50           2363      248566.00   1125815.00
 1090.50        2965.75           2367      266058.00   1208431.00
 1090.53        2966.00           2370      279202.00   1270825.00
 1090.56        2966.25           2374      296674.00   1354184.00
 1090.59        2966.50           2378      309574.00   1416043.00
 1090.63        2966.75           2381      313225.00   1433598.00
 1090.66        2967.00           2385      315093.00   1442589.00
 1090.69        2967.25           2388      315547.00   1444775.00
 1090.72        2967.50           2392      315714.00   1445579.00
 1090.75        2967.75           2395      315495.00   1444525.00
 1090.78        2968.00           2399      312916.00   1432112.00
 1090.81        2968.25           2402      306723.00   1402348.00
 1090.84        2968.50           2406      291133.00   1327696.00
 1090.87        2968.75           2409      279003.00   1269878.00
 1090.90        2969.00           2413      263355.00   1195634.00
 1090.93        2969.25           2417      247227.00   1119510.00
 1090.96        2969.50           2420      234785.00   1061058.00
 1090.99        2969.75           2424      215020.00    968686.40
 1091.02        2970.00           2427      199784.00    897881.70
 1091.05        2970.25           2431      178854.00    801176.80
 1091.08        2970.50           2434      164989.00    737468.40
 1091.11        2970.75           2438      145485.00    648319.80
 1091.14        2971.00           2441      130268.00    579143.70
 1091.18        2971.25           2445      110962.00    491849.50
 1091.21        2971.50           2449       92125.00    407176.60
 1091.24        2971.75           2452       76367.00    336719.20
 1091.27        2972.00           2456       57022.00    250685.20
 1091.30        2972.25           2459       43213.00    189579.40
 1091.33        2972.50           2463       25778.00    112790.50
 1091.36        2972.75           2466       14781.00     64562.23
 1091.39        2973.00           2470        5533.00     24126.59
 1091.42        2973.25           2473        2679.00     11670.28
 1091.45        2973.50           2477        1603.00      6976.81
 1091.48        2973.75           2481        1499.00      6523.24
 1091.51        2974.00           2484        1427.00      6209.24
 1091.54        2974.25           2488        1376.00      5986.83
 1091.57        2974.50           2491        1411.00      6139.47
 1091.60        2974.75           2495        1345.00      5851.64
 1091.63        2975.00           2498        1345.00      5851.64
 1091.67        2975.25           2502        1302.00      5664.13
 1091.70        2975.50           2505        1283.00      5581.27
 1091.73        2975.75           2509        1288.00      5603.07
 1091.76        2976.00           2512        1258.00      5472.25
 1091.79        2976.25           2516        1247.00      5424.28
 1091.82        2976.50           2520        1187.00      5162.63
 1091.85        2976.75           2523        1205.00      5241.13
 1091.88        2977.00           2527        1173.00      5101.58
 1091.91        2977.25           2530        1179.00      5127.75
 1091.94        2977.50           2534        1225.00      5328.34
 1091.97        2977.75           2537        1216.00      5289.09
 1092.00        2978.00           2541        1149.00      4996.93
 1092.03        2978.25           2544        1129.00      4909.71
 1092.06        2978.50           2548        1137.00      4944.60
 1092.09        2978.75           2552        1107.00      4813.78
 1092.12        2979.00           2555        1109.00      4822.50
 1092.15        2979.25           2559        1147.00      4988.20
 1092.18        2979.50           2562        1103.00      4796.34
 1092.22        2979.75           2566        1091.00      4744.01
 1092.25        2980.00           2569        1090.00      4739.65
 1092.28        2980.25           2573        1082.00      4704.76
 1092.31        2980.50           2577        1068.00      4643.72
 1092.34        2980.75           2580        1058.00      4600.11
 1092.37        2981.00           2584        1024.00      4451.85
 1092.40        2981.25           2587        1016.00      4416.97
 1092.43        2981.50           2591        1054.00      4582.67
 1092.46        2981.75           2594        1046.00      4547.78
 1092.49        2982.00           2598        1018.00      4425.69
 1092.52        2982.25           2601        1040.00      4521.62
 1092.55        2982.50           2605        1018.00      4425.69
 1092.58        2982.75           2609        1015.00      4412.61
 1092.61        2983.00           2612        1012.00      4399.53
 1092.64        2983.25           2616        1025.00      4456.21
 1092.67        2983.50           2619        1005.00      4369.00
 1092.70        2983.75           2623         970.00      4216.39
 1092.74        2984.00           2626        1013.00      4403.89
HS scan finished at 18:12:58
end
