************************************************************
  HS Scan of (1) Internal mercury lamp
************************************************************
Integration time is 0.2294 seconds per sample
dh171017Reading 51.44 .94 3.05pr1000
************************************************************
Dead Time -------------------------  3.4E-08 
Number of Cycles Used -------------  4 
Starting Wavelength (Angstroms) ---  2950 
Final Wavelength (Angstoms) -------  2984 
Wavelength Increment (Angstroms) --  .25 
Filter Wheel #1 Position ---------- (1) Ground quartz diffuser (ND=2.32)
Filter Wheel #2 Position ---------- (1) Neutral Density 0.494



************************************************************
HS scan start time = 03:48:04
Dark Count =  .9 


Time (GMT)  Wavelength (Ang)  Step Number  Raw Counts  Counts/Second

  228.96        2950.00           2144         111.00       479.96
  229.16        2950.25           2147         119.00       514.83
  229.19        2950.50           2151         131.00       567.14
  229.22        2950.75           2155         102.00       440.72
  229.25        2951.00           2158         132.00       571.50
  229.28        2951.25           2162         152.00       658.69
  229.31        2951.50           2165         151.00       654.33
  229.34        2951.75           2169         122.00       527.91
  229.37        2952.00           2172         108.00       466.88
  229.40        2952.25           2176         113.00       488.67
  229.44        2952.50           2179         110.00       475.60
  229.47        2952.75           2183         146.00       632.53
  229.50        2953.00           2186         117.00       506.11
  229.53        2953.25           2190         147.00       636.89
  229.56        2953.50           2193         123.00       532.27
  229.59        2953.75           2197         147.00       636.89
  229.62        2954.00           2200         127.00       549.71
  229.65        2954.25           2204         142.00       615.10
  229.68        2954.50           2208         124.00       536.63
  229.71        2954.75           2211         128.00       554.06
  229.74        2955.00           2215         115.00       497.39
  229.77        2955.25           2218         135.00       584.58
  229.81        2955.50           2222         135.00       584.58
  229.84        2955.75           2225         120.00       519.19
  229.87        2956.00           2229         158.00       684.85
  229.90        2956.25           2232         133.00       575.86
  229.93        2956.50           2236         153.00       663.05
  229.96        2956.75           2239         134.00       580.22
  229.99        2957.00           2243         141.00       610.74
  230.03        2957.25           2246         152.00       658.69
  230.07        2957.50           2250         145.00       628.17
  230.10        2957.75           2254         150.00       649.97
  230.13        2958.00           2257         144.00       623.81
  230.16        2958.25           2261         144.00       623.81
  230.19        2958.50           2264         148.00       641.25
  230.22        2958.75           2268         140.00       606.38
  230.25        2959.00           2271         160.00       693.56
  230.28        2959.25           2275         149.00       645.61
  230.31        2959.50           2278         157.00       680.49
  230.34        2959.75           2282         166.00       719.72
  230.37        2960.00           2285         160.00       693.56
  230.40        2960.25           2289         168.00       728.44
  230.43        2960.50           2293         171.00       741.52
  230.46        2960.75           2296         166.00       719.72
  230.49        2961.00           2300         178.00       772.03
  230.52        2961.25           2303         326.00      1417.24
  230.55        2961.50           2307        1315.00      5729.54
  230.59        2961.75           2310        2705.00     11792.44
  230.62        2962.00           2314        4832.00     21074.82
  230.65        2962.25           2317        6582.00     28716.34
  230.68        2962.50           2321        9117.00     39792.68
  230.71        2962.75           2324       10983.00     47951.26
  230.74        2963.00           2328       13672.00     59716.15
  230.77        2963.25           2331       15673.00     68477.03
  230.80        2963.50           2335       18100.00     79110.06
  230.83        2963.75           2339       20598.00     90062.19
  230.86        2964.00           2342       22730.00     99416.12
  230.89        2964.25           2346       25533.00    111723.10
  230.92        2964.50           2349       27451.00    120150.20
  230.95        2964.75           2353       30083.00    131722.40
  230.98        2965.00           2356       32034.00    140306.40
  231.01        2965.25           2360       34355.00    150524.70
  231.04        2965.50           2363       36196.00    158634.90
  231.07        2965.75           2367       38555.00    169033.60
  231.10        2966.00           2370       40284.00    176659.90
  231.14        2966.25           2374       42602.00    186890.40
  231.17        2966.50           2378       43866.00    192472.10
  231.20        2966.75           2381       44559.00    195533.20
  231.23        2967.00           2385       44413.00    194888.20
  231.26        2967.25           2388       44527.00    195391.90
  231.29        2967.50           2392       44480.00    195184.20
  231.32        2967.75           2395       44252.00    194177.10
  231.35        2968.00           2399       43273.00    189853.20
  231.38        2968.25           2402       41077.00    180159.00
  231.41        2968.50           2406       38856.00    170361.00
  231.44        2968.75           2409       37069.00    162482.30
  231.47        2969.00           2413       34810.00    152528.70
  231.50        2969.25           2417       32281.00    141393.40
  231.53        2969.50           2420       30528.00    133679.90
  231.56        2969.75           2424       28054.00    122800.70
  231.59        2970.00           2427       26040.00    113950.20
  231.63        2970.25           2431       23259.00    101738.00
  231.66        2970.50           2434       21290.00     93097.62
  231.69        2970.75           2438       18618.00     81380.50
  231.72        2971.00           2441       16728.00     73098.19
  231.75        2971.25           2445       14523.00     63441.41
  231.78        2971.50           2449       12084.00     52767.21
  231.81        2971.75           2452       10173.00     44409.20
  231.84        2972.00           2456        7479.00     32634.71
  231.87        2972.25           2459        5479.00     23899.54
  231.90        2972.50           2463        3053.00     13310.73
  231.93        2972.75           2466        1711.00      7456.55
  231.96        2973.00           2470         561.00      2441.79
  231.99        2973.25           2473         282.00      1225.42
  232.02        2973.50           2477         220.00       955.13
  232.05        2973.75           2481         185.00       802.55
  232.08        2974.00           2484         189.00       819.99
  232.11        2974.25           2488         175.00       758.96
  232.14        2974.50           2491         163.00       706.64
  232.18        2974.75           2495         170.00       737.16
  232.21        2975.00           2498         168.00       728.44
  232.24        2975.25           2502         157.00       680.49
  232.27        2975.50           2505         146.00       632.53
  232.30        2975.75           2509         149.00       645.61
  232.33        2976.00           2512         170.00       737.16
  232.36        2976.25           2516         152.00       658.69
  232.39        2976.50           2520         149.00       645.61
  232.42        2976.75           2523         126.00       545.35
  232.45        2977.00           2527         133.00       575.86
  232.48        2977.25           2530         141.00       610.74
  232.51        2977.50           2534         164.00       711.00
  232.54        2977.75           2537         149.00       645.61
  232.57        2978.00           2541         155.00       671.77
  232.60        2978.25           2544         127.00       549.71
  232.63        2978.50           2548         129.00       558.42
  232.66        2978.75           2552         146.00       632.53
  232.70        2979.00           2555         142.00       615.10
  232.73        2979.25           2559         126.00       545.35
  232.76        2979.50           2562         176.00       763.32
  232.79        2979.75           2566         118.00       510.47
  232.82        2980.00           2569         138.00       597.66
  232.85        2980.25           2573         144.00       623.81
  232.88        2980.50           2577         111.00       479.96
  232.91        2980.75           2580         172.00       745.88
  232.94        2981.00           2584         134.00       580.22
  232.97        2981.25           2587         114.00       493.03
  233.00        2981.50           2591         133.00       575.86
  233.03        2981.75           2594         139.00       602.02
  233.06        2982.00           2598         114.00       493.03
  233.09        2982.25           2601         127.00       549.71
  233.12        2982.50           2605         126.00       545.35
  233.15        2982.75           2609         109.00       471.24
  233.19        2983.00           2612         116.00       501.75
  233.22        2983.25           2616         142.00       615.10
  233.25        2983.50           2619         130.00       562.78
  233.28        2983.75           2623         106.00       458.16
  233.31        2984.00           2626         112.00       484.31
HS scan finished at 03:53:32
end
************************************************************
  HS Scan of (1) Internal mercury lamp
************************************************************
Integration time is 0.2294 seconds per sample
dh171017Reading 51.44 .94 3.23pr1000
************************************************************
Dead Time -------------------------  3.4E-08 
Number of Cycles Used -------------  4 
Starting Wavelength (Angstroms) ---  2950 
Final Wavelength (Angstoms) -------  2984 
Wavelength Increment (Angstroms) --  .25 
Filter Wheel #1 Position ---------- (1) Ground quartz diffuser (ND=2.32)
Filter Wheel #2 Position ---------- (1) Neutral Density 0.494



************************************************************
HS scan start time = 18:07:28
Dark Count =  1.3 


Time (GMT)  Wavelength (Ang)  Step Number  Raw Counts  Counts/Second

 1088.36        2950.00           2144         123.00       530.52
 1088.55        2950.25           2147         134.00       578.48
 1088.58        2950.50           2151         106.00       456.42
 1088.62        2950.75           2155         107.00       460.77
 1088.65        2951.00           2158         115.00       495.65
 1088.68        2951.25           2162         103.00       443.34
 1088.71        2951.50           2165         122.00       526.16
 1088.74        2951.75           2169         106.00       456.42
 1088.77        2952.00           2172         101.00       434.62
 1088.80        2952.25           2176         108.00       465.13
 1088.83        2952.50           2179         109.00       469.49
 1088.86        2952.75           2183         105.00       452.06
 1088.89        2953.00           2186         114.00       491.29
 1088.92        2953.25           2190         112.00       482.57
 1088.95        2953.50           2193         101.00       434.62
 1088.98        2953.75           2197         119.00       513.09
 1089.01        2954.00           2200         106.00       456.42
 1089.04        2954.25           2204         121.00       521.81
 1089.07        2954.50           2208         113.00       486.93
 1089.10        2954.75           2211         127.00       547.96
 1089.13        2955.00           2215         157.00       678.74
 1089.17        2955.25           2218         135.00       582.84
 1089.20        2955.50           2222         118.00       508.73
 1089.23        2955.75           2225         131.00       565.40
 1089.26        2956.00           2229         138.00       595.91
 1089.29        2956.25           2232         137.00       591.56
 1089.32        2956.50           2236         152.00       656.95
 1089.35        2956.75           2239         153.00       661.31
 1089.38        2957.00           2243         189.00       818.24
 1089.41        2957.25           2246         142.00       613.35
 1089.44        2957.50           2250         160.00       691.82
 1089.47        2957.75           2254         126.00       543.60
 1089.50        2958.00           2257         142.00       613.35
 1089.53        2958.25           2261         141.00       608.99
 1089.56        2958.50           2264         146.00       630.79
 1089.59        2958.75           2268         135.00       582.84
 1089.62        2959.00           2271         145.00       626.43
 1089.65        2959.25           2275         148.00       639.51
 1089.69        2959.50           2278         148.00       639.51
 1089.72        2959.75           2282         153.00       661.31
 1089.75        2960.00           2285         144.00       622.07
 1089.78        2960.25           2289         149.00       643.87
 1089.81        2960.50           2293         178.00       770.29
 1089.84        2960.75           2296         162.00       700.54
 1089.87        2961.00           2300         173.00       748.49
 1089.90        2961.25           2303         250.00      1084.17
 1089.93        2961.50           2307         946.00      4118.71
 1089.96        2961.75           2310        2169.00      9452.47
 1089.99        2962.00           2314        4165.00     18161.61
 1090.02        2962.25           2317        5728.00     24985.04
 1090.05        2962.50           2321        7953.00     34703.96
 1090.08        2962.75           2324        9755.00     42579.91
 1090.11        2963.00           2328       12505.00     54607.40
 1090.14        2963.25           2331       14631.00     63912.49
 1090.17        2963.50           2335       17472.00     76356.21
 1090.21        2963.75           2339       19985.00     87372.07
 1090.24        2964.00           2342       21986.00     96149.46
 1090.27        2964.25           2346       24463.00    107022.10
 1090.30        2964.50           2349       26185.00    114585.50
 1090.33        2964.75           2353       28553.00    124992.60
 1090.36        2965.00           2356       30360.00    132939.10
 1090.39        2965.25           2360       32727.00    143354.80
 1090.42        2965.50           2363       34439.00    150892.90
 1090.45        2965.75           2367       37156.00    162864.00
 1090.48        2966.00           2370       38707.00    169702.20
 1090.51        2966.25           2374       40491.00    177571.50
 1090.54        2966.50           2378       41840.00    183524.80
 1090.57        2966.75           2381       42214.00    185175.70
 1090.60        2967.00           2385       42419.00    186080.70
 1090.63        2967.25           2388       42317.00    185630.40
 1090.66        2967.50           2392       42034.00    184381.10
 1090.69        2967.75           2395       42156.00    184919.70
 1090.73        2968.00           2399       40897.00    179362.90
 1090.76        2968.25           2402       39325.00    172427.70
 1090.79        2968.50           2406       37040.00    162352.80
 1090.82        2968.75           2409       35007.00    153394.70
 1090.85        2969.00           2413       32519.00    142439.30
 1090.88        2969.25           2417       30232.00    132376.10
 1090.91        2969.50           2420       28367.00    124174.90
 1090.94        2969.75           2424       26186.00    114589.90
 1090.97        2970.00           2427       24419.00    106828.90
 1091.00        2970.25           2431       21998.00     96202.12
 1091.03        2970.50           2434       19960.00     87262.44
 1091.06        2970.75           2438       17152.00     74954.07
 1091.09        2971.00           2441       15238.00     66570.30
 1091.12        2971.25           2445       12796.00     55880.71
 1091.15        2971.50           2449       10406.00     45426.26
 1091.18        2971.75           2452        8763.00     38243.68
 1091.21        2972.00           2456        6368.00     27779.93
 1091.25        2972.25           2459        4562.00     19894.45
 1091.28        2972.50           2463        2441.00     10638.98
 1091.31        2972.75           2466        1232.00      5365.84
 1091.34        2973.00           2470         386.00      1677.08
 1091.37        2973.25           2473         231.00      1001.34
 1091.40        2973.50           2477         194.00       840.04
 1091.43        2973.75           2481         171.00       739.77
 1091.46        2974.00           2484         169.00       731.06
 1091.49        2974.25           2488         164.00       709.26
 1091.52        2974.50           2491         154.00       665.66
 1091.55        2974.75           2495         171.00       739.77
 1091.58        2975.00           2498         151.00       652.59
 1091.61        2975.25           2502         154.00       665.66
 1091.64        2975.50           2505         153.00       661.31
 1091.67        2975.75           2509         146.00       630.79
 1091.70        2976.00           2512         145.00       626.43
 1091.73        2976.25           2516         148.00       639.51
 1091.77        2976.50           2520         134.00       578.48
 1091.80        2976.75           2523         158.00       683.10
 1091.83        2977.00           2527         143.00       617.71
 1091.86        2977.25           2530         156.00       674.38
 1091.89        2977.50           2534         161.00       696.18
 1091.92        2977.75           2537         141.00       608.99
 1091.95        2978.00           2541         133.00       574.12
 1091.98        2978.25           2544         127.00       547.96
 1092.01        2978.50           2548         137.00       591.56
 1092.04        2978.75           2552         119.00       513.09
 1092.07        2979.00           2555         133.00       574.12
 1092.10        2979.25           2559         135.00       582.84
 1092.13        2979.50           2562         152.00       656.95
 1092.16        2979.75           2566         117.00       504.37
 1092.19        2980.00           2569         151.00       652.59
 1092.22        2980.25           2573         106.00       456.42
 1092.25        2980.50           2577         107.00       460.77
 1092.29        2980.75           2580         129.00       556.68
 1092.32        2981.00           2584         128.00       552.32
 1092.35        2981.25           2587         165.00       713.62
 1092.38        2981.50           2591         135.00       582.84
 1092.41        2981.75           2594         110.00       473.85
 1092.44        2982.00           2598         139.00       600.27
 1092.47        2982.25           2601         113.00       486.93
 1092.50        2982.50           2605         117.00       504.37
 1092.53        2982.75           2609         102.00       438.98
 1092.56        2983.00           2612         104.00       447.70
 1092.59        2983.25           2616         111.00       478.21
 1092.62        2983.50           2619         134.00       578.48
 1092.65        2983.75           2623         106.00       456.42
 1092.68        2984.00           2626         100.00       430.26
HS scan finished at 18:12:54
end
