************************************************************
  HS Scan of (1) Internal mercury lamp
************************************************************
Integration time is 0.2294 seconds per sample
dh231018Reading 51.44 .94 2.72pr1000
************************************************************
Dead Time -------------------------  3.4E-08 
Number of Cycles Used -------------  4 
Starting Wavelength (Angstroms) ---  2950 
Final Wavelength (Angstoms) -------  2984 
Wavelength Increment (Angstroms) --  .25 
Filter Wheel #1 Position ---------- (1) Ground quartz diffuser (ND=2.32)
Filter Wheel #2 Position ---------- (1) Neutral Density 0.494



************************************************************
HS scan start time = 03:58:43
Dark Count =  .5 


Time (GMT)  Wavelength (Ang)  Step Number  Raw Counts  Counts/Second

  239.62        2950.00           2144        1527.00      6655.82
  239.81        2950.25           2147        1549.00      6751.77
  239.84        2950.50           2151        1555.00      6777.94
  239.87        2950.75           2155        1572.00      6852.08
  239.90        2951.00           2158        1559.00      6795.38
  239.93        2951.25           2162        1581.00      6891.33
  239.96        2951.50           2165        1513.00      6594.77
  239.99        2951.75           2169        1566.00      6825.91
  240.02        2952.00           2172        1555.00      6777.94
  240.05        2952.25           2176        1563.00      6812.82
  240.08        2952.50           2179        1551.00      6760.49
  240.11        2952.75           2183        1557.00      6786.66
  240.15        2953.00           2186        1561.00      6804.10
  240.18        2953.25           2190        1561.00      6804.10
  240.21        2953.50           2193        1609.00      7013.44
  240.24        2953.75           2197        1596.00      6956.75
  240.27        2954.00           2200        1614.00      7035.25
  240.30        2954.25           2204        1568.00      6834.63
  240.33        2954.50           2208        1602.00      6982.91
  240.36        2954.75           2211        1643.00      7161.73
  240.39        2955.00           2215        1624.00      7078.86
  240.42        2955.25           2218        1653.00      7205.34
  240.45        2955.50           2222        1625.00      7083.22
  240.48        2955.75           2225        1610.00      7017.80
  240.51        2956.00           2229        1664.00      7253.31
  240.54        2956.25           2232        1643.00      7161.73
  240.57        2956.50           2236        1678.00      7314.37
  240.60        2956.75           2239        1678.00      7314.37
  240.63        2957.00           2243        1664.00      7253.31
  240.66        2957.25           2246        1703.00      7423.41
  240.70        2957.50           2250        1716.00      7480.11
  240.73        2957.75           2254        1710.00      7453.94
  240.76        2958.00           2257        1746.00      7610.95
  240.79        2958.25           2261        1748.00      7619.67
  240.82        2958.50           2264        1769.00      7711.26
  240.85        2958.75           2268        1750.00      7628.40
  240.88        2959.00           2271        1777.00      7746.16
  240.91        2959.25           2275        1795.00      7824.66
  240.94        2959.50           2278        1790.00      7802.85
  240.97        2959.75           2282        1833.00      7990.40
  241.00        2960.00           2285        1825.00      7955.51
  241.03        2960.25           2289        1945.00      8478.91
  241.06        2960.50           2293        1929.00      8409.12
  241.09        2960.75           2296        1981.00      8635.93
  241.12        2961.00           2300        2052.00      8945.62
  241.15        2961.25           2303        2417.00     10537.78
  241.18        2961.50           2307        5756.00     25110.79
  241.22        2961.75           2310       13343.00     58277.96
  241.25        2962.00           2314       28466.00    124613.60
  241.28        2962.25           2317       41785.00    183285.60
  241.31        2962.50           2321       60085.00    264284.40
  241.34        2962.75           2324       74620.00    328939.50
  241.37        2963.00           2328       95766.00    423515.50
  241.40        2963.25           2331      112219.00    497528.00
  241.43        2963.50           2335      134001.00    596094.30
  241.46        2963.75           2339      155980.00    696233.10
  241.49        2964.00           2342      171339.00    766622.40
  241.52        2964.25           2346      191441.00    859267.50
  241.55        2964.50           2349      206877.00    930812.40
  241.58        2964.75           2353      230349.00   1040286.00
  241.61        2965.00           2356      246058.00   1114020.00
  241.64        2965.25           2360      265384.00   1205250.00
  241.67        2965.50           2363      279650.00   1272967.00
  241.70        2965.75           2367      296894.00   1355248.00
  241.74        2966.00           2370      309792.00   1417102.00
  241.77        2966.25           2374      331135.00   1520044.00
  241.80        2966.50           2378      348112.00   1602459.00
  241.83        2966.75           2381      353792.00   1630139.00
  241.86        2967.00           2385      356456.00   1643140.00
  241.89        2967.25           2388      357195.00   1646749.00
  241.92        2967.50           2392      357174.00   1646646.00
  241.95        2967.75           2395      356699.00   1644326.00
  241.98        2968.00           2399      354345.00   1632837.00
  242.01        2968.25           2402      348809.00   1605853.00
  242.04        2968.50           2406      333418.00   1531099.00
  242.07        2968.75           2409      318771.00   1460319.00
  242.10        2969.00           2413      298439.00   1362644.00
  242.13        2969.25           2417      278384.00   1266945.00
  242.16        2969.50           2420      263929.00   1198362.00
  242.19        2969.75           2424      244469.00   1106544.00
  242.22        2970.00           2427      226949.00   1024377.00
  242.26        2970.25           2431      202325.00    909677.30
  242.29        2970.50           2434      186152.00    834834.40
  242.32        2970.75           2438      164772.00    736484.60
  242.35        2971.00           2441      148140.00    660434.10
  242.38        2971.25           2445      129465.00    575513.30
  242.41        2971.50           2449      108322.00    479963.80
  242.44        2971.75           2452       90379.00    399363.80
  242.47        2972.00           2456       67972.00    299332.20
  242.50        2972.25           2459       51783.00    227482.90
  242.53        2972.50           2463       31408.00    137553.30
  242.57        2972.75           2466       18267.00     79843.75
  242.60        2973.00           2470        6580.00     28709.35
  242.63        2973.25           2473        3269.00     14254.95
  242.66        2973.50           2477        2178.00      9495.22
  242.69        2973.75           2481        1997.00      8705.72
  242.72        2974.00           2484        1937.00      8444.01
  242.75        2974.25           2488        1883.00      8208.48
  242.78        2974.50           2491        1893.00      8252.10
  242.81        2974.75           2495        1826.00      7959.87
  242.84        2975.00           2498        1853.00      8077.63
  242.87        2975.25           2502        1818.00      7924.98
  242.90        2975.50           2505        1807.00      7877.00
  242.93        2975.75           2509        1773.00      7728.71
  242.96        2976.00           2512        1712.00      7462.66
  242.99        2976.25           2516        1712.00      7462.66
  243.02        2976.50           2520        1680.00      7323.10
  243.05        2976.75           2523        1687.00      7353.63
  243.09        2977.00           2527        1669.00      7275.12
  243.12        2977.25           2530        1663.00      7248.95
  243.15        2977.50           2534        1663.00      7248.95
  243.18        2977.75           2537        1603.00      6987.27
  243.21        2978.00           2541        1597.00      6961.11
  243.24        2978.25           2544        1576.00      6869.52
  243.27        2978.50           2548        1599.00      6969.83
  243.30        2978.75           2552        1592.00      6939.30
  243.33        2979.00           2555        1565.00      6821.55
  243.36        2979.25           2559        1589.00      6926.22
  243.39        2979.50           2562        1526.00      6651.46
  243.42        2979.75           2566        1536.00      6695.07
  243.45        2980.00           2569        1497.00      6524.99
  243.48        2980.25           2573        1530.00      6668.91
  243.51        2980.50           2577        1536.00      6695.07
  243.54        2980.75           2580        1491.00      6498.82
  243.57        2981.00           2584        1482.00      6459.57
  243.61        2981.25           2587        1486.00      6477.02
  243.64        2981.50           2591        1505.00      6559.88
  243.67        2981.75           2594        1467.00      6394.15
  243.70        2982.00           2598        1485.00      6472.65
  243.73        2982.25           2601        1465.00      6385.43
  243.76        2982.50           2605        1458.00      6354.90
  243.79        2982.75           2609        1484.00      6468.29
  243.82        2983.00           2612        1458.00      6354.90
  243.85        2983.25           2616        1436.00      6258.96
  243.88        2983.50           2619        1489.00      6490.10
  243.91        2983.75           2623        1447.00      6306.93
  243.94        2984.00           2626        1423.00      6202.27
HS scan finished at 04:04:10
end
************************************************************
  HS Scan of (1) Internal mercury lamp
************************************************************
Integration time is 0.2294 seconds per sample
dh231018Reading 51.44 .94 3.35pr1000
************************************************************
Dead Time -------------------------  3.4E-08 
Number of Cycles Used -------------  4 
Starting Wavelength (Angstroms) ---  2950 
Final Wavelength (Angstoms) -------  2984 
Wavelength Increment (Angstroms) --  .25 
Filter Wheel #1 Position ---------- (1) Ground quartz diffuser (ND=2.32)
Filter Wheel #2 Position ---------- (1) Neutral Density 0.494



************************************************************
HS scan start time = 17:37:29
Dark Count =  1.9 


Time (GMT)  Wavelength (Ang)  Step Number  Raw Counts  Counts/Second

 1058.38        2950.00           2144         968.00      4212.02
 1058.58        2950.25           2147         972.00      4229.47
 1058.61        2950.50           2151         965.00      4198.94
 1058.64        2950.75           2155         950.00      4133.54
 1058.67        2951.00           2158         940.00      4089.93
 1058.70        2951.25           2162         927.00      4033.25
 1058.73        2951.50           2165         961.00      4181.50
 1058.76        2951.75           2169        1002.00      4360.28
 1058.79        2952.00           2172         974.00      4238.19
 1058.82        2952.25           2176         983.00      4277.43
 1058.85        2952.50           2179         977.00      4251.27
 1058.88        2952.75           2183         985.00      4286.15
 1058.91        2953.00           2186         967.00      4207.66
 1058.95        2953.25           2190         965.00      4198.94
 1058.98        2953.50           2193        1014.00      4412.61
 1059.01        2953.75           2197        1037.00      4512.90
 1059.04        2954.00           2200        1003.00      4364.64
 1059.07        2954.25           2204        1019.00      4434.41
 1059.10        2954.50           2208        1023.00      4451.85
 1059.13        2954.75           2211        1009.00      4390.80
 1059.16        2955.00           2215        1001.00      4355.92
 1059.19        2955.25           2218        1017.00      4425.69
 1059.22        2955.50           2222        1083.00      4713.48
 1059.25        2955.75           2225        1046.00      4552.14
 1059.28        2956.00           2229        1049.00      4565.22
 1059.31        2956.25           2232        1058.00      4604.47
 1059.34        2956.50           2236        1047.00      4556.50
 1059.37        2956.75           2239        1058.00      4604.47
 1059.40        2957.00           2243        1068.00      4648.08
 1059.43        2957.25           2246        1054.00      4587.03
 1059.47        2957.50           2250        1077.00      4687.32
 1059.50        2957.75           2254        1131.00      4922.79
 1059.53        2958.00           2257        1095.00      4765.81
 1059.56        2958.25           2261        1147.00      4992.57
 1059.59        2958.50           2264        1147.00      4992.57
 1059.62        2958.75           2268        1148.00      4996.93
 1059.65        2959.00           2271        1166.00      5075.42
 1059.68        2959.25           2275        1143.00      4975.12
 1059.71        2959.50           2278        1151.00      5010.01
 1059.74        2959.75           2282        1219.00      5306.54
 1059.77        2960.00           2285        1220.00      5310.90
 1059.80        2960.25           2289        1242.00      5406.84
 1059.83        2960.50           2293        1262.00      5494.05
 1059.86        2960.75           2296        1300.00      5659.76
 1059.89        2961.00           2300        1330.00      5790.59
 1059.92        2961.25           2303        1469.00      6396.77
 1059.95        2961.50           2307        3418.00     14899.00
 1059.99        2961.75           2310        9295.00     40566.38
 1060.02        2962.00           2314       20887.00     91325.41
 1060.05        2962.25           2317       31475.00    137842.00
 1060.08        2962.50           2321       46376.00    203557.90
 1060.11        2962.75           2324       57733.00    253842.70
 1060.14        2963.00           2328       72773.00    320701.60
 1060.17        2963.25           2331       84455.00    372844.40
 1060.20        2963.50           2335      100482.00    444685.50
 1060.23        2963.75           2339      118899.00    527678.70
 1060.26        2964.00           2342      132419.00    588906.60
 1060.29        2964.25           2346      148897.00    663880.40
 1060.32        2964.50           2349      160525.00    717020.60
 1060.35        2964.75           2353      175804.00    787142.90
 1060.38        2965.00           2356      187795.00    842413.50
 1060.41        2965.25           2360      204171.00    918238.10
 1060.44        2965.50           2363      215732.00    972008.40
 1060.47        2965.75           2367      230336.00   1040219.00
 1060.51        2966.00           2370      241455.00   1092369.00
 1060.54        2966.25           2374      255432.00   1158192.00
 1060.57        2966.50           2378      267719.00   1216306.00
 1060.60        2966.75           2381      274788.00   1249846.00
 1060.63        2967.00           2385      277396.00   1262240.00
 1060.66        2967.25           2388      277618.00   1263296.00
 1060.69        2967.50           2392      277568.00   1263058.00
 1060.72        2967.75           2395      277219.00   1261399.00
 1060.75        2968.00           2399      275878.00   1255025.00
 1060.78        2968.25           2402      270526.00   1229615.00
 1060.81        2968.50           2406      260290.00   1181141.00
 1060.84        2968.75           2409      250143.00   1133249.00
 1060.87        2969.00           2413      233580.00   1055414.00
 1060.90        2969.25           2417      217169.00    978705.90
 1060.93        2969.50           2420      204600.00    920229.80
 1060.96        2969.75           2424      187780.00    842344.20
 1060.99        2970.00           2427      175424.00    785394.80
 1061.03        2970.25           2431      159035.00    710200.50
 1061.06        2970.50           2434      146098.00    651117.90
 1061.09        2970.75           2438      128317.00    570302.80
 1061.12        2971.00           2441      115375.00    511761.80
 1061.15        2971.25           2445       98331.00    435023.00
 1061.18        2971.50           2449       82445.00    363859.50
 1061.21        2971.75           2452       70982.00    312723.80
 1061.24        2972.00           2456       55462.00    243773.70
 1061.27        2972.25           2459       41885.00    183720.80
 1061.30        2972.50           2463       24728.00    108183.20
 1061.33        2972.75           2466       14045.00     61344.46
 1061.36        2973.00           2470        4852.00     21157.76
 1061.39        2973.25           2473        2305.00     10043.10
 1061.42        2973.50           2477        1449.00      6309.55
 1061.45        2973.75           2481        1390.00      6052.25
 1061.48        2974.00           2484        1275.00      5550.74
 1061.51        2974.25           2488        1250.00      5441.72
 1061.54        2974.50           2491        1250.00      5441.72
 1061.58        2974.75           2495        1227.00      5341.42
 1061.61        2975.00           2498        1219.00      5306.54
 1061.64        2975.25           2502        1177.00      5123.39
 1061.67        2975.50           2505        1166.00      5075.42
 1061.70        2975.75           2509        1149.00      5001.29
 1061.73        2976.00           2512        1092.00      4752.73
 1061.76        2976.25           2516        1136.00      4944.60
 1061.79        2976.50           2520        1116.00      4857.39
 1061.82        2976.75           2523        1128.00      4909.71
 1061.85        2977.00           2527        1080.00      4700.40
 1061.88        2977.25           2530        1069.00      4652.44
 1061.91        2977.50           2534        1071.00      4661.16
 1061.94        2977.75           2537        1078.00      4691.68
 1061.97        2978.00           2541        1068.00      4648.08
 1062.00        2978.25           2544        1064.00      4630.63
 1062.03        2978.50           2548        1023.00      4451.85
 1062.06        2978.75           2552        1010.00      4395.16
 1062.10        2979.00           2555        1008.00      4386.44
 1062.13        2979.25           2559        1008.00      4386.44
 1062.16        2979.50           2562        1012.00      4403.89
 1062.19        2979.75           2566         975.00      4242.55
 1062.22        2980.00           2569        1007.00      4382.08
 1062.25        2980.25           2573         957.00      4164.06
 1062.28        2980.50           2577         984.00      4281.79
 1062.31        2980.75           2580         965.00      4198.94
 1062.34        2981.00           2584         928.00      4037.61
 1062.37        2981.25           2587         999.00      4347.20
 1062.40        2981.50           2591         953.00      4146.62
 1062.43        2981.75           2594         941.00      4094.29
 1062.46        2982.00           2598         943.00      4103.01
 1062.49        2982.25           2601         944.00      4107.37
 1062.52        2982.50           2605         961.00      4181.50
 1062.55        2982.75           2609         924.00      4020.17
 1062.58        2983.00           2612         918.00      3994.00
 1062.62        2983.25           2616         920.00      4002.72
 1062.65        2983.50           2619         940.00      4089.93
 1062.68        2983.75           2623         922.00      4011.44
 1062.71        2984.00           2626         933.00      4059.41
HS scan finished at 17:42:56
end
