************************************************************
  HS Scan of (1) Internal mercury lamp
************************************************************
Integration time is 0.2294 seconds per sample
dh261018Reading 51.44 .94 3.01pr1000
************************************************************
Dead Time -------------------------  3.4E-08 
Number of Cycles Used -------------  4 
Starting Wavelength (Angstroms) ---  2950 
Final Wavelength (Angstoms) -------  2984 
Wavelength Increment (Angstroms) --  .25 
Filter Wheel #1 Position ---------- (1) Ground quartz diffuser (ND=2.32)
Filter Wheel #2 Position ---------- (1) Neutral Density 0.494



************************************************************
HS scan start time = 04:04:00
Dark Count =  .7 


Time (GMT)  Wavelength (Ang)  Step Number  Raw Counts  Counts/Second

  244.89        2950.00           2144        1508.00      6572.09
  245.08        2950.25           2147        1523.00      6637.51
  245.11        2950.50           2151        1516.00      6606.98
  245.15        2950.75           2155        1513.00      6593.89
  245.18        2951.00           2158        1490.00      6493.59
  245.21        2951.25           2162        1468.00      6397.64
  245.24        2951.50           2165        1508.00      6572.09
  245.27        2951.75           2169        1515.00      6602.62
  245.30        2952.00           2172        1550.00      6755.26
  245.33        2952.25           2176        1558.00      6790.15
  245.36        2952.50           2179        1516.00      6606.98
  245.39        2952.75           2183        1544.00      6729.09
  245.42        2953.00           2186        1598.00      6964.60
  245.45        2953.25           2190        1539.00      6707.28
  245.48        2953.50           2193        1542.00      6720.37
  245.51        2953.75           2197        1587.00      6916.62
  245.54        2954.00           2200        1562.00      6807.59
  245.57        2954.25           2204        1602.00      6982.04
  245.60        2954.50           2208        1575.00      6864.29
  245.63        2954.75           2211        1640.00      7147.77
  245.66        2955.00           2215        1581.00      6890.45
  245.70        2955.25           2218        1601.00      6977.68
  245.73        2955.50           2222        1611.00      7021.29
  245.76        2955.75           2225        1615.00      7038.74
  245.79        2956.00           2229        1620.00      7060.54
  245.82        2956.25           2232        1677.00      7309.14
  245.85        2956.50           2236        1654.00      7208.83
  245.88        2956.75           2239        1683.00      7335.31
  245.91        2957.00           2243        1673.00      7291.70
  245.94        2957.25           2246        1704.00      7426.90
  245.97        2957.50           2250        1706.00      7435.62
  246.00        2957.75           2254        1744.00      7601.35
  246.03        2958.00           2257        1785.00      7780.18
  246.06        2958.25           2261        1776.00      7740.92
  246.09        2958.50           2264        1740.00      7583.91
  246.12        2958.75           2268        1785.00      7780.18
  246.15        2959.00           2271        1818.00      7924.11
  246.18        2959.25           2275        1861.00      8111.65
  246.22        2959.50           2278        1844.00      8037.51
  246.25        2959.75           2282        1838.00      8011.34
  246.28        2960.00           2285        1878.00      8185.80
  246.31        2960.25           2289        1951.00      8504.20
  246.34        2960.50           2293        1929.00      8408.24
  246.37        2960.75           2296        2012.00      8770.27
  246.40        2961.00           2300        2166.00      9442.00
  246.43        2961.25           2303        2620.00     11422.48
  246.46        2961.50           2307        7265.00     31700.67
  246.49        2961.75           2310       16894.00     73826.32
  246.52        2962.00           2314       34350.00    150503.60
  246.55        2962.25           2317       49416.00    217006.30
  246.58        2962.50           2321       70101.00    308806.40
  246.61        2962.75           2324       87132.00    384824.80
  246.64        2963.00           2328      111905.00    496111.10
  246.67        2963.25           2331      131188.00    583326.60
  246.70        2963.50           2335      155511.00    694088.20
  246.74        2963.75           2339      178035.00    797416.00
  246.77        2964.00           2342      194207.00    872060.80
  246.80        2964.25           2346      218171.00    983383.40
  246.83        2964.50           2349      235323.00   1063591.00
  246.86        2964.75           2353      257484.00   1167887.00
  246.89        2965.00           2356      274384.00   1247933.00
  246.92        2965.25           2360      294920.00   1345805.00
  246.95        2965.50           2363      310649.00   1421220.00
  246.98        2965.75           2367      331549.00   1522047.00
  247.01        2966.00           2370      348148.00   1602633.00
  247.04        2966.25           2374      367913.00   1699187.00
  247.07        2966.50           2378      383350.00   1775055.00
  247.11        2966.75           2381      388326.00   1799597.00
  247.14        2967.00           2385      390963.00   1812620.00
  247.17        2967.25           2388      390409.00   1809883.00
  247.20        2967.50           2392      390466.00   1810164.00
  247.23        2967.75           2395      389889.00   1807314.00
  247.26        2968.00           2399      387278.00   1794424.00
  247.29        2968.25           2402      379518.00   1756184.00
  247.32        2968.50           2406      361316.00   1666887.00
  247.35        2968.75           2409      343933.00   1582127.00
  247.38        2969.00           2413      322266.00   1477176.00
  247.41        2969.25           2417      303163.00   1385278.00
  247.45        2969.50           2420      289261.00   1318768.00
  247.48        2969.75           2424      265918.00   1207779.00
  247.51        2970.00           2427      245923.00   1113383.00
  247.54        2970.25           2431      220371.00    993646.30
  247.57        2970.50           2434      203404.00    914683.40
  247.60        2970.75           2438      179790.00    805497.90
  247.63        2971.00           2441      161910.00    723368.60
  247.66        2971.25           2445      137753.00    613139.30
  247.69        2971.50           2449      111959.00    496354.60
  247.72        2971.75           2452       93731.00    414386.40
  247.75        2972.00           2456       70105.00    308824.20
  247.78        2972.25           2459       53984.00    237229.60
  247.81        2972.50           2463       32138.00    140765.00
  247.84        2972.75           2466       17870.00     78102.96
  247.87        2973.00           2470        6435.00     28075.17
  247.90        2973.25           2473        3253.00     14184.26
  247.93        2973.50           2477        2195.00      9568.50
  247.97        2973.75           2481        2043.00      8905.49
  248.00        2974.00           2484        2004.00      8735.38
  248.03        2974.25           2488        1942.00      8464.95
  248.06        2974.50           2491        1861.00      8111.65
  248.09        2974.75           2495        1880.00      8194.52
  248.12        2975.00           2498        1869.00      8146.55
  248.15        2975.25           2502        1826.00      7959.00
  248.18        2975.50           2505        1805.00      7867.41
  248.21        2975.75           2509        1752.00      7636.25
  248.24        2976.00           2512        1728.00      7531.57
  248.27        2976.25           2516        1744.00      7601.35
  248.30        2976.50           2520        1756.00      7653.69
  248.33        2976.75           2523        1696.00      7392.01
  248.36        2977.00           2527        1683.00      7335.31
  248.39        2977.25           2530        1702.00      7418.17
  248.42        2977.50           2534        1659.00      7230.64
  248.45        2977.75           2537        1643.00      7160.86
  248.48        2978.00           2541        1641.00      7152.13
  248.52        2978.25           2544        1645.00      7169.58
  248.55        2978.50           2548        1575.00      6864.29
  248.58        2978.75           2552        1625.00      7082.35
  248.61        2979.00           2555        1546.00      6737.81
  248.64        2979.25           2559        1564.00      6816.31
  248.67        2979.50           2562        1551.00      6759.62
  248.70        2979.75           2566        1570.00      6842.48
  248.73        2980.00           2569        1541.00      6716.01
  248.76        2980.25           2573        1511.00      6585.17
  248.79        2980.50           2577        1535.00      6689.84
  248.82        2980.75           2580        1509.00      6576.45
  248.85        2981.00           2584        1499.00      6532.84
  248.88        2981.25           2587        1482.00      6458.70
  248.91        2981.50           2591        1480.00      6449.98
  248.94        2981.75           2594        1443.00      6288.62
  248.97        2982.00           2598        1451.00      6323.50
  249.00        2982.25           2601        1434.00      6249.37
  249.04        2982.50           2605        1436.00      6258.09
  249.07        2982.75           2609        1450.00      6319.14
  249.10        2983.00           2612        1459.00      6358.39
  249.13        2983.25           2616        1444.00      6292.98
  249.16        2983.50           2619        1402.00      6109.81
  249.19        2983.75           2623        1428.00      6223.20
  249.22        2984.00           2626        1422.00      6197.03
HS scan finished at 04:09:27
end
************************************************************
  HS Scan of (1) Internal mercury lamp
************************************************************
Integration time is 0.2294 seconds per sample
dh261018Reading 51.44 .94 2.88pr1000
************************************************************
Dead Time -------------------------  3.4E-08 
Number of Cycles Used -------------  4 
Starting Wavelength (Angstroms) ---  2950 
Final Wavelength (Angstoms) -------  2984 
Wavelength Increment (Angstroms) --  .25 
Filter Wheel #1 Position ---------- (1) Ground quartz diffuser (ND=2.32)
Filter Wheel #2 Position ---------- (1) Neutral Density 0.494



************************************************************
HS scan start time = 17:37:26
Dark Count =  .7 


Time (GMT)  Wavelength (Ang)  Step Number  Raw Counts  Counts/Second

 1058.33        2950.00           2144        1061.00      4622.78
 1058.53        2950.25           2147        1049.00      4570.46
 1058.56        2950.50           2151        1010.00      4400.40
 1058.59        2950.75           2155        1050.00      4574.82
 1058.62        2951.00           2158        1040.00      4531.21
 1058.65        2951.25           2162        1036.00      4513.77
 1058.68        2951.50           2165        1046.00      4557.38
 1058.71        2951.75           2169        1054.00      4592.26
 1058.74        2952.00           2172        1070.00      4662.03
 1058.77        2952.25           2176        1044.00      4548.66
 1058.80        2952.50           2179        1070.00      4662.03
 1058.83        2952.75           2183        1045.00      4553.02
 1058.86        2953.00           2186        1061.00      4622.78
 1058.89        2953.25           2190        1032.00      4496.33
 1058.93        2953.50           2193        1064.00      4635.87
 1058.96        2953.75           2197        1081.00      4710.00
 1058.99        2954.00           2200        1074.00      4679.47
 1059.02        2954.25           2204        1076.00      4688.19
 1059.05        2954.50           2208        1071.00      4666.39
 1059.08        2954.75           2211        1096.00      4775.41
 1059.11        2955.00           2215        1087.00      4736.16
 1059.14        2955.25           2218        1103.00      4805.93
 1059.17        2955.50           2222        1083.00      4718.72
 1059.20        2955.75           2225        1082.00      4714.36
 1059.23        2956.00           2229        1118.00      4871.34
 1059.26        2956.25           2232        1130.00      4923.67
 1059.29        2956.50           2236        1092.00      4757.96
 1059.32        2956.75           2239        1150.00      5010.88
 1059.35        2957.00           2243        1144.00      4984.72
 1059.38        2957.25           2246        1161.00      5058.85
 1059.41        2957.50           2250        1132.00      4932.39
 1059.45        2957.75           2254        1158.00      5045.77
 1059.48        2958.00           2257        1188.00      5176.59
 1059.51        2958.25           2261        1183.00      5154.78
 1059.54        2958.50           2264        1197.00      5215.83
 1059.57        2958.75           2268        1191.00      5189.67
 1059.60        2959.00           2271        1192.00      5194.03
 1059.63        2959.25           2275        1214.00      5289.97
 1059.66        2959.50           2278        1225.00      5337.94
 1059.69        2959.75           2282        1254.00      5464.40
 1059.72        2960.00           2285        1271.00      5538.53
 1059.75        2960.25           2289        1279.00      5573.42
 1059.78        2960.50           2293        1327.00      5782.74
 1059.81        2960.75           2296        1334.00      5813.27
 1059.84        2961.00           2300        1381.00      6018.23
 1059.87        2961.25           2303        1478.00      6441.25
 1059.90        2961.50           2307        3141.00     13695.57
 1059.93        2961.75           2310        7762.00     33872.03
 1059.97        2962.00           2314       18826.00     82293.15
 1060.00        2962.25           2317       28197.00    123430.20
 1060.03        2962.50           2321       41192.00    180667.40
 1060.06        2962.75           2324       51009.00    224055.70
 1060.09        2963.00           2328       66503.00    292797.00
 1060.12        2963.25           2331       77725.00    342787.50
 1060.15        2963.50           2335       94141.00    416225.00
 1060.18        2963.75           2339      108982.00    482936.10
 1060.21        2964.00           2342      119117.00    528669.30
 1060.24        2964.25           2346      132664.00    590024.00
 1060.27        2964.50           2349      143861.00    640931.40
 1060.30        2964.75           2353      159589.00    712741.40
 1060.33        2965.00           2356      170393.00    762276.20
 1060.36        2965.25           2360      185247.00    830656.80
 1060.39        2965.50           2363      195481.00    877957.50
 1060.42        2965.75           2367      208267.00    937271.40
 1060.45        2966.00           2370      218483.00    984838.40
 1060.49        2966.25           2374      232219.00   1049043.00
 1060.52        2966.50           2378      243951.00   1104107.00
 1060.55        2966.75           2381      248144.00   1123838.00
 1060.58        2967.00           2385      249627.00   1130823.00
 1060.61        2967.25           2388      249923.00   1132218.00
 1060.64        2967.50           2392      249834.00   1131799.00
 1060.67        2967.75           2395      249741.00   1131360.00
 1060.70        2968.00           2399      249194.00   1128783.00
 1060.73        2968.25           2402      244676.00   1107517.00
 1060.76        2968.50           2406      233286.00   1054042.00
 1060.79        2968.75           2409      222840.00   1005173.00
 1060.82        2969.00           2413      209002.00    940688.40
 1060.85        2969.25           2417      196090.00    880777.10
 1060.88        2969.50           2420      187920.00    842996.30
 1060.91        2969.75           2424      172540.00    772140.00
 1060.94        2970.00           2427      160773.00    718161.60
 1060.97        2970.25           2431      143847.00    640867.60
 1061.01        2970.50           2434      131691.00    585608.60
 1061.04        2970.75           2438      116219.00    515577.70
 1061.07        2971.00           2441      105129.00    465587.30
 1061.10        2971.25           2445       90034.00    397817.50
 1061.13        2971.50           2449       74756.00    329545.00
 1061.16        2971.75           2452       62350.00    274340.00
 1061.19        2972.00           2456       47614.00    209036.20
 1061.22        2972.25           2459       37208.00    163095.90
 1061.25        2972.50           2463       23649.00    103450.90
 1061.28        2972.75           2466       14263.00     62304.03
 1061.31        2973.00           2470        5098.00     22236.95
 1061.34        2973.25           2473        2423.00     10563.08
 1061.37        2973.50           2477        1512.00      6589.53
 1061.40        2973.75           2481        1316.00      5734.77
 1061.43        2974.00           2484        1327.00      5782.74
 1061.46        2974.25           2488        1325.00      5774.02
 1061.49        2974.50           2491        1263.00      5503.65
 1061.53        2974.75           2495        1258.00      5481.84
 1061.56        2975.00           2498        1263.00      5503.65
 1061.59        2975.25           2502        1217.00      5303.05
 1061.62        2975.50           2505        1194.00      5202.75
 1061.65        2975.75           2509        1203.00      5242.00
 1061.68        2976.00           2512        1165.00      5076.29
 1061.71        2976.25           2516        1177.00      5128.62
 1061.74        2976.50           2520        1173.00      5111.18
 1061.77        2976.75           2523        1163.00      5067.57
 1061.80        2977.00           2527        1142.00      4975.99
 1061.83        2977.25           2530        1096.00      4775.41
 1061.86        2977.50           2534        1134.00      4941.11
 1061.89        2977.75           2537        1096.00      4775.41
 1061.92        2978.00           2541        1114.00      4853.90
 1061.95        2978.25           2544        1111.00      4840.81
 1061.98        2978.50           2548        1102.00      4801.57
 1062.01        2978.75           2552        1077.00      4692.55
 1062.05        2979.00           2555        1060.00      4618.42
 1062.08        2979.25           2559        1103.00      4805.93
 1062.11        2979.50           2562        1037.00      4518.13
 1062.14        2979.75           2566        1031.00      4491.97
 1062.17        2980.00           2569        1068.00      4653.31
 1062.20        2980.25           2573        1056.00      4600.98
 1062.23        2980.50           2577        1035.00      4509.41
 1062.26        2980.75           2580        1012.00      4409.12
 1062.29        2981.00           2584        1028.00      4478.89
 1062.32        2981.25           2587         996.00      4339.35
 1062.35        2981.50           2591        1002.00      4365.51
 1062.38        2981.75           2594        1013.00      4413.48
 1062.41        2982.00           2598         983.00      4282.66
 1062.44        2982.25           2601         962.00      4191.09
 1062.47        2982.50           2605        1007.00      4387.32
 1062.50        2982.75           2609        1022.00      4452.72
 1062.53        2983.00           2612         990.00      4313.19
 1062.56        2983.25           2616        1014.00      4417.84
 1062.60        2983.50           2619         986.00      4295.75
 1062.63        2983.75           2623         985.00      4291.39
 1062.66        2984.00           2626         969.00      4221.62
HS scan finished at 17:42:53
end
