************************************************************
  HS Scan of (1) Internal mercury lamp
************************************************************
Integration time is 0.2294 seconds per sample
dh261017Reading 51.44 .94 3.11pr1000
************************************************************
Dead Time -------------------------  3.4E-08 
Number of Cycles Used -------------  4 
Starting Wavelength (Angstroms) ---  2950 
Final Wavelength (Angstoms) -------  2984 
Wavelength Increment (Angstroms) --  .25 
Filter Wheel #1 Position ---------- (1) Ground quartz diffuser (ND=2.32)
Filter Wheel #2 Position ---------- (1) Neutral Density 0.494



************************************************************
HS scan start time = 04:04:28
Dark Count =  1.1 


Time (GMT)  Wavelength (Ang)  Step Number  Raw Counts  Counts/Second

  245.37        2950.00           2144          93.00       400.62
  245.56        2950.25           2147          78.00       335.23
  245.59        2950.50           2151          83.00       357.02
  245.62        2950.75           2155          90.00       387.54
  245.66        2951.00           2158          83.00       357.02
  245.69        2951.25           2162          81.00       348.30
  245.72        2951.50           2165          80.00       343.94
  245.75        2951.75           2169          92.00       396.26
  245.78        2952.00           2172          78.00       335.23
  245.81        2952.25           2176          92.00       396.26
  245.84        2952.50           2179          86.00       370.10
  245.87        2952.75           2183          88.00       378.82
  245.90        2953.00           2186          87.00       374.46
  245.93        2953.25           2190          84.00       361.38
  245.96        2953.50           2193          83.00       357.02
  245.99        2953.75           2197          84.00       361.38
  246.02        2954.00           2200          98.00       422.41
  246.05        2954.25           2204          92.00       396.26
  246.08        2954.50           2208          93.00       400.62
  246.11        2954.75           2211          88.00       378.82
  246.14        2955.00           2215          95.00       409.33
  246.18        2955.25           2218          82.00       352.66
  246.21        2955.50           2222          88.00       378.82
  246.24        2955.75           2225          93.00       400.62
  246.28        2956.00           2229          88.00       378.82
  246.31        2956.25           2232          88.00       378.82
  246.34        2956.50           2236          95.00       409.33
  246.37        2956.75           2239          98.00       422.41
  246.40        2957.00           2243          97.00       418.05
  246.44        2957.25           2246         112.00       483.44
  246.47        2957.50           2250          97.00       418.05
  246.50        2957.75           2254         101.00       435.49
  246.53        2958.00           2257         103.00       444.21
  246.56        2958.25           2261         103.00       444.21
  246.59        2958.50           2264         104.00       448.57
  246.62        2958.75           2268          98.00       422.41
  246.65        2959.00           2271         110.00       474.72
  246.68        2959.25           2275         125.00       540.11
  246.71        2959.50           2278         109.00       470.37
  246.74        2959.75           2282         147.00       636.02
  246.77        2960.00           2285         126.00       544.47
  246.80        2960.25           2289         132.00       570.63
  246.83        2960.50           2293         149.00       644.74
  246.86        2960.75           2296         147.00       636.02
  246.89        2961.00           2300         149.00       644.74
  246.92        2961.25           2303         251.00      1089.40
  246.96        2961.50           2307         981.00      4272.20
  246.99        2961.75           2310        2147.00      9357.38
  247.02        2962.00           2314        3866.00     16857.52
  247.05        2962.25           2317        5030.00     21938.33
  247.08        2962.50           2321        6804.00     29685.13
  247.11        2962.75           2324        8328.00     36343.49
  247.14        2963.00           2328       10292.00     44928.65
  247.17        2963.25           2331       11877.00     51860.76
  247.20        2963.50           2335       14092.00     61553.71
  247.23        2963.75           2339       16006.00     69934.63
  247.26        2964.00           2342       17623.00     77018.78
  247.29        2964.25           2346       19780.00     86474.02
  247.32        2964.50           2349       21256.00     92947.59
  247.35        2964.75           2353       23320.00    102004.90
  247.38        2965.00           2356       24722.00    108160.30
  247.41        2965.25           2360       26772.00    117165.50
  247.44        2965.50           2363       28296.00    123863.60
  247.48        2965.75           2367       29806.00    130503.20
  247.51        2966.00           2370       31133.00    136340.70
  247.54        2966.25           2374       32794.00    143650.60
  247.57        2966.50           2378       33890.00    148476.10
  247.60        2966.75           2381       34119.00    149484.50
  247.63        2967.00           2385       34309.00    150321.20
  247.66        2967.25           2388       34263.00    150118.70
  247.69        2967.50           2392       34316.00    150352.10
  247.72        2967.75           2395       33861.00    148348.40
  247.75        2968.00           2399       33043.00    144746.80
  247.78        2968.25           2402       31644.00    138589.20
  247.81        2968.50           2406       30266.00    132526.50
  247.84        2968.75           2409       28941.00    126699.40
  247.87        2969.00           2413       27035.00    118321.20
  247.90        2969.25           2417       25077.00    109719.40
  247.93        2969.50           2420       23826.00    104226.20
  247.96        2969.75           2424       21582.00     94377.78
  248.00        2970.00           2427       20269.00     88618.39
  248.03        2970.25           2431       17967.00     78526.30
  248.06        2970.50           2434       16611.00     72584.76
  248.09        2970.75           2438       14395.00     62880.15
  248.12        2971.00           2441       12934.00     56485.46
  248.15        2971.25           2445       11171.00     48772.62
  248.18        2971.50           2449        9214.00     40215.81
  248.21        2971.75           2452        7726.00     33712.99
  248.24        2972.00           2456        5724.00     24968.44
  248.27        2972.25           2459        4239.00     18485.46
  248.30        2972.50           2463        2467.00     10753.28
  248.33        2972.75           2466        1286.00      5602.20
  248.36        2973.00           2470         379.00      1647.43
  248.39        2973.25           2473         171.00       740.65
  248.42        2973.50           2477         137.00       592.43
  248.45        2973.75           2481         136.00       588.07
  248.48        2974.00           2484         139.00       601.15
  248.52        2974.25           2488         165.00       714.49
  248.55        2974.50           2491         160.00       692.69
  248.58        2974.75           2495         126.00       544.47
  248.61        2975.00           2498         120.00       518.32
  248.64        2975.25           2502         117.00       505.24
  248.67        2975.50           2505         133.00       574.99
  248.70        2975.75           2509         133.00       574.99
  248.73        2976.00           2512         131.00       566.27
  248.76        2976.25           2516         146.00       631.66
  248.79        2976.50           2520         117.00       505.24
  248.82        2976.75           2523         112.00       483.44
  248.85        2977.00           2527         102.00       439.85
  248.88        2977.25           2530         105.00       452.93
  248.91        2977.50           2534          99.00       426.77
  248.94        2977.75           2537         111.00       479.08
  248.97        2978.00           2541         130.00       561.91
  249.00        2978.25           2544         101.00       435.49
  249.04        2978.50           2548         100.00       431.13
  249.07        2978.75           2552         111.00       479.08
  249.10        2979.00           2555         103.00       444.21
  249.13        2979.25           2559          92.00       396.26
  249.16        2979.50           2562          95.00       409.33
  249.19        2979.75           2566          81.00       348.30
  249.22        2980.00           2569          90.00       387.54
  249.25        2980.25           2573          87.00       374.46
  249.28        2980.50           2577          89.00       383.18
  249.31        2980.75           2580          94.00       404.98
  249.34        2981.00           2584          94.00       404.98
  249.37        2981.25           2587          90.00       387.54
  249.40        2981.50           2591          88.00       378.82
  249.43        2981.75           2594          84.00       361.38
  249.46        2982.00           2598          86.00       370.10
  249.49        2982.25           2601         107.00       461.65
  249.52        2982.50           2605          93.00       400.62
  249.55        2982.75           2609          78.00       335.23
  249.59        2983.00           2612          90.00       387.54
  249.62        2983.25           2616          85.00       365.74
  249.65        2983.50           2619          87.00       374.46
  249.68        2983.75           2623          84.00       361.38
  249.71        2984.00           2626          89.00       383.18
HS scan finished at 04:09:56
end
************************************************************
  HS Scan of (1) Internal mercury lamp
************************************************************
Integration time is 0.2294 seconds per sample
dh261017Reading 51.44 .94 3.47pr1000
************************************************************
Dead Time -------------------------  3.4E-08 
Number of Cycles Used -------------  4 
Starting Wavelength (Angstroms) ---  2950 
Final Wavelength (Angstoms) -------  2984 
Wavelength Increment (Angstroms) --  .25 
Filter Wheel #1 Position ---------- (1) Ground quartz diffuser (ND=2.32)
Filter Wheel #2 Position ---------- (1) Neutral Density 0.494



************************************************************
HS scan start time = 17:37:32
Dark Count =  3 


Time (GMT)  Wavelength (Ang)  Step Number  Raw Counts  Counts/Second

 1058.44        2950.00           2144          82.00       344.38
 1058.63        2950.25           2147          99.00       418.49
 1058.66        2950.50           2151          80.00       335.66
 1058.69        2950.75           2155          78.00       326.94
 1058.72        2951.00           2158          91.00       383.61
 1058.75        2951.25           2162          75.00       313.87
 1058.78        2951.50           2165          83.00       348.74
 1058.81        2951.75           2169          78.00       326.94
 1058.84        2952.00           2172          76.00       318.22
 1058.87        2952.25           2176          79.00       331.30
 1058.90        2952.50           2179          81.00       340.02
 1058.94        2952.75           2183          83.00       348.74
 1058.97        2953.00           2186          80.00       335.66
 1059.00        2953.25           2190          77.00       322.58
 1059.03        2953.50           2193          83.00       348.74
 1059.06        2953.75           2197          93.00       392.33
 1059.09        2954.00           2200          87.00       366.18
 1059.12        2954.25           2204          86.00       361.82
 1059.15        2954.50           2208          90.00       379.26
 1059.18        2954.75           2211          78.00       326.94
 1059.21        2955.00           2215          88.00       370.54
 1059.24        2955.25           2218          93.00       392.33
 1059.27        2955.50           2222          93.00       392.33
 1059.30        2955.75           2225          94.00       396.69
 1059.33        2956.00           2229          79.00       331.30
 1059.36        2956.25           2232          88.00       370.54
 1059.39        2956.50           2236          88.00       370.54
 1059.42        2956.75           2239          96.00       405.41
 1059.46        2957.00           2243          98.00       414.13
 1059.49        2957.25           2246         101.00       427.21
 1059.52        2957.50           2250          96.00       405.41
 1059.55        2957.75           2254          97.00       409.77
 1059.58        2958.00           2257          89.00       374.90
 1059.61        2958.25           2261         108.00       457.72
 1059.64        2958.50           2264         114.00       483.88
 1059.67        2958.75           2268         100.00       422.85
 1059.70        2959.00           2271          97.00       409.77
 1059.73        2959.25           2275          99.00       418.49
 1059.76        2959.50           2278         100.00       422.85
 1059.79        2959.75           2282         130.00       553.63
 1059.82        2960.00           2285         108.00       457.72
 1059.85        2960.25           2289         129.00       549.27
 1059.88        2960.50           2293         117.00       496.96
 1059.91        2960.75           2296         140.00       597.22
 1059.94        2961.00           2300         165.00       706.21
 1059.98        2961.25           2303         379.00      1639.15
 1060.01        2961.50           2307        1376.00      5986.40
 1060.04        2961.75           2310        2451.00     10675.19
 1060.07        2962.00           2314        3997.00     17420.95
 1060.10        2962.25           2317        5197.00     22659.12
 1060.13        2962.50           2321        6984.00     30463.10
 1060.16        2962.75           2324        8313.00     36269.64
 1060.19        2963.00           2328       10166.00     44369.42
 1060.22        2963.25           2331       11565.00     50487.64
 1060.25        2963.50           2335       13288.00     58026.32
 1060.28        2963.75           2339       15054.00     65757.15
 1060.31        2964.00           2342       16528.00     72212.83
 1060.34        2964.25           2346       18483.00     80779.53
 1060.37        2964.50           2349       19872.00     86869.10
 1060.40        2964.75           2353       21655.00     94689.72
 1060.43        2965.00           2356       22916.00    100223.30
 1060.46        2965.25           2360       24562.00    107449.40
 1060.49        2965.50           2363       25781.00    112803.20
 1060.53        2965.75           2367       27496.00    120338.80
 1060.56        2966.00           2370       29291.00    128230.10
 1060.59        2966.25           2374       30564.00    133829.00
 1060.62        2966.50           2378       31311.00    137115.50
 1060.65        2966.75           2381       31167.00    136481.90
 1060.68        2967.00           2385       31615.00    138453.20
 1060.71        2967.25           2388       31375.00    137397.10
 1060.74        2967.50           2392       31441.00    137687.50
 1060.77        2967.75           2395       31365.00    137353.10
 1060.80        2968.00           2399       30519.00    133631.10
 1060.83        2968.25           2402       29052.00    127179.10
 1060.86        2968.50           2406       27472.00    120233.30
 1060.89        2968.75           2409       26094.00    114178.20
 1060.92        2969.00           2413       24440.00    106913.70
 1060.95        2969.25           2417       22580.00     98748.61
 1060.98        2969.50           2420       21336.00     93290.21
 1061.01        2969.75           2424       19404.00     84817.05
 1061.05        2970.00           2427       17828.00     77908.81
 1061.08        2970.25           2431       16230.00     70907.45
 1061.11        2970.50           2434       14826.00     64758.82
 1061.14        2970.75           2438       12965.00     56612.79
 1061.17        2971.00           2441       11678.00     50981.93
 1061.20        2971.25           2445        9694.00     42305.80
 1061.23        2971.50           2449        7605.00     33176.03
 1061.26        2971.75           2452        6117.00     26676.32
 1061.29        2972.00           2456        4352.00     18970.38
 1061.32        2972.25           2459        3170.00     13812.07
 1061.35        2972.50           2463        1687.00      7342.72
 1061.38        2972.75           2466         872.00      3788.63
 1061.41        2973.00           2470         284.00      1224.99
 1061.44        2973.25           2473         163.00       697.49
 1061.47        2973.50           2477         165.00       706.21
 1061.50        2973.75           2481         140.00       597.22
 1061.53        2974.00           2484         140.00       597.22
 1061.57        2974.25           2488         116.00       492.60
 1061.60        2974.50           2491         153.00       653.89
 1061.63        2974.75           2495         103.00       435.93
 1061.66        2975.00           2498         124.00       527.47
 1061.69        2975.25           2502         118.00       501.32
 1061.72        2975.50           2505         131.00       557.99
 1061.75        2975.75           2509         101.00       427.21
 1061.78        2976.00           2512         101.00       427.21
 1061.81        2976.25           2516          94.00       396.69
 1061.84        2976.50           2520         117.00       496.96
 1061.87        2976.75           2523          97.00       409.77
 1061.90        2977.00           2527         100.00       422.85
 1061.93        2977.25           2530          89.00       374.90
 1061.96        2977.50           2534         110.00       466.44
 1061.99        2977.75           2537          92.00       387.97
 1062.02        2978.00           2541         110.00       466.44
 1062.05        2978.25           2544          90.00       379.26
 1062.09        2978.50           2548          90.00       379.26
 1062.12        2978.75           2552          91.00       383.61
 1062.15        2979.00           2555          91.00       383.61
 1062.18        2979.25           2559          93.00       392.33
 1062.21        2979.50           2562          89.00       374.90
 1062.24        2979.75           2566          88.00       370.54
 1062.27        2980.00           2569          80.00       335.66
 1062.30        2980.25           2573          88.00       370.54
 1062.33        2980.50           2577          89.00       374.90
 1062.36        2980.75           2580          82.00       344.38
 1062.39        2981.00           2584          78.00       326.94
 1062.42        2981.25           2587          80.00       335.66
 1062.45        2981.50           2591          78.00       326.94
 1062.48        2981.75           2594          73.00       305.15
 1062.51        2982.00           2598          80.00       335.66
 1062.54        2982.25           2601          77.00       322.58
 1062.57        2982.50           2605          85.00       357.46
 1062.61        2982.75           2609          79.00       331.30
 1062.64        2983.00           2612          79.00       331.30
 1062.67        2983.25           2616          84.00       353.10
 1062.70        2983.50           2619          76.00       318.22
 1062.73        2983.75           2623          83.00       348.74
 1062.76        2984.00           2626          78.00       326.94
HS scan finished at 17:42:59
end
