************************************************************
  HS Scan of (1) Internal mercury lamp
************************************************************
Integration time is 0.2294 seconds per sample
dh191018Reading 51.44 .94 2.72pr1000
************************************************************
Dead Time -------------------------  3.4E-08 
Number of Cycles Used -------------  4 
Starting Wavelength (Angstroms) ---  2950 
Final Wavelength (Angstoms) -------  2984 
Wavelength Increment (Angstroms) --  .25 
Filter Wheel #1 Position ---------- (1) Ground quartz diffuser (ND=2.32)
Filter Wheel #2 Position ---------- (1) Neutral Density 0.494



************************************************************
HS scan start time = 03:51:21
Dark Count =  .4 


Time (GMT)  Wavelength (Ang)  Step Number  Raw Counts  Counts/Second

  232.26        2950.00           2144        1443.00      6289.92
  232.45        2950.25           2147        1471.00      6412.03
  232.48        2950.50           2151        1465.00      6385.87
  232.51        2950.75           2155        1465.00      6385.87
  232.54        2951.00           2158        1450.00      6320.45
  232.57        2951.25           2162        1486.00      6477.45
  232.60        2951.50           2165        1446.00      6303.01
  232.63        2951.75           2169        1481.00      6455.65
  232.66        2952.00           2172        1463.00      6377.15
  232.69        2952.25           2176        1482.00      6460.01
  232.72        2952.50           2179        1492.00      6503.62
  232.75        2952.75           2183        1489.00      6490.53
  232.79        2953.00           2186        1514.00      6599.56
  232.82        2953.25           2190        1498.00      6529.78
  232.85        2953.50           2193        1486.00      6477.45
  232.88        2953.75           2197        1536.00      6695.51
  232.91        2954.00           2200        1501.00      6542.87
  232.94        2954.25           2204        1508.00      6573.40
  232.97        2954.50           2208        1507.00      6569.04
  233.00        2954.75           2211        1540.00      6712.95
  233.03        2955.00           2215        1537.00      6699.87
  233.06        2955.25           2218        1547.00      6743.48
  233.09        2955.50           2222        1536.00      6695.51
  233.12        2955.75           2225        1556.00      6782.73
  233.15        2956.00           2229        1552.00      6765.29
  233.18        2956.25           2232        1549.00      6752.20
  233.21        2956.50           2236        1567.00      6830.71
  233.24        2956.75           2239        1585.00      6909.21
  233.27        2957.00           2243        1607.00      7005.16
  233.30        2957.25           2246        1600.00      6974.63
  233.34        2957.50           2250        1620.00      7061.85
  233.37        2957.75           2254        1646.00      7175.25
  233.40        2958.00           2257        1606.00      7000.79
  233.43        2958.25           2261        1663.00      7249.39
  233.46        2958.50           2264        1653.00      7205.78
  233.49        2958.75           2268        1697.00      7397.68
  233.52        2959.00           2271        1690.00      7367.15
  233.55        2959.25           2275        1674.00      7297.36
  233.58        2959.50           2278        1719.00      7493.63
  233.61        2959.75           2282        1748.00      7620.11
  233.64        2960.00           2285        1739.00      7580.85
  233.67        2960.25           2289        1745.00      7607.02
  233.70        2960.50           2293        1807.00      7877.44
  233.73        2960.75           2296        1858.00      8099.88
  233.76        2961.00           2300        1901.00      8287.43
  233.79        2961.25           2303        2085.00      9089.99
  233.82        2961.50           2307        4412.00     19243.63
  233.86        2961.75           2310       10687.00     46658.97
  233.89        2962.00           2314       23020.00    100691.10
  233.92        2962.25           2317       35017.00    153442.70
  233.95        2962.50           2321       54724.00    240509.70
  233.98        2962.75           2324       69197.00    304783.80
  234.01        2963.00           2328       88295.00    390031.80
  234.04        2963.25           2331      103647.00    458921.20
  234.07        2963.50           2335      125008.00    555319.50
  234.10        2963.75           2339      145912.00    650277.00
  234.13        2964.00           2342      161335.00    720736.50
  234.16        2964.25           2346      181347.00    812673.30
  234.19        2964.50           2349      195916.00    879972.90
  234.22        2964.75           2353      216586.00    975995.20
  234.25        2965.00           2356      231212.00   1044328.00
  234.28        2965.25           2360      251881.00   1141448.00
  234.31        2965.50           2363      267469.00   1215128.00
  234.34        2965.75           2367      286233.00   1304324.00
  234.38        2966.00           2370      299858.00   1369439.00
  234.41        2966.25           2374      315999.00   1446964.00
  234.44        2966.50           2378      329998.00   1514541.00
  234.47        2966.75           2381      334431.00   1536007.00
  234.50        2967.00           2385      335479.00   1541087.00
  234.53        2967.25           2388      335692.00   1542120.00
  234.56        2967.50           2392      336093.00   1544064.00
  234.59        2967.75           2395      334791.00   1537752.00
  234.62        2968.00           2399      330995.00   1519366.00
  234.65        2968.25           2402      323308.00   1482207.00
  234.68        2968.50           2406      307678.00   1406946.00
  234.71        2968.75           2409      293157.00   1337377.00
  234.74        2969.00           2413      273206.00   1242340.00
  234.77        2969.25           2417      255329.00   1157713.00
  234.80        2969.50           2420      242051.00   1095177.00
  234.83        2969.75           2424      224667.00   1013710.00
  234.86        2970.00           2427      210403.00    947205.30
  234.90        2970.25           2431      188452.00    845454.90
  234.93        2970.50           2434      171316.00    766517.20
  234.96        2970.75           2438      150387.00    670685.80
  234.99        2971.00           2441      135823.00    604369.80
  235.02        2971.25           2445      116425.00    516509.30
  235.05        2971.50           2449       96094.00    424987.80
  235.08        2971.75           2452       79898.00    352488.70
  235.11        2972.00           2456       60146.00    264555.60
  235.14        2972.25           2459       45923.00    201562.40
  235.17        2972.50           2463       27808.00    121721.50
  235.20        2972.75           2466       15218.00     66486.66
  235.23        2973.00           2470        5221.00     22775.26
  235.26        2973.25           2473        2763.00     12047.65
  235.29        2973.50           2477        2036.00      8876.26
  235.32        2973.75           2481        1860.00      8108.60
  235.35        2974.00           2484        1842.00      8030.09
  235.38        2974.25           2488        1777.00      7746.59
  235.42        2974.50           2491        1750.00      7628.83
  235.45        2974.75           2495        1741.00      7589.58
  235.48        2975.00           2498        1725.00      7519.80
  235.51        2975.25           2502        1679.00      7319.17
  235.54        2975.50           2505        1688.00      7358.42
  235.57        2975.75           2509        1683.00      7336.62
  235.60        2976.00           2512        1644.00      7166.52
  235.63        2976.25           2516        1624.00      7079.30
  235.66        2976.50           2520        1575.00      6865.60
  235.69        2976.75           2523        1617.00      7048.77
  235.72        2977.00           2527        1560.00      6800.18
  235.75        2977.25           2530        1575.00      6865.60
  235.78        2977.50           2534        1543.00      6726.04
  235.81        2977.75           2537        1557.00      6787.09
  235.84        2978.00           2541        1543.00      6726.04
  235.87        2978.25           2544        1563.00      6813.26
  235.90        2978.50           2548        1517.00      6612.65
  235.94        2978.75           2552        1501.00      6542.87
  235.97        2979.00           2555        1486.00      6477.45
  236.00        2979.25           2559        1468.00      6398.95
  236.03        2979.50           2562        1436.00      6259.40
  236.06        2979.75           2566        1447.00      6307.37
  236.09        2980.00           2569        1446.00      6303.01
  236.12        2980.25           2573        1429.00      6228.87
  236.15        2980.50           2577        1466.00      6390.23
  236.18        2980.75           2580        1419.00      6185.26
  236.21        2981.00           2584        1411.00      6150.37
  236.24        2981.25           2587        1432.00      6241.95
  236.27        2981.50           2591        1367.00      5958.49
  236.30        2981.75           2594        1426.00      6215.79
  236.33        2982.00           2598        1395.00      6080.59
  236.37        2982.25           2601        1403.00      6115.48
  236.40        2982.50           2605        1386.00      6041.35
  236.43        2982.75           2609        1398.00      6093.68
  236.46        2983.00           2612        1374.00      5989.01
  236.49        2983.25           2616        1363.00      5941.04
  236.52        2983.50           2619        1309.00      5705.55
  236.55        2983.75           2623        1366.00      5954.13
  236.58        2984.00           2626        1355.00      5906.16
HS scan finished at 03:56:48
end
************************************************************
  HS Scan of (1) Internal mercury lamp
************************************************************
Integration time is 0.2294 seconds per sample
dh191018Reading 51.44 .94 3.29pr1000
************************************************************
Dead Time -------------------------  3.4E-08 
Number of Cycles Used -------------  4 
Starting Wavelength (Angstroms) ---  2950 
Final Wavelength (Angstoms) -------  2984 
Wavelength Increment (Angstroms) --  .25 
Filter Wheel #1 Position ---------- (1) Ground quartz diffuser (ND=2.32)
Filter Wheel #2 Position ---------- (1) Neutral Density 0.494



************************************************************
HS scan start time = 18:07:29
Dark Count =  1.7 


Time (GMT)  Wavelength (Ang)  Step Number  Raw Counts  Counts/Second

 1088.38        2950.00           2144         695.00      3022.54
 1088.57        2950.25           2147         704.00      3061.78
 1088.60        2950.50           2151         703.00      3057.42
 1088.63        2950.75           2155         712.00      3096.66
 1088.66        2951.00           2158         670.00      2913.54
 1088.69        2951.25           2162         684.00      2974.58
 1088.72        2951.50           2165         708.00      3079.22
 1088.75        2951.75           2169         741.00      3223.11
 1088.78        2952.00           2172         729.00      3170.79
 1088.82        2952.25           2176         700.00      3044.34
 1088.85        2952.50           2179         700.00      3044.34
 1088.88        2952.75           2183         713.00      3101.02
 1088.91        2953.00           2186         712.00      3096.66
 1088.94        2953.25           2190         728.00      3166.43
 1088.97        2953.50           2193         722.00      3140.27
 1089.00        2953.75           2197         708.00      3079.22
 1089.03        2954.00           2200         715.00      3109.74
 1089.06        2954.25           2204         736.00      3201.31
 1089.09        2954.50           2208         717.00      3118.46
 1089.12        2954.75           2211         768.00      3340.83
 1089.15        2955.00           2215         736.00      3201.31
 1089.18        2955.25           2218         744.00      3236.19
 1089.21        2955.50           2222         726.00      3157.71
 1089.24        2955.75           2225         734.00      3192.59
 1089.27        2956.00           2229         758.00      3297.23
 1089.30        2956.25           2232         757.00      3292.87
 1089.33        2956.50           2236         768.00      3340.83
 1089.37        2956.75           2239         767.00      3336.47
 1089.40        2957.00           2243         762.00      3314.67
 1089.43        2957.25           2246         779.00      3388.80
 1089.46        2957.50           2250         765.00      3327.75
 1089.49        2957.75           2254         783.00      3406.24
 1089.52        2958.00           2257         771.00      3353.91
 1089.55        2958.25           2261         792.00      3445.48
 1089.58        2958.50           2264         838.00      3646.05
 1089.61        2958.75           2268         836.00      3637.33
 1089.64        2959.00           2271         805.00      3502.16
 1089.67        2959.25           2275         819.00      3563.20
 1089.70        2959.50           2278         852.00      3707.09
 1089.73        2959.75           2282         870.00      3785.58
 1089.76        2960.00           2285         868.00      3776.86
 1089.79        2960.25           2289         885.00      3850.98
 1089.82        2960.50           2293         879.00      3824.82
 1089.85        2960.75           2296         945.00      4112.61
 1089.89        2961.00           2300         960.00      4178.01
 1089.92        2961.25           2303        1026.00      4465.81
 1089.95        2961.50           2307        1957.00      8526.01
 1089.98        2961.75           2310        5351.00     23337.17
 1090.01        2962.00           2314       13408.00     58557.19
 1090.04        2962.25           2317       20503.00     89642.02
 1090.07        2962.50           2321       30337.00    132836.20
 1090.10        2962.75           2324       38860.00    170375.10
 1090.13        2963.00           2328       50348.00    221125.80
 1090.16        2963.25           2331       60273.00    265113.50
 1090.19        2963.50           2335       72618.00    320011.80
 1090.22        2963.75           2339       84445.00    372800.60
 1090.25        2964.00           2342       93510.00    413390.90
 1090.28        2964.25           2346      105155.00    465699.80
 1090.31        2964.50           2349      114214.00    506522.60
 1090.34        2964.75           2353      126706.00    563003.70
 1090.37        2965.00           2356      136015.00    605236.10
 1090.41        2965.25           2360      147756.00    658677.50
 1090.44        2965.50           2363      156086.00    696712.30
 1090.47        2965.75           2367      167085.00    747087.00
 1090.50        2966.00           2370      175166.00    784209.10
 1090.53        2966.25           2374      185467.00    831667.40
 1090.56        2966.50           2378      194397.00    872935.40
 1090.59        2966.75           2381      197729.00    888363.80
 1090.62        2967.00           2385      199255.00    895435.10
 1090.65        2967.25           2388      199891.00    898383.30
 1090.68        2967.50           2392      199479.00    896473.40
 1090.71        2967.75           2395      199537.00    896742.20
 1090.74        2968.00           2399      197852.00    888933.50
 1090.77        2968.25           2402      193631.00    869390.90
 1090.80        2968.50           2406      184516.00    827279.50
 1090.83        2968.75           2409      177032.00    792794.50
 1090.86        2969.00           2413      166918.00    746320.80
 1090.89        2969.25           2417      156029.00    696451.60
 1090.93        2969.50           2420      147907.00    659366.00
 1090.96        2969.75           2424      136382.00    606903.80
 1090.99        2970.00           2427      126635.00    562682.10
 1091.02        2970.25           2431      114420.00    507452.20
 1091.05        2970.50           2434      105675.00    468040.00
 1091.08        2970.75           2438       94241.00    416669.00
 1091.11        2971.00           2441       85059.00    375546.30
 1091.14        2971.25           2445       72906.00    321295.00
 1091.17        2971.50           2449       61017.00    268416.30
 1091.20        2971.75           2452       52658.00    231351.90
 1091.23        2972.00           2456       41093.00    180226.10
 1091.26        2972.25           2459       32530.00    142485.90
 1091.29        2972.50           2463       21519.00     94098.74
 1091.32        2972.75           2466       13149.00     57423.69
 1091.35        2973.00           2470        4705.00     20516.92
 1091.38        2973.25           2473        2254.00      9821.50
 1091.41        2973.50           2477        1155.00      5028.32
 1091.45        2973.75           2481        1004.00      4369.87
 1091.48        2974.00           2484         944.00      4108.25
 1091.51        2974.25           2488         904.00      3933.83
 1091.54        2974.50           2491         905.00      3938.19
 1091.57        2974.75           2495         893.00      3885.87
 1091.60        2975.00           2498         879.00      3824.82
 1091.63        2975.25           2502         846.00      3680.93
 1091.66        2975.50           2505         842.00      3663.49
 1091.69        2975.75           2509         826.00      3593.73
 1091.72        2976.00           2512         825.00      3589.37
 1091.75        2976.25           2516         786.00      3419.32
 1091.78        2976.50           2520         818.00      3558.84
 1091.81        2976.75           2523         821.00      3571.92
 1091.84        2977.00           2527         809.00      3519.60
 1091.87        2977.25           2530         800.00      3480.36
 1091.90        2977.50           2534         761.00      3310.31
 1091.93        2977.75           2537         798.00      3471.64
 1091.97        2978.00           2541         761.00      3310.31
 1092.00        2978.25           2544         758.00      3297.23
 1092.03        2978.50           2548         724.00      3148.99
 1092.06        2978.75           2552         805.00      3502.16
 1092.09        2979.00           2555         743.00      3231.83
 1092.12        2979.25           2559         713.00      3101.02
 1092.15        2979.50           2562         717.00      3118.46
 1092.18        2979.75           2566         722.00      3140.27
 1092.21        2980.00           2569         715.00      3109.74
 1092.24        2980.25           2573         708.00      3079.22
 1092.27        2980.50           2577         706.00      3070.50
 1092.30        2980.75           2580         696.00      3026.90
 1092.33        2981.00           2584         712.00      3096.66
 1092.36        2981.25           2587         695.00      3022.54
 1092.39        2981.50           2591         725.00      3153.35
 1092.42        2981.75           2594         701.00      3048.70
 1092.45        2982.00           2598         702.00      3053.06
 1092.49        2982.25           2601         655.00      2848.14
 1092.52        2982.50           2605         693.00      3013.82
 1092.55        2982.75           2609         665.00      2891.74
 1092.58        2983.00           2612         709.00      3083.58
 1092.61        2983.25           2616         690.00      3000.74
 1092.64        2983.50           2619         663.00      2883.02
 1092.67        2983.75           2623         696.00      3026.90
 1092.70        2984.00           2626         665.00      2891.74
HS scan finished at 18:12:55
end
