************************************************************
  HS Scan of (1) Internal mercury lamp
************************************************************
Integration time is 0.2294 seconds per sample
dh251018Reading 51.44 .94 2.78pr1000
************************************************************
Dead Time -------------------------  3.4E-08 
Number of Cycles Used -------------  4 
Starting Wavelength (Angstroms) ---  2950 
Final Wavelength (Angstoms) -------  2984 
Wavelength Increment (Angstroms) --  .25 
Filter Wheel #1 Position ---------- (1) Ground quartz diffuser (ND=2.32)
Filter Wheel #2 Position ---------- (1) Neutral Density 0.494



************************************************************
HS scan start time = 04:02:15
Dark Count =  .5 


Time (GMT)  Wavelength (Ang)  Step Number  Raw Counts  Counts/Second

  243.15        2950.00           2144        1559.00      6795.38
  243.34        2950.25           2147        1548.00      6747.41
  243.37        2950.50           2151        1567.00      6830.27
  243.40        2950.75           2155        1545.00      6734.32
  243.43        2951.00           2158        1549.00      6751.77
  243.46        2951.25           2162        1583.00      6900.05
  243.50        2951.50           2165        1554.00      6773.57
  243.53        2951.75           2169        1541.00      6716.88
  243.56        2952.00           2172        1560.00      6799.74
  243.59        2952.25           2176        1545.00      6734.32
  243.62        2952.50           2179        1561.00      6804.10
  243.65        2952.75           2183        1548.00      6747.41
  243.68        2953.00           2186        1569.00      6838.99
  243.71        2953.25           2190        1582.00      6895.69
  243.74        2953.50           2193        1587.00      6917.49
  243.77        2953.75           2197        1593.00      6943.66
  243.80        2954.00           2200        1611.00      7022.16
  243.83        2954.25           2204        1598.00      6965.47
  243.86        2954.50           2208        1616.00      7043.97
  243.89        2954.75           2211        1656.00      7218.42
  243.92        2955.00           2215        1618.00      7052.69
  243.95        2955.25           2218        1640.00      7148.64
  243.98        2955.50           2222        1628.00      7096.31
  244.01        2955.75           2225        1633.00      7118.11
  244.05        2956.00           2229        1683.00      7336.18
  244.08        2956.25           2232        1680.00      7323.10
  244.11        2956.50           2236        1694.00      7384.16
  244.14        2956.75           2239        1700.00      7410.32
  244.17        2957.00           2243        1714.00      7471.38
  244.20        2957.25           2246        1734.00      7558.61
  244.23        2957.50           2250        1680.00      7323.10
  244.26        2957.75           2254        1755.00      7650.20
  244.29        2958.00           2257        1742.00      7593.50
  244.32        2958.25           2261        1748.00      7619.67
  244.35        2958.50           2264        1753.00      7641.48
  244.38        2958.75           2268        1793.00      7815.94
  244.41        2959.00           2271        1793.00      7815.94
  244.44        2959.25           2275        1827.00      7964.23
  244.47        2959.50           2278        1832.00      7986.04
  244.50        2959.75           2282        1818.00      7924.98
  244.53        2960.00           2285        1919.00      8365.50
  244.57        2960.25           2289        1946.00      8483.27
  244.60        2960.50           2293        1935.00      8435.29
  244.63        2960.75           2296        1987.00      8662.10
  244.66        2961.00           2300        2076.00      9050.30
  244.69        2961.25           2303        2467.00     10755.90
  244.72        2961.50           2307        6508.00     28394.88
  244.75        2961.75           2310       14945.00     65290.81
  244.78        2962.00           2314       30790.00    134834.30
  244.81        2962.25           2317       45353.00    199043.00
  244.84        2962.50           2321       66668.00    293531.80
  244.87        2962.75           2324       83692.00    369439.30
  244.90        2963.00           2328      106908.00    473595.90
  244.93        2963.25           2331      123521.00    548587.70
  244.96        2963.50           2335      146106.00    651160.70
  244.99        2963.75           2339      167684.00    749840.90
  245.02        2964.00           2342      185117.00    830057.90
  245.05        2964.25           2346      209693.00    943902.50
  245.09        2964.50           2349      224899.00   1014793.00
  245.12        2964.75           2353      245358.00   1110726.00
  245.15        2965.00           2356      261942.00   1188960.00
  245.18        2965.25           2360      280732.00   1278117.00
  245.21        2965.50           2363      293855.00   1340713.00
  245.24        2965.75           2367      316073.00   1447320.00
  245.27        2966.00           2370      332498.00   1526643.00
  245.30        2966.25           2374      351504.00   1618983.00
  245.33        2966.50           2378      364697.00   1683433.00
  245.36        2966.75           2381      369064.00   1704831.00
  245.39        2967.00           2385      371342.00   1716005.00
  245.42        2967.25           2388      371253.00   1715569.00
  245.45        2967.50           2392      371275.00   1715677.00
  245.48        2967.75           2395      370865.00   1713665.00
  245.51        2968.00           2399      367282.00   1696095.00
  245.54        2968.25           2402      357817.00   1649786.00
  245.57        2968.50           2406      341499.00   1570300.00
  245.61        2968.75           2409      326839.00   1499263.00
  245.64        2969.00           2413      307472.00   1405956.00
  245.67        2969.25           2417      287114.00   1308525.00
  245.70        2969.50           2420      271852.00   1235913.00
  245.73        2969.75           2424      250864.00   1136653.00
  245.76        2970.00           2427      233529.00   1055182.00
  245.79        2970.25           2431      211579.00    952676.30
  245.82        2970.50           2434      195652.00    878750.10
  245.85        2970.75           2438      173843.00    778130.50
  245.89        2971.00           2441      156361.00    697975.10
  245.92        2971.25           2445      132154.00    587710.40
  245.95        2971.50           2449      108332.00    480008.80
  245.98        2971.75           2452       91411.00    403987.50
  246.01        2972.00           2456       69256.00    305045.90
  246.04        2972.25           2459       53735.00    236127.50
  246.07        2972.50           2463       32291.00    141439.20
  246.10        2972.75           2466       17979.00     78581.51
  246.13        2973.00           2470        6283.00     27412.20
  246.16        2973.25           2473        3089.00     13469.55
  246.19        2973.50           2477        2152.00      9381.81
  246.22        2973.75           2481        2028.00      8840.93
  246.25        2974.00           2484        1994.00      8692.63
  246.28        2974.25           2488        1898.00      8273.91
  246.32        2974.50           2491        1888.00      8230.29
  246.35        2974.75           2495        1882.00      8204.12
  246.38        2975.00           2498        1820.00      7933.70
  246.41        2975.25           2502        1827.00      7964.23
  246.44        2975.50           2505        1819.00      7929.34
  246.47        2975.75           2509        1785.00      7781.05
  246.50        2976.00           2512        1775.00      7737.43
  246.53        2976.25           2516        1762.00      7680.73
  246.56        2976.50           2520        1755.00      7650.20
  246.59        2976.75           2523        1717.00      7484.47
  246.62        2977.00           2527        1766.00      7698.18
  246.65        2977.25           2530        1687.00      7353.63
  246.68        2977.50           2534        1659.00      7231.51
  246.71        2977.75           2537        1627.00      7091.95
  246.74        2978.00           2541        1613.00      7030.89
  246.77        2978.25           2544        1588.00      6921.86
  246.80        2978.50           2548        1590.00      6930.58
  246.84        2978.75           2552        1606.00      7000.36
  246.87        2979.00           2555        1585.00      6908.77
  246.90        2979.25           2559        1582.00      6895.69
  246.93        2979.50           2562        1575.00      6865.16
  246.96        2979.75           2566        1562.00      6808.46
  246.99        2980.00           2569        1562.00      6808.46
  247.02        2980.25           2573        1568.00      6834.63
  247.05        2980.50           2577        1552.00      6764.85
  247.08        2980.75           2580        1520.00      6625.29
  247.11        2981.00           2584        1507.00      6568.60
  247.14        2981.25           2587        1501.00      6542.43
  247.17        2981.50           2591        1454.00      6337.46
  247.20        2981.75           2594        1514.00      6599.13
  247.23        2982.00           2598        1466.00      6389.79
  247.26        2982.25           2601        1508.00      6572.96
  247.29        2982.50           2605        1462.00      6372.35
  247.32        2982.75           2609        1452.00      6328.74
  247.36        2983.00           2612        1472.00      6415.96
  247.39        2983.25           2616        1448.00      6311.29
  247.42        2983.50           2619        1463.00      6376.71
  247.45        2983.75           2623        1456.00      6346.18
  247.48        2984.00           2626        1466.00      6389.79
HS scan finished at 04:07:42
end
************************************************************
  HS Scan of (1) Internal mercury lamp
************************************************************
Integration time is 0.2294 seconds per sample
dh251018Reading 51.44 .94 3.19pr1000
************************************************************
Dead Time -------------------------  3.4E-08 
Number of Cycles Used -------------  4 
Starting Wavelength (Angstroms) ---  2950 
Final Wavelength (Angstoms) -------  2984 
Wavelength Increment (Angstroms) --  .25 
Filter Wheel #1 Position ---------- (1) Ground quartz diffuser (ND=2.32)
Filter Wheel #2 Position ---------- (1) Neutral Density 0.494



************************************************************
HS scan start time = 17:37:28
Dark Count =  .9 


Time (GMT)  Wavelength (Ang)  Step Number  Raw Counts  Counts/Second

 1058.37        2950.00           2144         963.00      4194.58
 1058.56        2950.25           2147         953.00      4150.98
 1058.59        2950.50           2151         945.00      4116.09
 1058.62        2950.75           2155         926.00      4033.25
 1058.65        2951.00           2158         944.00      4111.73
 1058.68        2951.25           2162         964.00      4198.94
 1058.72        2951.50           2165         942.00      4103.01
 1058.75        2951.75           2169         954.00      4155.34
 1058.78        2952.00           2172         954.00      4155.34
 1058.81        2952.25           2176         985.00      4290.51
 1058.84        2952.50           2179         949.00      4133.54
 1058.87        2952.75           2183         967.00      4212.02
 1058.90        2953.00           2186         958.00      4172.78
 1058.93        2953.25           2190         954.00      4155.34
 1058.96        2953.50           2193         985.00      4290.51
 1058.99        2953.75           2197        1012.00      4408.25
 1059.02        2954.00           2200         965.00      4203.30
 1059.05        2954.25           2204         996.00      4338.48
 1059.08        2954.50           2208        1009.00      4395.16
 1059.11        2954.75           2211         987.00      4299.23
 1059.14        2955.00           2215        1000.00      4355.92
 1059.17        2955.25           2218         981.00      4273.07
 1059.20        2955.50           2222         976.00      4251.27
 1059.24        2955.75           2225        1019.00      4438.77
 1059.27        2956.00           2229        1039.00      4525.98
 1059.30        2956.25           2232        1055.00      4595.75
 1059.33        2956.50           2236        1021.00      4447.49
 1059.36        2956.75           2239        1074.00      4678.60
 1059.39        2957.00           2243        1085.00      4726.57
 1059.42        2957.25           2246        1053.00      4587.03
 1059.45        2957.50           2250        1073.00      4674.24
 1059.48        2957.75           2254        1107.00      4822.50
 1059.51        2958.00           2257        1102.00      4800.70
 1059.54        2958.25           2261        1098.00      4783.25
 1059.57        2958.50           2264        1104.00      4809.42
 1059.60        2958.75           2268        1113.00      4848.66
 1059.63        2959.00           2271        1156.00      5036.17
 1059.66        2959.25           2275        1146.00      4992.57
 1059.69        2959.50           2278        1146.00      4992.57
 1059.73        2959.75           2282        1179.00      5136.47
 1059.76        2960.00           2285        1179.00      5136.47
 1059.79        2960.25           2289        1234.00      5376.31
 1059.82        2960.50           2293        1217.00      5302.18
 1059.85        2960.75           2296        1271.00      5537.66
 1059.88        2961.00           2300        1319.00      5746.98
 1059.91        2961.25           2303        1486.00      6475.27
 1059.94        2961.50           2307        3846.00     16771.11
 1059.97        2961.75           2310        9278.00     40496.43
 1060.00        2962.00           2314       19844.00     86755.52
 1060.03        2962.25           2317       29881.00    130834.00
 1060.06        2962.50           2321       44720.00    196244.50
 1060.09        2962.75           2324       56508.00    248415.00
 1060.12        2963.00           2328       72952.00    321503.60
 1060.15        2963.25           2331       84569.00    373358.60
 1060.18        2963.50           2335      100016.00    442596.10
 1060.21        2963.75           2339      115290.00    511382.60
 1060.25        2964.00           2342      127105.00    564815.00
 1060.28        2964.25           2346      143109.00    637506.00
 1060.31        2964.50           2349      155206.00    692693.20
 1060.34        2964.75           2353      170874.00    764484.50
 1060.37        2965.00           2356      182046.00    815892.80
 1060.40        2965.25           2360      196485.00    882605.30
 1060.43        2965.50           2363      206816.00    930527.00
 1060.46        2965.75           2367      219762.00    990803.80
 1060.49        2966.00           2370      229924.00   1038295.00
 1060.52        2966.25           2374      244963.00   1108866.00
 1060.55        2966.50           2378      255738.00   1159641.00
 1060.58        2966.75           2381      259789.00   1178777.00
 1060.61        2967.00           2385      260755.00   1183344.00
 1060.64        2967.25           2388      261246.00   1185666.00
 1060.67        2967.50           2392      261013.00   1184564.00
 1060.70        2967.75           2395      261109.00   1185018.00
 1060.73        2968.00           2399      259130.00   1175662.00
 1060.76        2968.25           2402      253056.00   1146986.00
 1060.80        2968.50           2406      241754.00   1093779.00
 1060.83        2968.75           2409      232291.00   1049379.00
 1060.86        2969.00           2413      217935.00    982281.90
 1060.89        2969.25           2417      203349.00    914427.20
 1060.92        2969.50           2420      191432.00    859224.00
 1060.95        2969.75           2424      175903.00    787603.00
 1060.98        2970.00           2427      165027.00    737651.80
 1061.01        2970.25           2431      149053.00    664596.60
 1061.04        2970.50           2434      137729.00    613029.20
 1061.07        2970.75           2438      122117.00    542233.30
 1061.10        2971.00           2441      111531.00    494423.80
 1061.13        2971.25           2445       94687.00    418673.00
 1061.16        2971.50           2449       77035.00    339708.00
 1061.19        2971.75           2452       64253.00    282793.60
 1061.22        2972.00           2456       48913.00    214780.30
 1061.25        2972.25           2459       37613.00    164880.30
 1061.28        2972.50           2463       23700.00    103673.90
 1061.32        2972.75           2466       13825.00     60385.84
 1061.35        2973.00           2470        4786.00     20874.01
 1061.38        2973.25           2473        2285.00      9960.22
 1061.41        2973.50           2477        1389.00      6052.25
 1061.44        2973.75           2481        1268.00      5524.58
 1061.47        2974.00           2484        1270.00      5533.30
 1061.50        2974.25           2488        1223.00      5328.34
 1061.53        2974.50           2491        1194.00      5201.88
 1061.56        2974.75           2495        1174.00      5114.66
 1061.59        2975.00           2498        1194.00      5201.88
 1061.62        2975.25           2502        1166.00      5079.78
 1061.65        2975.50           2505        1144.00      4983.84
 1061.68        2975.75           2509        1121.00      4883.55
 1061.71        2976.00           2512        1101.00      4796.34
 1061.74        2976.25           2516        1131.00      4927.16
 1061.77        2976.50           2520        1096.00      4774.53
 1061.80        2976.75           2523        1059.00      4613.19
 1061.84        2977.00           2527        1048.00      4565.22
 1061.87        2977.25           2530        1053.00      4587.03
 1061.90        2977.50           2534        1044.00      4547.78
 1061.93        2977.75           2537        1019.00      4438.77
 1061.96        2978.00           2541        1040.00      4530.34
 1061.99        2978.25           2544        1011.00      4403.89
 1062.02        2978.50           2548        1018.00      4434.41
 1062.05        2978.75           2552         995.00      4334.12
 1062.08        2979.00           2555        1000.00      4355.92
 1062.11        2979.25           2559         979.00      4264.35
 1062.14        2979.50           2562         970.00      4225.11
 1062.17        2979.75           2566         990.00      4312.32
 1062.20        2980.00           2569         987.00      4299.23
 1062.23        2980.25           2573         982.00      4277.43
 1062.27        2980.50           2577         972.00      4233.83
 1062.30        2980.75           2580         936.00      4076.85
 1062.33        2981.00           2584         951.00      4142.26
 1062.36        2981.25           2587         942.00      4103.01
 1062.39        2981.50           2591         938.00      4085.57
 1062.42        2981.75           2594         921.00      4011.44
 1062.45        2982.00           2598         899.00      3915.52
 1062.48        2982.25           2601         945.00      4116.09
 1062.51        2982.50           2605         934.00      4068.13
 1062.54        2982.75           2609         901.00      3924.24
 1062.57        2983.00           2612         884.00      3850.11
 1062.60        2983.25           2616         885.00      3854.47
 1062.63        2983.50           2619         885.00      3854.47
 1062.67        2983.75           2623         933.00      4063.77
 1062.70        2984.00           2626         881.00      3837.03
HS scan finished at 17:42:55
end
