************************************************************
  HS Scan of (1) Internal mercury lamp
************************************************************
Integration time is 0.2294 seconds per sample
dh251017Reading 51.44 .94 3.29pr1000
************************************************************
Dead Time -------------------------  3.4E-08 
Number of Cycles Used -------------  4 
Starting Wavelength (Angstroms) ---  2950 
Final Wavelength (Angstoms) -------  2984 
Wavelength Increment (Angstroms) --  .25 
Filter Wheel #1 Position ---------- (1) Ground quartz diffuser (ND=2.32)
Filter Wheel #2 Position ---------- (1) Neutral Density 0.494



************************************************************
HS scan start time = 04:02:40
Dark Count =  1.7 


Time (GMT)  Wavelength (Ang)  Step Number  Raw Counts  Counts/Second

  243.56        2950.00           2144          87.00       371.84
  243.76        2950.25           2147          91.00       389.28
  243.79        2950.50           2151          88.00       376.20
  243.82        2950.75           2155          85.00       363.13
  243.85        2951.00           2158          88.00       376.20
  243.88        2951.25           2162          89.00       380.56
  243.91        2951.50           2165          82.00       350.05
  243.94        2951.75           2169          76.00       323.89
  243.97        2952.00           2172          88.00       376.20
  244.00        2952.25           2176          84.00       358.77
  244.03        2952.50           2179          87.00       371.84
  244.06        2952.75           2183          85.00       363.13
  244.09        2953.00           2186          91.00       389.28
  244.12        2953.25           2190          96.00       411.08
  244.16        2953.50           2193          93.00       398.00
  244.19        2953.75           2197          98.00       419.80
  244.22        2954.00           2200          91.00       389.28
  244.25        2954.25           2204         110.00       472.11
  244.28        2954.50           2208          91.00       389.28
  244.31        2954.75           2211          94.00       402.36
  244.34        2955.00           2215          94.00       402.36
  244.37        2955.25           2218          92.00       393.64
  244.40        2955.50           2222         101.00       432.87
  244.43        2955.75           2225          96.00       411.08
  244.46        2956.00           2229          98.00       419.80
  244.49        2956.25           2232         100.00       428.52
  244.52        2956.50           2236         101.00       432.87
  244.55        2956.75           2239         102.00       437.23
  244.58        2957.00           2243          98.00       419.80
  244.61        2957.25           2246         103.00       441.59
  244.64        2957.50           2250         107.00       459.03
  244.68        2957.75           2254          97.00       415.44
  244.71        2958.00           2257         129.00       554.94
  244.74        2958.25           2261         100.00       428.52
  244.77        2958.50           2264         118.00       506.98
  244.80        2958.75           2268         124.00       533.14
  244.83        2959.00           2271         112.00       480.83
  244.86        2959.25           2275         128.00       550.58
  244.89        2959.50           2278         129.00       554.94
  244.92        2959.75           2282         138.00       594.17
  244.95        2960.00           2285         139.00       598.53
  244.98        2960.25           2289         143.00       615.97
  245.01        2960.50           2293         121.00       520.06
  245.04        2960.75           2296         138.00       594.17
  245.07        2961.00           2300         174.00       751.11
  245.10        2961.25           2303         324.00      1405.04
  245.13        2961.50           2307        1201.00      5228.92
  245.16        2961.75           2310        2366.00     10310.07
  245.20        2962.00           2314        4090.00     17832.52
  245.23        2962.25           2317        5483.00     23913.51
  245.26        2962.50           2321        7220.00     31499.72
  245.29        2962.75           2324        8549.00     37306.66
  245.32        2963.00           2328       10472.00     45713.10
  245.35        2963.25           2331       11953.00     52190.62
  245.38        2963.50           2335       13932.00     60850.70
  245.41        2963.75           2339       15854.00     69266.25
  245.44        2964.00           2342       17452.00     76266.83
  245.47        2964.25           2346       19418.00     84884.12
  245.50        2964.50           2349       21020.00     91909.71
  245.53        2964.75           2353       22861.00     99987.56
  245.56        2965.00           2356       24130.00    105558.20
  245.59        2965.25           2360       25928.00    113454.70
  245.62        2965.50           2363       27455.00    120164.30
  245.65        2965.75           2367       29255.00    128077.50
  245.68        2966.00           2370       30782.00    134793.80
  245.72        2966.25           2374       32357.00    141724.40
  245.75        2966.50           2378       33444.00    146509.60
  245.78        2966.75           2381       33516.00    146826.60
  245.82        2967.00           2385       33584.00    147126.00
  245.85        2967.25           2388       33694.00    147610.40
  245.88        2967.50           2392       33500.00    146756.20
  245.91        2967.75           2395       33329.00    146003.30
  245.94        2968.00           2399       32489.00    142305.50
  245.97        2968.25           2402       31041.00    135933.30
  246.00        2968.50           2406       29299.00    128270.90
  246.03        2968.75           2409       27985.00    122493.90
  246.06        2969.00           2413       26099.00    114205.90
  246.09        2969.25           2417       23949.00    104763.50
  246.12        2969.50           2420       22556.00     98648.99
  246.15        2969.75           2424       20198.00     88304.39
  246.18        2970.00           2427       18868.00     82472.87
  246.21        2970.25           2431       16879.00     73756.24
  246.24        2970.50           2434       15521.00     67807.85
  246.27        2970.75           2438       13273.00     57966.35
  246.31        2971.00           2441       11864.00     51801.27
  246.34        2971.25           2445       10034.00     43797.96
  246.37        2971.50           2449        8153.00     35576.14
  246.40        2971.75           2452        6780.00     29577.68
  246.43        2972.00           2456        4928.00     21490.42
  246.46        2972.25           2459        3567.00     15550.07
  246.49        2972.50           2463        1782.00      7762.73
  246.52        2972.75           2466         807.00      3510.88
  246.55        2973.00           2470         260.00      1126.02
  246.58        2973.25           2473         160.00       690.08
  246.61        2973.50           2477         141.00       607.25
  246.64        2973.75           2481         144.00       620.33
  246.67        2974.00           2484         147.00       633.41
  246.70        2974.25           2488         128.00       550.58
  246.73        2974.50           2491         121.00       520.06
  246.76        2974.75           2495         155.00       668.28
  246.79        2975.00           2498         121.00       520.06
  246.83        2975.25           2502         109.00       467.75
  246.86        2975.50           2505         126.00       541.86
  246.89        2975.75           2509         109.00       467.75
  246.92        2976.00           2512         106.00       454.67
  246.95        2976.25           2516         125.00       537.50
  246.98        2976.50           2520         125.00       537.50
  247.01        2976.75           2523         134.00       576.73
  247.04        2977.00           2527         137.00       589.81
  247.07        2977.25           2530         111.00       476.47
  247.10        2977.50           2534          97.00       415.44
  247.13        2977.75           2537         123.00       528.78
  247.16        2978.00           2541         104.00       445.95
  247.19        2978.25           2544         115.00       493.91
  247.22        2978.50           2548          91.00       389.28
  247.25        2978.75           2552          96.00       411.08
  247.28        2979.00           2555          99.00       424.16
  247.31        2979.25           2559         119.00       511.34
  247.35        2979.50           2562         114.00       489.55
  247.38        2979.75           2566          95.00       406.72
  247.41        2980.00           2569          93.00       398.00
  247.44        2980.25           2573          81.00       345.69
  247.47        2980.50           2577         112.00       480.83
  247.50        2980.75           2580          82.00       350.05
  247.53        2981.00           2584          91.00       389.28
  247.56        2981.25           2587          85.00       363.13
  247.59        2981.50           2591          90.00       384.92
  247.62        2981.75           2594          91.00       389.28
  247.65        2982.00           2598          87.00       371.84
  247.68        2982.25           2601          97.00       415.44
  247.71        2982.50           2605          91.00       389.28
  247.74        2982.75           2609          79.00       336.97
  247.77        2983.00           2612          91.00       389.28
  247.80        2983.25           2616          84.00       358.77
  247.83        2983.50           2619          80.00       341.33
  247.87        2983.75           2623          93.00       398.00
  247.90        2984.00           2626          85.00       363.13
HS scan finished at 04:08:07
end
************************************************************
  HS Scan of (1) Internal mercury lamp
************************************************************
Integration time is 0.2294 seconds per sample
dh251017Reading 51.44 .94 3.54pr1000
************************************************************
Dead Time -------------------------  3.4E-08 
Number of Cycles Used -------------  4 
Starting Wavelength (Angstroms) ---  2950 
Final Wavelength (Angstoms) -------  2984 
Wavelength Increment (Angstroms) --  .25 
Filter Wheel #1 Position ---------- (1) Ground quartz diffuser (ND=2.32)
Filter Wheel #2 Position ---------- (1) Neutral Density 0.494



************************************************************
HS scan start time = 17:37:25
Dark Count =  3.6 


Time (GMT)  Wavelength (Ang)  Step Number  Raw Counts  Counts/Second

 1058.31        2950.00           2144          79.00       328.69
 1058.50        2950.25           2147          82.00       341.77
 1058.54        2950.50           2151          77.00       319.97
 1058.57        2950.75           2155          89.00       372.28
 1058.60        2951.00           2158          81.00       337.41
 1058.63        2951.25           2162          77.00       319.97
 1058.66        2951.50           2165          86.00       359.20
 1058.69        2951.75           2169          81.00       337.41
 1058.72        2952.00           2172          83.00       346.12
 1058.75        2952.25           2176          82.00       341.77
 1058.78        2952.50           2179          80.00       333.05
 1058.81        2952.75           2183          80.00       333.05
 1058.84        2953.00           2186          78.00       324.33
 1058.87        2953.25           2190          85.00       354.84
 1058.90        2953.50           2193          76.00       315.61
 1058.93        2953.75           2197          85.00       354.84
 1058.96        2954.00           2200          88.00       367.92
 1058.99        2954.25           2204          81.00       337.41
 1059.02        2954.50           2208         107.00       450.75
 1059.06        2954.75           2211         113.00       476.90
 1059.09        2955.00           2215          86.00       359.20
 1059.12        2955.25           2218          81.00       337.41
 1059.15        2955.50           2222          82.00       341.77
 1059.18        2955.75           2225          94.00       394.08
 1059.21        2956.00           2229          86.00       359.20
 1059.24        2956.25           2232          88.00       367.92
 1059.27        2956.50           2236          97.00       407.15
 1059.30        2956.75           2239         101.00       424.59
 1059.33        2957.00           2243          93.00       389.72
 1059.36        2957.25           2246          99.00       415.87
 1059.39        2957.50           2250          97.00       407.15
 1059.42        2957.75           2254         104.00       437.67
 1059.45        2958.00           2257          98.00       411.51
 1059.48        2958.25           2261         105.00       442.03
 1059.51        2958.50           2264          90.00       376.64
 1059.54        2958.75           2268         102.00       428.95
 1059.57        2959.00           2271         100.00       420.23
 1059.61        2959.25           2275         122.00       516.14
 1059.64        2959.50           2278         123.00       520.50
 1059.67        2959.75           2282          95.00       398.44
 1059.70        2960.00           2285         128.00       542.29
 1059.73        2960.25           2289         105.00       442.03
 1059.76        2960.50           2293         135.00       572.81
 1059.79        2960.75           2296         151.00       642.56
 1059.82        2961.00           2300         139.00       590.25
 1059.85        2961.25           2303         295.00      1270.33
 1059.88        2961.50           2307        1086.00      4719.15
 1059.91        2961.75           2310        2147.00      9346.47
 1059.94        2962.00           2314        3655.00     15925.80
 1059.97        2962.25           2317        4946.00     21560.70
 1060.00        2962.50           2321        6920.00     30180.91
 1060.03        2962.75           2324        8389.00     36599.14
 1060.06        2963.00           2328       10176.00     44410.52
 1060.09        2963.25           2331       11631.00     50773.72
 1060.13        2963.50           2335       13497.00     58938.39
 1060.16        2963.75           2339       15368.00     67129.50
 1060.19        2964.00           2342       16913.00     73896.86
 1060.22        2964.25           2346       18874.00     82490.85
 1060.25        2964.50           2349       20418.00     89260.90
 1060.28        2964.75           2353       22243.00     97267.09
 1060.31        2965.00           2356       23782.00    104022.00
 1060.34        2965.25           2360       25368.00    110986.50
 1060.37        2965.50           2363       26755.00    117079.80
 1060.40        2965.75           2367       28568.00    125048.40
 1060.43        2966.00           2370       29520.00    129234.40
 1060.46        2966.25           2374       31368.00    137363.70
 1060.49        2966.50           2378       31814.00    139326.30
 1060.52        2966.75           2381       32339.00    141636.90
 1060.55        2967.00           2385       32186.00    140963.40
 1060.58        2967.25           2388       33119.00    145070.40
 1060.61        2967.50           2392       33101.00    144991.10
 1060.65        2967.75           2395       32845.00    143864.10
 1060.68        2968.00           2399       31694.00    138798.20
 1060.71        2968.25           2402       30349.00    132880.60
 1060.74        2968.50           2406       28404.00    124327.40
 1060.77        2968.75           2409       26323.00    115181.70
 1060.80        2969.00           2413       24373.00    106616.80
 1060.83        2969.25           2417       22591.00     98794.25
 1060.86        2969.50           2420       21534.00     94156.22
 1060.89        2969.75           2424       19420.00     84884.56
 1060.92        2970.00           2427       18022.00     78756.38
 1060.95        2970.25           2431       15984.00     69827.31
 1060.98        2970.50           2434       14544.00     63521.53
 1061.01        2970.75           2438       12682.00     55371.81
 1061.04        2971.00           2441       11410.00     49807.04
 1061.07        2971.25           2445        9646.00     42093.33
 1061.10        2971.50           2449        7951.00     34685.17
 1061.13        2971.75           2452        6632.00     28922.94
 1061.17        2972.00           2456        4842.00     21106.68
 1061.20        2972.25           2459        3590.00     15642.15
 1061.23        2972.50           2463        1865.00      8116.45
 1061.26        2972.75           2466         968.00      4204.61
 1061.29        2973.00           2470         333.00      1435.99
 1061.32        2973.25           2473         177.00       755.90
 1061.35        2973.50           2477         146.00       620.76
 1061.38        2973.75           2481         127.00       537.93
 1061.41        2974.00           2484         117.00       494.34
 1061.44        2974.25           2488         129.00       546.65
 1061.47        2974.50           2491         123.00       520.50
 1061.51        2974.75           2495         129.00       546.65
 1061.55        2975.00           2498         111.00       468.19
 1061.58        2975.25           2502         100.00       420.23
 1061.61        2975.50           2505         106.00       446.39
 1061.64        2975.75           2509         118.00       498.70
 1061.67        2976.00           2512         101.00       424.59
 1061.70        2976.25           2516         100.00       420.23
 1061.73        2976.50           2520         119.00       503.06
 1061.76        2976.75           2523          96.00       402.80
 1061.79        2977.00           2527         140.00       594.61
 1061.82        2977.25           2530         100.00       420.23
 1061.85        2977.50           2534          92.00       385.36
 1061.88        2977.75           2537          95.00       398.44
 1061.91        2978.00           2541          93.00       389.72
 1061.95        2978.25           2544          97.00       407.15
 1061.98        2978.50           2548          86.00       359.20
 1062.01        2978.75           2552          84.00       350.48
 1062.04        2979.00           2555          86.00       359.20
 1062.07        2979.25           2559          90.00       376.64
 1062.10        2979.50           2562          79.00       328.69
 1062.13        2979.75           2566          86.00       359.20
 1062.16        2980.00           2569          86.00       359.20
 1062.19        2980.25           2573          92.00       385.36
 1062.22        2980.50           2577          81.00       337.41
 1062.25        2980.75           2580          81.00       337.41
 1062.28        2981.00           2584          81.00       337.41
 1062.31        2981.25           2587          84.00       350.48
 1062.34        2981.50           2591          84.00       350.48
 1062.37        2981.75           2594          84.00       350.48
 1062.40        2982.00           2598          79.00       328.69
 1062.43        2982.25           2601          84.00       350.48
 1062.46        2982.50           2605          77.00       319.97
 1062.50        2982.75           2609          82.00       341.77
 1062.53        2983.00           2612          77.00       319.97
 1062.56        2983.25           2616          78.00       324.33
 1062.59        2983.50           2619          70.00       289.45
 1062.62        2983.75           2623          68.00       280.74
 1062.65        2984.00           2626          85.00       354.84
HS scan finished at 17:42:52
end
