************************************************************
  HS Scan of (1) Internal mercury lamp
************************************************************
Integration time is 0.2294 seconds per sample
dh171018Reading 51.44 .94 3.21pr1000
************************************************************
Dead Time -------------------------  3.4E-08 
Number of Cycles Used -------------  4 
Starting Wavelength (Angstroms) ---  2950 
Final Wavelength (Angstoms) -------  2984 
Wavelength Increment (Angstroms) --  .25 
Filter Wheel #1 Position ---------- (1) Ground quartz diffuser (ND=2.32)
Filter Wheel #2 Position ---------- (1) Neutral Density 0.494



************************************************************
HS scan start time = 03:47:30
Dark Count =  1.5 


Time (GMT)  Wavelength (Ang)  Step Number  Raw Counts  Counts/Second

  228.42        2950.00           2144        1324.00      5766.17
  228.61        2950.25           2147        1346.00      5862.11
  228.64        2950.50           2151        1319.00      5744.37
  228.67        2950.75           2155        1311.00      5709.48
  228.70        2951.00           2158        1341.00      5840.31
  228.74        2951.25           2162        1339.00      5831.58
  228.77        2951.50           2165        1395.00      6075.80
  228.80        2951.75           2169        1333.00      5805.42
  228.83        2952.00           2172        1316.00      5731.28
  228.86        2952.25           2176        1338.00      5827.22
  228.89        2952.50           2179        1371.00      5971.13
  228.92        2952.75           2183        1389.00      6049.63
  228.95        2953.00           2186        1379.00      6006.02
  228.98        2953.25           2190        1366.00      5949.33
  229.01        2953.50           2193        1375.00      5988.58
  229.04        2953.75           2197        1375.00      5988.58
  229.07        2954.00           2200        1372.00      5975.49
  229.10        2954.25           2204        1396.00      6080.16
  229.13        2954.50           2208        1379.00      6006.02
  229.16        2954.75           2211        1382.00      6019.11
  229.19        2955.00           2215        1431.00      6232.79
  229.23        2955.25           2218        1424.00      6202.27
  229.26        2955.50           2222        1456.00      6341.82
  229.29        2955.75           2225        1439.00      6267.68
  229.32        2956.00           2229        1448.00      6306.93
  229.35        2956.25           2232        1478.00      6437.76
  229.38        2956.50           2236        1479.00      6442.13
  229.41        2956.75           2239        1495.00      6511.90
  229.45        2957.00           2243        1557.00      6782.30
  229.48        2957.25           2246        1486.00      6472.65
  229.51        2957.50           2250        1530.00      6664.54
  229.54        2957.75           2254        1527.00      6651.46
  229.57        2958.00           2257        1543.00      6721.24
  229.60        2958.25           2261        1574.00      6856.44
  229.63        2958.50           2264        1570.00      6838.99
  229.66        2958.75           2268        1585.00      6904.41
  229.69        2959.00           2271        1621.00      7061.42
  229.72        2959.25           2275        1617.00      7043.97
  229.75        2959.50           2278        1656.00      7214.06
  229.78        2959.75           2282        1603.00      6982.91
  229.81        2960.00           2285        1677.00      7305.65
  229.84        2960.25           2289        1718.00      7484.47
  229.87        2960.50           2293        1703.00      7419.05
  229.90        2960.75           2296        1782.00      7763.60
  229.93        2961.00           2300        1875.00      8169.23
  229.97        2961.25           2303        2246.00      9787.48
  230.00        2961.50           2307        5744.00     25054.03
  230.03        2961.75           2310       13505.00     58982.60
  230.06        2962.00           2314       29634.00    129745.00
  230.09        2962.25           2317       45687.00    200514.50
  230.12        2962.50           2321       67555.00    297472.60
  230.15        2962.75           2324       84172.00    371580.80
  230.18        2963.00           2328      106315.00    470921.70
  230.21        2963.25           2331      122411.00    543560.60
  230.24        2963.50           2335      147022.00    655331.70
  230.27        2963.75           2339      171944.00    769397.50
  230.30        2964.00           2342      189560.00    850568.70
  230.33        2964.25           2346      213505.00    961636.90
  230.36        2964.50           2349      229292.00   1035334.00
  230.39        2964.75           2353      252809.00   1145818.00
  230.42        2965.00           2356      269711.00   1225751.00
  230.45        2965.25           2360      290922.00   1326695.00
  230.49        2965.50           2363      305147.00   1394791.00
  230.52        2965.75           2367      323030.00   1480859.00
  230.55        2966.00           2370      337406.00   1550426.00
  230.58        2966.25           2374      358956.00   1655346.00
  230.61        2966.50           2378      375028.00   1734101.00
  230.64        2966.75           2381      379298.00   1755097.00
  230.67        2967.00           2385      380976.00   1763357.00
  230.70        2967.25           2388      380760.00   1762294.00
  230.73        2967.50           2392      380786.00   1762422.00
  230.76        2967.75           2395      380285.00   1759955.00
  230.79        2968.00           2399      373043.00   1724350.00
  230.82        2968.25           2402      362724.00   1673771.00
  230.85        2968.50           2406      345609.00   1590273.00
  230.88        2968.75           2409      331606.00   1522319.00
  230.91        2969.00           2413      311605.00   1425813.00
  230.94        2969.25           2417      290493.00   1324646.00
  230.97        2969.50           2420      272810.00   1240455.00
  231.01        2969.75           2424      250389.00   1134410.00
  231.04        2970.00           2427      233968.00   1057235.00
  231.07        2970.25           2431      211409.00    951880.50
  231.10        2970.50           2434      195284.00    877041.80
  231.13        2970.75           2438      173690.00    777422.50
  231.16        2971.00           2441      156896.00    700417.00
  231.19        2971.25           2445      134864.00    600008.70
  231.22        2971.50           2449      110323.00    488975.40
  231.25        2971.75           2452       92002.00    406631.60
  231.28        2972.00           2456       69380.00    305593.40
  231.31        2972.25           2459       54145.00    237939.40
  231.34        2972.50           2463       34926.00    153037.00
  231.37        2972.75           2466       20523.00     89730.61
  231.40        2973.00           2470        6790.00     29622.24
  231.43        2973.25           2473        3174.00     13836.06
  231.46        2973.50           2477        2020.00      8801.68
  231.49        2973.75           2481        1817.00      7916.25
  231.53        2974.00           2484        1800.00      7842.11
  231.56        2974.25           2488        1760.00      7667.65
  231.59        2974.50           2491        1738.00      7571.70
  231.62        2974.75           2495        1693.00      7375.43
  231.65        2975.00           2498        1651.00      7192.26
  231.68        2975.25           2502        1629.00      7096.31
  231.72        2975.50           2505        1650.00      7187.89
  231.75        2975.75           2509        1598.00      6961.11
  231.79        2976.00           2512        1573.00      6852.08
  231.82        2976.25           2516        1605.00      6991.64
  231.85        2976.50           2520        1587.00      6913.13
  231.88        2976.75           2523        1581.00      6886.97
  231.91        2977.00           2527        1501.00      6538.07
  231.94        2977.25           2530        1484.00      6463.93
  231.97        2977.50           2534        1444.00      6289.49
  232.00        2977.75           2537        1496.00      6516.27
  232.03        2978.00           2541        1462.00      6367.99
  232.06        2978.25           2544        1431.00      6232.79
  232.09        2978.50           2548        1451.00      6320.02
  232.12        2978.75           2552        1410.00      6141.21
  232.15        2979.00           2555        1394.00      6071.44
  232.18        2979.25           2559        1369.00      5962.41
  232.21        2979.50           2562        1365.00      5944.97
  232.24        2979.75           2566        1369.00      5962.41
  232.27        2980.00           2569        1373.00      5979.86
  232.30        2980.25           2573        1370.00      5966.77
  232.34        2980.50           2577        1353.00      5892.64
  232.37        2980.75           2580        1343.00      5849.03
  232.40        2981.00           2584        1338.00      5827.22
  232.43        2981.25           2587        1356.00      5905.72
  232.46        2981.50           2591        1301.00      5665.87
  232.49        2981.75           2594        1266.00      5513.24
  232.52        2982.00           2598        1290.00      5617.90
  232.55        2982.25           2601        1274.00      5548.13
  232.58        2982.50           2605        1289.00      5613.54
  232.61        2982.75           2609        1260.00      5487.07
  232.64        2983.00           2612        1252.00      5452.19
  232.67        2983.25           2616        1299.00      5657.15
  232.70        2983.50           2619        1306.00      5687.67
  232.73        2983.75           2623        1242.00      5408.58
  232.76        2984.00           2626        1272.00      5539.40
HS scan finished at 03:52:59
end
************************************************************
  HS Scan of (1) Internal mercury lamp
************************************************************
Integration time is 0.2294 seconds per sample
dh171018Reading 51.44 .94 3.49pr1000
************************************************************
Dead Time -------------------------  3.4E-08 
Number of Cycles Used -------------  4 
Starting Wavelength (Angstroms) ---  2950 
Final Wavelength (Angstoms) -------  2984 
Wavelength Increment (Angstroms) --  .25 
Filter Wheel #1 Position ---------- (1) Ground quartz diffuser (ND=2.32)
Filter Wheel #2 Position ---------- (1) Neutral Density 0.494



************************************************************
HS scan start time = 18:07:27
Dark Count =  3 


Time (GMT)  Wavelength (Ang)  Step Number  Raw Counts  Counts/Second

 1088.35        2950.00           2144        1041.00      4525.54
 1088.54        2950.25           2147        1062.00      4617.12
 1088.57        2950.50           2151        1053.00      4577.87
 1088.61        2950.75           2155        1073.00      4665.08
 1088.64        2951.00           2158        1083.00      4708.69
 1088.67        2951.25           2162        1059.00      4604.03
 1088.70        2951.50           2165        1077.00      4682.52
 1088.73        2951.75           2169        1084.00      4713.05
 1088.76        2952.00           2172        1085.00      4717.41
 1088.79        2952.25           2176        1071.00      4656.36
 1088.82        2952.50           2179        1066.00      4634.56
 1088.85        2952.75           2183        1094.00      4756.65
 1088.88        2953.00           2186        1092.00      4747.93
 1088.91        2953.25           2190        1130.00      4913.64
 1088.94        2953.50           2193        1109.00      4822.06
 1088.97        2953.75           2197        1088.00      4730.49
 1089.00        2954.00           2200        1133.00      4926.72
 1089.03        2954.25           2204        1104.00      4800.26
 1089.06        2954.50           2208        1128.00      4904.92
 1089.09        2954.75           2211        1141.00      4961.60
 1089.13        2955.00           2215        1126.00      4896.20
 1089.16        2955.25           2218        1165.00      5066.26
 1089.19        2955.50           2222        1177.00      5118.59
 1089.22        2955.75           2225        1135.00      4935.44
 1089.25        2956.00           2229        1137.00      4944.16
 1089.28        2956.25           2232        1192.00      5184.00
 1089.32        2956.50           2236        1197.00      5205.80
 1089.35        2956.75           2239        1193.00      5188.36
 1089.38        2957.00           2243        1218.00      5297.38
 1089.41        2957.25           2246        1199.00      5214.53
 1089.44        2957.50           2250        1240.00      5393.32
 1089.47        2957.75           2254        1203.00      5231.97
 1089.50        2958.00           2257        1225.00      5327.91
 1089.53        2958.25           2261        1270.00      5524.14
 1089.56        2958.50           2264        1241.00      5397.68
 1089.59        2958.75           2268        1259.00      5476.17
 1089.62        2959.00           2271        1295.00      5633.16
 1089.65        2959.25           2275        1307.00      5685.49
 1089.68        2959.50           2278        1335.00      5807.60
 1089.71        2959.75           2282        1334.00      5803.24
 1089.74        2960.00           2285        1362.00      5925.34
 1089.77        2960.25           2289        1418.00      6169.56
 1089.81        2960.50           2293        1437.00      6252.42
 1089.84        2960.75           2296        1459.00      6348.36
 1089.87        2961.00           2300        1499.00      6522.81
 1089.90        2961.25           2303        1820.00      7922.80
 1089.93        2961.50           2307        4819.00     21008.90
 1089.96        2961.75           2310       12750.00     55671.98
 1089.99        2962.00           2314       27774.00    121560.70
 1090.02        2962.25           2317       39710.00    174118.40
 1090.05        2962.50           2321       57394.00    252334.40
 1090.08        2962.75           2324       70825.00    312019.80
 1090.11        2963.00           2328       91003.00    402148.20
 1090.14        2963.25           2331      106409.00    471338.10
 1090.17        2963.50           2335      126943.00    564071.60
 1090.20        2963.75           2339      144218.00    642547.00
 1090.23        2964.00           2342      157966.00    705304.30
 1090.26        2964.25           2346      176894.00    792153.30
 1090.29        2964.50           2349      193118.00    867011.50
 1090.32        2964.75           2353      213062.00    959567.30
 1090.36        2965.00           2356      226942.00   1024333.00
 1090.39        2965.25           2360      243563.00   1102272.00
 1090.42        2965.50           2363      256290.00   1162237.00
 1090.45        2965.75           2367      274288.00   1247466.00
 1090.48        2966.00           2370      288444.00   1314858.00
 1090.51        2966.25           2374      304870.00   1393455.00
 1090.54        2966.50           2378      318552.00   1459252.00
 1090.57        2966.75           2381      323858.00   1484850.00
 1090.60        2967.00           2385      325693.00   1493713.00
 1090.63        2967.25           2388      325860.00   1494520.00
 1090.66        2967.50           2392      325977.00   1495085.00
 1090.69        2967.75           2395      326237.00   1496342.00
 1090.72        2968.00           2399      324356.00   1487255.00
 1090.75        2968.25           2402      317142.00   1452457.00
 1090.78        2968.50           2406      302350.00   1381369.00
 1090.81        2968.75           2409      289849.00   1321564.00
 1090.84        2969.00           2413      273065.00   1241659.00
 1090.88        2969.25           2417      256280.00   1162190.00
 1090.91        2969.50           2420      242569.00   1097599.00
 1090.94        2969.75           2424      222131.00   1001851.00
 1090.97        2970.00           2427      206609.00    929555.50
 1091.00        2970.25           2431      186594.00    836863.10
 1091.03        2970.50           2434      171113.00    765572.80
 1091.07        2970.75           2438      150938.00    673188.80
 1091.10        2971.00           2441      135616.00    603417.60
 1091.13        2971.25           2445      115228.00    511093.20
 1091.16        2971.50           2449       95307.00    421444.90
 1091.19        2971.75           2452       80661.00    355884.50
 1091.22        2972.00           2456       59890.00    263407.80
 1091.25        2972.25           2459       44804.00    196606.30
 1091.28        2972.50           2463       27334.00    119626.80
 1091.31        2972.75           2466       16006.00     69926.30
 1091.34        2973.00           2470        5652.00     24645.75
 1091.37        2973.25           2473        2734.00     11909.79
 1091.40        2973.50           2477        1659.00      7220.60
 1091.43        2973.75           2481        1524.00      6631.84
 1091.46        2974.00           2484        1509.00      6566.42
 1091.49        2974.25           2488        1429.00      6217.53
 1091.52        2974.50           2491        1409.00      6130.31
 1091.55        2974.75           2495        1372.00      5968.95
 1091.59        2975.00           2498        1365.00      5938.43
 1091.62        2975.25           2502        1357.00      5903.54
 1091.65        2975.50           2505        1317.00      5729.10
 1091.68        2975.75           2509        1296.00      5637.52
 1091.71        2976.00           2512        1278.00      5559.03
 1091.74        2976.25           2516        1268.00      5515.42
 1091.77        2976.50           2520        1231.00      5354.07
 1091.80        2976.75           2523        1252.00      5445.65
 1091.83        2977.00           2527        1282.00      5576.47
 1091.86        2977.25           2530        1223.00      5319.18
 1091.89        2977.50           2534        1223.00      5319.18
 1091.92        2977.75           2537        1206.00      5245.05
 1091.95        2978.00           2541        1174.00      5105.51
 1091.98        2978.25           2544        1144.00      4974.69
 1092.01        2978.50           2548        1154.00      5018.29
 1092.04        2978.75           2552        1154.00      5018.29
 1092.07        2979.00           2555        1129.00      4909.28
 1092.11        2979.25           2559        1151.00      5005.21
 1092.14        2979.50           2562        1156.00      5027.01
 1092.17        2979.75           2566        1121.00      4874.39
 1092.20        2980.00           2569        1094.00      4756.65
 1092.23        2980.25           2573        1123.00      4883.11
 1092.26        2980.50           2577        1108.00      4817.70
 1092.29        2980.75           2580        1072.00      4660.72
 1092.32        2981.00           2584        1078.00      4686.89
 1092.35        2981.25           2587        1105.00      4804.62
 1092.38        2981.50           2591        1071.00      4656.36
 1092.41        2981.75           2594        1037.00      4508.10
 1092.44        2982.00           2598        1045.00      4542.99
 1092.47        2982.25           2601        1043.00      4534.26
 1092.50        2982.50           2605        1032.00      4486.30
 1092.53        2982.75           2609        1044.00      4538.63
 1092.56        2983.00           2612        1024.00      4451.42
 1092.59        2983.25           2616        1052.00      4573.51
 1092.62        2983.50           2619        1020.00      4433.97
 1092.66        2983.75           2623        1024.00      4451.42
 1092.69        2984.00           2626        1026.00      4460.14
HS scan finished at 18:12:55
end
