************************************************************
  HS Scan of (1) Internal mercury lamp
************************************************************
Integration time is 0.2294 seconds per sample
dh241018Reading 51.44 .94 3.09pr1000
************************************************************
Dead Time -------------------------  3.4E-08 
Number of Cycles Used -------------  4 
Starting Wavelength (Angstroms) ---  2950 
Final Wavelength (Angstoms) -------  2984 
Wavelength Increment (Angstroms) --  .25 
Filter Wheel #1 Position ---------- (1) Ground quartz diffuser (ND=2.32)
Filter Wheel #2 Position ---------- (1) Neutral Density 0.494



************************************************************
HS scan start time = 04:00:33
Dark Count =  1.1 


Time (GMT)  Wavelength (Ang)  Step Number  Raw Counts  Counts/Second

  241.45        2950.00           2144        1476.00      6430.79
  241.64        2950.25           2147        1518.00      6613.96
  241.67        2950.50           2151        1468.00      6395.90
  241.70        2950.75           2155        1526.00      6648.84
  241.73        2951.00           2158        1522.00      6631.40
  241.76        2951.25           2162        1505.00      6557.26
  241.79        2951.50           2165        1519.00      6618.32
  241.82        2951.75           2169        1518.00      6613.96
  241.85        2952.00           2172        1537.00      6696.82
  241.88        2952.25           2176        1530.00      6666.29
  241.91        2952.50           2179        1555.00      6775.32
  241.94        2952.75           2183        1524.00      6640.12
  241.98        2953.00           2186        1523.00      6635.76
  242.01        2953.25           2190        1514.00      6596.51
  242.04        2953.50           2193        1554.00      6770.96
  242.07        2953.75           2197        1569.00      6836.38
  242.10        2954.00           2200        1579.00      6879.99
  242.13        2954.25           2204        1554.00      6770.96
  242.16        2954.50           2208        1607.00      7002.10
  242.19        2954.75           2211        1586.00      6910.52
  242.22        2955.00           2215        1620.00      7058.80
  242.25        2955.25           2218        1577.00      6871.27
  242.28        2955.50           2222        1629.00      7098.05
  242.31        2955.75           2225        1609.00      7010.83
  242.34        2956.00           2229        1600.00      6971.57
  242.37        2956.25           2232        1615.00      7036.99
  242.40        2956.50           2236        1660.00      7233.25
  242.43        2956.75           2239        1632.00      7111.14
  242.47        2957.00           2243        1670.00      7276.87
  242.50        2957.25           2246        1639.00      7141.66
  242.53        2957.50           2250        1664.00      7250.70
  242.56        2957.75           2254        1685.00      7342.29
  242.59        2958.00           2257        1704.00      7425.15
  242.62        2958.25           2261        1753.00      7638.86
  242.65        2958.50           2264        1734.00      7555.99
  242.68        2958.75           2268        1780.00      7756.62
  242.71        2959.00           2271        1758.00      7660.67
  242.74        2959.25           2275        1830.00      7974.70
  242.77        2959.50           2278        1872.00      8157.89
  242.80        2959.75           2282        1805.00      7865.66
  242.83        2960.00           2285        1854.00      8079.38
  242.86        2960.25           2289        1888.00      8227.67
  242.89        2960.50           2293        1943.00      8467.56
  242.92        2960.75           2296        1983.00      8642.03
  242.95        2961.00           2300        2137.00      9313.76
  242.99        2961.25           2303        2482.00     10818.71
  243.02        2961.50           2307        6155.00     26850.57
  243.05        2961.75           2310       15628.00     68279.08
  243.08        2962.00           2314       34465.00    151008.30
  243.11        2962.25           2317       50300.00    220916.00
  243.14        2962.50           2321       71823.00    316472.90
  243.17        2962.75           2324       87781.00    387727.80
  243.20        2963.00           2328      111062.00    492308.30
  243.23        2963.25           2331      129161.00    574132.20
  243.26        2963.50           2335      153106.00    683097.00
  243.29        2963.75           2339      176187.00    788908.80
  243.32        2964.00           2342      193788.00    870120.20
  243.35        2964.25           2346      218943.00    986982.10
  243.38        2964.50           2349      236807.00   1070550.00
  243.41        2964.75           2353      261137.00   1185149.00
  243.44        2965.00           2356      276125.00   1256203.00
  243.47        2965.25           2360      295302.00   1347630.00
  243.51        2965.50           2363      311433.00   1424988.00
  243.54        2965.75           2367      333692.00   1532423.00
  243.57        2966.00           2370      351779.00   1620320.00
  243.60        2966.25           2374      374941.00   1733675.00
  243.63        2966.50           2378      390061.00   1808162.00
  243.66        2966.75           2381      395251.00   1833819.00
  243.69        2967.00           2385      396836.00   1841665.00
  243.72        2967.25           2388      396812.00   1841546.00
  243.75        2967.50           2392      396586.00   1840427.00
  243.78        2967.75           2395      396028.00   1837665.00
  243.81        2968.00           2399      389216.00   1803989.00
  243.84        2968.25           2402      377597.00   1746732.00
  243.87        2968.50           2406      359915.00   1660035.00
  243.90        2968.75           2409      343594.00   1580477.00
  243.93        2969.00           2413      323979.00   1485443.00
  243.96        2969.25           2417      303064.00   1384801.00
  243.99        2969.50           2420      285456.00   1300616.00
  244.03        2969.75           2424      260932.00   1184180.00
  244.06        2970.00           2427      241260.00   1091456.00
  244.09        2970.25           2431      217580.00    980625.90
  244.12        2970.50           2434      200855.00    902855.90
  244.15        2970.75           2438      178982.00    801774.60
  244.18        2971.00           2441      160023.00    714726.20
  244.21        2971.25           2445      133915.00    595701.10
  244.24        2971.50           2449      110026.00    487638.60
  244.27        2971.75           2452       93840.00    414873.40
  244.30        2972.00           2456       71394.00    314562.20
  244.33        2972.25           2459       54398.00    239062.10
  244.36        2972.50           2463       31707.00    138866.40
  244.39        2972.75           2466       17243.00     75353.66
  244.42        2973.00           2470        5665.00     24710.81
  244.45        2973.25           2473        2757.00     12018.42
  244.48        2973.50           2477        2115.00      9217.80
  244.51        2973.75           2481        1992.00      8681.29
  244.55        2974.00           2484        1934.00      8428.31
  244.58        2974.25           2488        1935.00      8432.67
  244.61        2974.50           2491        1893.00      8249.48
  244.64        2974.75           2495        1865.00      8127.35
  244.67        2975.00           2498        1865.00      8127.35
  244.70        2975.25           2502        1816.00      7913.64
  244.73        2975.50           2505        1774.00      7730.45
  244.76        2975.75           2509        1779.00      7752.26
  244.79        2976.00           2512        1771.00      7717.37
  244.82        2976.25           2516        1735.00      7560.36
  244.85        2976.50           2520        1701.00      7412.07
  244.88        2976.75           2523        1709.00      7446.96
  244.91        2977.00           2527        1671.00      7281.23
  244.94        2977.25           2530        1653.00      7202.72
  244.97        2977.50           2534        1640.00      7146.03
  245.00        2977.75           2537        1679.00      7316.12
  245.03        2978.00           2541        1629.00      7098.05
  245.06        2978.25           2544        1577.00      6871.27
  245.10        2978.50           2548        1574.00      6858.18
  245.13        2978.75           2552        1558.00      6788.40
  245.16        2979.00           2555        1564.00      6814.57
  245.19        2979.25           2559        1561.00      6801.49
  245.22        2979.50           2562        1555.00      6775.32
  245.25        2979.75           2566        1510.00      6579.07
  245.28        2980.00           2569        1521.00      6627.04
  245.31        2980.25           2573        1488.00      6483.12
  245.34        2980.50           2577        1487.00      6478.76
  245.37        2980.75           2580        1476.00      6430.79
  245.40        2981.00           2584        1508.00      6570.34
  245.43        2981.25           2587        1483.00      6461.32
  245.46        2981.50           2591        1470.00      6404.62
  245.49        2981.75           2594        1433.00      6243.26
  245.52        2982.00           2598        1434.00      6247.62
  245.55        2982.25           2601        1450.00      6317.40
  245.58        2982.50           2605        1433.00      6243.26
  245.62        2982.75           2609        1415.00      6164.76
  245.65        2983.00           2612        1443.00      6286.87
  245.68        2983.25           2616        1436.00      6256.34
  245.71        2983.50           2619        1383.00      6025.21
  245.74        2983.75           2623        1416.00      6169.12
  245.77        2984.00           2626        1437.00      6260.71
HS scan finished at 04:06:00
end
************************************************************
  HS Scan of (1) Internal mercury lamp
************************************************************
Integration time is 0.2294 seconds per sample
dh241018Reading 51.44 .94 3.29pr1000
************************************************************
Dead Time -------------------------  3.4E-08 
Number of Cycles Used -------------  4 
Starting Wavelength (Angstroms) ---  2950 
Final Wavelength (Angstoms) -------  2984 
Wavelength Increment (Angstroms) --  .25 
Filter Wheel #1 Position ---------- (1) Ground quartz diffuser (ND=2.32)
Filter Wheel #2 Position ---------- (1) Neutral Density 0.494



************************************************************
HS scan start time = 17:37:27
Dark Count =  2 


Time (GMT)  Wavelength (Ang)  Step Number  Raw Counts  Counts/Second

 1058.35        2950.00           2144        1160.00      5048.82
 1058.54        2950.25           2147        1101.00      4791.54
 1058.57        2950.50           2151        1147.00      4992.13
 1058.61        2950.75           2155        1146.00      4987.77
 1058.64        2951.00           2158        1150.00      5005.21
 1058.67        2951.25           2162        1150.00      5005.21
 1058.70        2951.50           2165        1159.00      5044.46
 1058.73        2951.75           2169        1140.00      4961.60
 1058.76        2952.00           2172        1135.00      4939.80
 1058.79        2952.25           2176        1165.00      5070.62
 1058.82        2952.50           2179        1180.00      5136.03
 1058.85        2952.75           2183        1181.00      5140.39
 1058.88        2953.00           2186        1168.00      5083.70
 1058.91        2953.25           2190        1160.00      5048.82
 1058.94        2953.50           2193        1186.00      5162.20
 1058.97        2953.75           2197        1190.00      5179.64
 1059.00        2954.00           2200        1197.00      5210.16
 1059.03        2954.25           2204        1193.00      5192.72
 1059.06        2954.50           2208        1195.00      5201.44
 1059.09        2954.75           2211        1212.00      5275.58
 1059.13        2955.00           2215        1233.00      5367.15
 1059.16        2955.25           2218        1221.00      5314.82
 1059.19        2955.50           2222        1215.00      5288.66
 1059.22        2955.75           2225        1262.00      5493.62
 1059.25        2956.00           2229        1241.00      5402.04
 1059.28        2956.25           2232        1247.00      5428.20
 1059.31        2956.50           2236        1253.00      5454.37
 1059.34        2956.75           2239        1281.00      5576.47
 1059.37        2957.00           2243        1248.00      5432.56
 1059.40        2957.25           2246        1271.00      5532.86
 1059.43        2957.50           2250        1289.00      5611.36
 1059.46        2957.75           2254        1307.00      5689.85
 1059.49        2958.00           2257        1274.00      5545.95
 1059.52        2958.25           2261        1339.00      5829.40
 1059.55        2958.50           2264        1335.00      5811.96
 1059.58        2958.75           2268        1357.00      5907.90
 1059.61        2959.00           2271        1354.00      5894.82
 1059.65        2959.25           2275        1382.00      6016.92
 1059.68        2959.50           2278        1407.00      6125.95
 1059.71        2959.75           2282        1415.00      6160.84
 1059.74        2960.00           2285        1454.00      6330.92
 1059.77        2960.25           2289        1456.00      6339.64
 1059.80        2960.50           2293        1481.00      6448.67
 1059.83        2960.75           2296        1579.00      6876.06
 1059.86        2961.00           2300        1617.00      7041.79
 1059.89        2961.25           2303        1706.00      7429.95
 1059.92        2961.50           2307        3275.00     14274.58
 1059.95        2961.75           2310        8421.00     36745.97
 1059.98        2962.00           2314       21720.00     94979.28
 1060.01        2962.25           2317       34830.00    152612.00
 1060.04        2962.50           2321       53411.00    234685.60
 1060.07        2962.75           2324       66832.00    294254.50
 1060.10        2963.00           2328       84217.00    371779.80
 1060.13        2963.25           2331       99187.00    438867.00
 1060.17        2963.50           2335      118341.00    525156.80
 1060.20        2963.75           2339      139277.00    620062.70
 1060.23        2964.00           2342      153396.00    684417.50
 1060.26        2964.25           2346      172244.00    770773.80
 1060.29        2964.50           2349      187420.00    840681.40
 1060.32        2964.75           2353      208315.00    937488.50
 1060.35        2965.00           2356      223117.00   1006461.00
 1060.38        2965.25           2360      241332.00   1091791.00
 1060.41        2965.50           2363      255121.00   1156724.00
 1060.44        2965.75           2367      272943.00   1241084.00
 1060.47        2966.00           2370      286541.00   1305785.00
 1060.50        2966.25           2374      303461.00   1386700.00
 1060.53        2966.50           2378      316500.00   1449369.00
 1060.56        2966.75           2381      321181.00   1471934.00
 1060.59        2967.00           2385      323348.00   1482392.00
 1060.62        2967.25           2388      324032.00   1485695.00
 1060.65        2967.50           2392      323911.00   1485111.00
 1060.69        2967.75           2395      323489.00   1483073.00
 1060.72        2968.00           2399      321828.00   1475056.00
 1060.75        2968.25           2402      315472.00   1444418.00
 1060.78        2968.50           2406      301306.00   1376369.00
 1060.81        2968.75           2409      288721.00   1316185.00
 1060.84        2969.00           2413      270562.00   1229785.00
 1060.87        2969.25           2417      252944.00   1146453.00
 1060.90        2969.50           2420      240758.00   1089094.00
 1060.93        2969.75           2424      222991.00   1005872.00
 1060.96        2970.00           2427      208021.00    936121.80
 1060.99        2970.25           2431      189352.00    849605.20
 1061.02        2970.50           2434      174735.00    782225.40
 1061.05        2970.75           2438      154651.00    690151.60
 1061.08        2971.00           2441      139254.00    619958.10
 1061.11        2971.25           2445      119916.00    532275.00
 1061.14        2971.50           2449      100960.00    446833.00
 1061.17        2971.75           2452       87641.00    387097.10
 1061.21        2972.00           2456       70347.00    309895.80
 1061.24        2972.25           2459       56823.00    249806.70
 1061.27        2972.50           2463       38063.00    166859.40
 1061.30        2972.75           2466       23987.00    104929.10
 1061.33        2973.00           2470        9107.00     39744.17
 1061.36        2973.25           2473        4026.00     17551.89
 1061.39        2973.50           2477        1924.00      8380.77
 1061.42        2973.75           2481        1643.00      7155.18
 1061.45        2974.00           2484        1550.00      6749.59
 1061.48        2974.25           2488        1521.00      6623.11
 1061.51        2974.50           2491        1464.00      6374.53
 1061.54        2974.75           2495        1421.00      6187.00
 1061.57        2975.00           2498        1449.00      6309.11
 1061.60        2975.25           2502        1403.00      6108.50
 1061.63        2975.50           2505        1399.00      6091.06
 1061.66        2975.75           2509        1337.00      5820.68
 1061.69        2976.00           2512        1343.00      5846.85
 1061.73        2976.25           2516        1345.00      5855.57
 1061.76        2976.50           2520        1365.00      5942.79
 1061.79        2976.75           2523        1322.00      5755.27
 1061.82        2977.00           2527        1308.00      5694.22
 1061.85        2977.25           2530        1293.00      5628.80
 1061.88        2977.50           2534        1291.00      5620.08
 1061.91        2977.75           2537        1267.00      5515.42
 1061.94        2978.00           2541        1247.00      5428.20
 1061.97        2978.25           2544        1248.00      5432.56
 1062.00        2978.50           2548        1198.00      5214.53
 1062.03        2978.75           2552        1200.00      5223.25
 1062.06        2979.00           2555        1244.00      5415.12
 1062.09        2979.25           2559        1181.00      5140.39
 1062.12        2979.50           2562        1171.00      5096.79
 1062.15        2979.75           2566        1209.00      5262.49
 1062.18        2980.00           2569        1168.00      5083.70
 1062.21        2980.25           2573        1188.00      5170.92
 1062.25        2980.50           2577        1178.00      5127.31
 1062.28        2980.75           2580        1158.00      5040.10
 1062.31        2981.00           2584        1149.00      5000.85
 1062.34        2981.25           2587        1142.00      4970.33
 1062.37        2981.50           2591        1131.00      4922.36
 1062.40        2981.75           2594        1165.00      5070.62
 1062.43        2982.00           2598        1120.00      4874.39
 1062.46        2982.25           2601        1113.00      4843.87
 1062.49        2982.50           2605        1107.00      4817.70
 1062.52        2982.75           2609        1089.00      4739.21
 1062.55        2983.00           2612        1120.00      4874.39
 1062.58        2983.25           2616        1106.00      4813.34
 1062.61        2983.50           2619        1094.00      4761.01
 1062.64        2983.75           2623        1094.00      4761.01
 1062.67        2984.00           2626        1087.00      4730.49
HS scan finished at 17:42:54
end
