************************************************************
  HS Scan of (1) Internal mercury lamp
************************************************************
Integration time is 0.2294 seconds per sample
dh241017Reading 51.44 .94 3.52pr1000
************************************************************
Dead Time -------------------------  3.4E-08 
Number of Cycles Used -------------  4 
Starting Wavelength (Angstroms) ---  2950 
Final Wavelength (Angstoms) -------  2984 
Wavelength Increment (Angstroms) --  .25 
Filter Wheel #1 Position ---------- (1) Ground quartz diffuser (ND=2.32)
Filter Wheel #2 Position ---------- (1) Neutral Density 0.494



************************************************************
HS scan start time = 17:37:27
Dark Count =  2.9 


Time (GMT)  Wavelength (Ang)  Step Number  Raw Counts  Counts/Second

 1058.35        2950.00           2144          76.00       318.66
 1058.55        2950.25           2147          75.00       314.30
 1058.58        2950.50           2151          79.00       331.74
 1058.61        2950.75           2155          68.00       283.79
 1058.64        2951.00           2158          76.00       318.66
 1058.67        2951.25           2162          82.00       344.82
 1058.70        2951.50           2165          70.00       292.51
 1058.73        2951.75           2169          75.00       314.30
 1058.76        2952.00           2172          77.00       323.02
 1058.79        2952.25           2176          68.00       283.79
 1058.82        2952.50           2179          83.00       349.18
 1058.85        2952.75           2183          82.00       344.82
 1058.88        2953.00           2186          76.00       318.66
 1058.91        2953.25           2190          72.00       301.22
 1058.94        2953.50           2193          74.00       309.94
 1058.97        2953.75           2197          73.00       305.58
 1059.01        2954.00           2200          83.00       349.18
 1059.04        2954.25           2204          89.00       375.33
 1059.07        2954.50           2208          84.00       353.54
 1059.10        2954.75           2211          86.00       362.25
 1059.13        2955.00           2215          90.00       379.69
 1059.16        2955.25           2218          77.00       323.02
 1059.19        2955.50           2222          86.00       362.25
 1059.22        2955.75           2225          83.00       349.18
 1059.25        2956.00           2229          79.00       331.74
 1059.28        2956.25           2232          78.00       327.38
 1059.31        2956.50           2236          89.00       375.33
 1059.34        2956.75           2239          88.00       370.97
 1059.37        2957.00           2243          88.00       370.97
 1059.40        2957.25           2246         100.00       423.28
 1059.43        2957.50           2250          90.00       379.69
 1059.46        2957.75           2254          93.00       392.77
 1059.49        2958.00           2257          86.00       362.25
 1059.53        2958.25           2261          92.00       388.41
 1059.56        2958.50           2264          91.00       384.05
 1059.59        2958.75           2268         110.00       466.88
 1059.62        2959.00           2271         110.00       466.88
 1059.65        2959.25           2275          93.00       392.77
 1059.68        2959.50           2278          95.00       401.49
 1059.71        2959.75           2282         122.00       519.19
 1059.74        2960.00           2285         102.00       432.00
 1059.77        2960.25           2289         120.00       510.47
 1059.80        2960.50           2293         109.00       462.52
 1059.83        2960.75           2296         137.00       584.58
 1059.86        2961.00           2300         154.00       658.69
 1059.89        2961.25           2303         293.00      1264.66
 1059.92        2961.50           2307        1053.00      4578.31
 1059.95        2961.75           2310        2024.00      8813.02
 1059.98        2962.00           2314        3634.00     15837.21
 1060.01        2962.25           2317        4896.00     21345.48
 1060.05        2962.50           2321        6421.00     28004.42
 1060.08        2962.75           2324        7545.00     32914.32
 1060.11        2963.00           2328        9228.00     40269.13
 1060.14        2963.25           2331       10460.00     45655.39
 1060.17        2963.50           2335       12435.00     54294.12
 1060.20        2963.75           2339       14176.00     61913.54
 1060.23        2964.00           2342       15251.00     66620.21
 1060.26        2964.25           2346       16737.00     73128.85
 1060.29        2964.50           2349       18048.00     78873.40
 1060.32        2964.75           2353       19919.00     87075.63
 1060.35        2965.00           2356       21297.00     93119.56
 1060.38        2965.25           2360       22951.00    100377.30
 1060.41        2965.50           2363       24098.00    105412.40
 1060.44        2965.75           2367       25442.00    111314.60
 1060.47        2966.00           2370       26822.00    117377.30
 1060.50        2966.25           2374       28257.00    123684.30
 1060.53        2966.50           2378       29186.00    127768.80
 1060.57        2966.75           2381       29567.00    129444.20
 1060.60        2967.00           2385       29425.00    128819.70
 1060.63        2967.25           2388       29329.00    128397.60
 1060.66        2967.50           2392       29443.00    128898.90
 1060.69        2967.75           2395       29183.00    127755.60
 1060.72        2968.00           2399       28543.00    124941.60
 1060.75        2968.25           2402       27531.00    120493.10
 1060.78        2968.50           2406       25739.00    112619.20
 1060.81        2968.75           2409       24530.00    107309.30
 1060.84        2969.00           2413       22458.00     98213.65
 1060.87        2969.25           2417       21015.00     91882.50
 1060.90        2969.50           2420       19758.00     86369.65
 1060.93        2969.75           2424       18002.00     78671.79
 1060.96        2970.00           2427       16431.00     71788.35
 1060.99        2970.25           2431       14703.00     64220.72
 1061.02        2970.50           2434       13605.00     59414.15
 1061.05        2970.75           2438       11926.00     52067.24
 1061.09        2971.00           2441       10570.00     46136.39
 1061.12        2971.25           2445        9113.00     39766.46
 1061.15        2971.50           2449        7396.00     32263.36
 1061.18        2971.75           2452        6087.00     26545.75
 1061.21        2972.00           2456        4344.00     18935.90
 1061.24        2972.25           2459        3066.00     13358.73
 1061.27        2972.50           2463        1524.00      6632.27
 1061.30        2972.75           2466         735.00      3191.71
 1061.33        2973.00           2470         228.00       981.29
 1061.36        2973.25           2473         157.00       671.77
 1061.39        2973.50           2477         137.00       584.58
 1061.42        2973.75           2481         120.00       510.47
 1061.45        2974.00           2484         111.00       471.24
 1061.48        2974.25           2488         108.00       458.16
 1061.51        2974.50           2491         111.00       471.24
 1061.54        2974.75           2495         128.00       545.35
 1061.57        2975.00           2498         125.00       532.27
 1061.61        2975.25           2502         110.00       466.88
 1061.64        2975.50           2505         107.00       453.80
 1061.67        2975.75           2509         106.00       449.44
 1061.70        2976.00           2512          95.00       401.49
 1061.73        2976.25           2516         105.00       445.08
 1061.76        2976.50           2520          97.00       410.21
 1061.79        2976.75           2523          94.00       397.13
 1061.82        2977.00           2527          93.00       392.77
 1061.85        2977.25           2530          96.00       405.85
 1061.88        2977.50           2534          85.00       357.89
 1061.91        2977.75           2537          91.00       384.05
 1061.94        2978.00           2541          91.00       384.05
 1061.97        2978.25           2544          89.00       375.33
 1062.00        2978.50           2548          85.00       357.89
 1062.03        2978.75           2552          84.00       353.54
 1062.06        2979.00           2555          82.00       344.82
 1062.09        2979.25           2559          81.00       340.46
 1062.13        2979.50           2562          84.00       353.54
 1062.16        2979.75           2566          79.00       331.74
 1062.19        2980.00           2569          86.00       362.25
 1062.22        2980.25           2573          79.00       331.74
 1062.25        2980.50           2577          78.00       327.38
 1062.28        2980.75           2580          77.00       323.02
 1062.31        2981.00           2584          76.00       318.66
 1062.34        2981.25           2587          80.00       336.10
 1062.37        2981.50           2591          79.00       331.74
 1062.40        2981.75           2594          75.00       314.30
 1062.43        2982.00           2598          79.00       331.74
 1062.46        2982.25           2601          74.00       309.94
 1062.49        2982.50           2605          83.00       349.18
 1062.52        2982.75           2609          78.00       327.38
 1062.55        2983.00           2612          85.00       357.89
 1062.58        2983.25           2616          85.00       357.89
 1062.61        2983.50           2619          78.00       327.38
 1062.64        2983.75           2623          76.00       318.66
 1062.68        2984.00           2626          67.00       279.43
HS scan finished at 17:42:54
end
