************************************************************
  HS Scan of (1) Internal mercury lamp
************************************************************
Integration time is 0.2294 seconds per sample
dh221018Reading 51.44 .94 2.9pr1000
************************************************************
Dead Time -------------------------  3.4E-08 
Number of Cycles Used -------------  4 
Starting Wavelength (Angstroms) ---  2950 
Final Wavelength (Angstoms) -------  2984 
Wavelength Increment (Angstroms) --  .25 
Filter Wheel #1 Position ---------- (1) Ground quartz diffuser (ND=2.32)
Filter Wheel #2 Position ---------- (1) Neutral Density 0.494



************************************************************
HS scan start time = 03:56:52
Dark Count =  .8 


Time (GMT)  Wavelength (Ang)  Step Number  Raw Counts  Counts/Second

  237.76        2950.00           2144        1463.00      6375.40
  237.96        2950.25           2147        1525.00      6645.79
  237.99        2950.50           2151        1533.00      6680.68
  238.02        2950.75           2155        1491.00      6497.51
  238.05        2951.00           2158        1507.00      6567.29
  238.08        2951.25           2162        1486.00      6475.71
  238.11        2951.50           2165        1488.00      6484.43
  238.14        2951.75           2169        1544.00      6728.65
  238.17        2952.00           2172        1545.00      6733.01
  238.20        2952.25           2176        1536.00      6693.76
  238.23        2952.50           2179        1566.00      6824.60
  238.26        2952.75           2183        1542.00      6719.93
  238.29        2953.00           2186        1553.00      6767.91
  238.32        2953.25           2190        1541.00      6715.57
  238.36        2953.50           2193        1589.00      6924.91
  238.39        2953.75           2197        1522.00      6632.71
  238.42        2954.00           2200        1580.00      6885.66
  238.45        2954.25           2204        1580.00      6885.66
  238.48        2954.50           2208        1572.00      6850.77
  238.51        2954.75           2211        1578.00      6876.94
  238.54        2955.00           2215        1547.00      6741.74
  238.57        2955.25           2218        1615.00      7038.30
  238.60        2955.50           2222        1578.00      6876.94
  238.63        2955.75           2225        1611.00      7020.86
  238.66        2956.00           2229        1587.00      6916.19
  238.69        2956.25           2232        1609.00      7012.13
  238.72        2956.50           2236        1613.00      7029.58
  238.75        2956.75           2239        1622.00      7068.83
  238.78        2957.00           2243        1664.00      7252.01
  238.81        2957.25           2246        1671.00      7282.54
  238.84        2957.50           2250        1683.00      7334.87
  238.88        2957.75           2254        1664.00      7252.01
  238.91        2958.00           2257        1723.00      7509.33
  238.94        2958.25           2261        1714.00      7470.07
  238.97        2958.50           2264        1701.00      7413.38
  239.00        2958.75           2268        1752.00      7635.81
  239.03        2959.00           2271        1783.00      7771.02
  239.06        2959.25           2275        1775.00      7736.12
  239.09        2959.50           2278        1807.00      7875.69
  239.12        2959.75           2282        1786.00      7784.10
  239.15        2960.00           2285        1831.00      7980.37
  239.18        2960.25           2289        1856.00      8089.41
  239.21        2960.50           2293        1923.00      8381.64
  239.24        2960.75           2296        1970.00      8586.64
  239.27        2961.00           2300        2053.00      8948.67
  239.30        2961.25           2303        2515.00     10963.98
  239.33        2961.50           2307        6766.00     29520.46
  239.36        2961.75           2310       14078.00     61493.74
  239.40        2962.00           2314       30388.00    133064.50
  239.43        2962.25           2317       46016.00    201971.60
  239.46        2962.50           2321       67073.00    295331.70
  239.49        2962.75           2324       82913.00    365955.90
  239.52        2963.00           2328      103983.00    460430.80
  239.55        2963.25           2331      120024.00    532768.70
  239.58        2963.50           2335      142026.00    632576.00
  239.61        2963.75           2339      163695.00    731546.50
  239.64        2964.00           2342      181094.00    811505.50
  239.67        2964.25           2346      203526.00    915249.30
  239.70        2964.50           2349      219124.00    987827.80
  239.73        2964.75           2353      242081.00   1095316.00
  239.76        2965.00           2356      259504.00   1177430.00
  239.79        2965.25           2360      280337.00   1276235.00
  239.82        2965.50           2363      293061.00   1336917.00
  239.85        2965.75           2367      313232.00   1433642.00
  239.88        2966.00           2370      329536.00   1512304.00
  239.92        2966.25           2374      350284.00   1613036.00
  239.95        2966.50           2378      363012.00   1675184.00
  239.98        2966.75           2381      366408.00   1691811.00
  240.01        2967.00           2385      367813.00   1698696.00
  240.04        2967.25           2388      367853.00   1698892.00
  240.07        2967.50           2392      367791.00   1698588.00
  240.10        2967.75           2395      366334.00   1691449.00
  240.13        2968.00           2399      358483.00   1653039.00
  240.16        2968.25           2402      347242.00   1598223.00
  240.19        2968.50           2406      329988.00   1514491.00
  240.22        2968.75           2409      316098.00   1447439.00
  240.25        2969.00           2413      296299.00   1352400.00
  240.28        2969.25           2417      277770.00   1264024.00
  240.31        2969.50           2420      263143.00   1194640.00
  240.34        2969.75           2424      240822.00   1089400.00
  240.37        2970.00           2427      223380.00   1007695.00
  240.40        2970.25           2431      198822.00    893432.50
  240.44        2970.50           2434      181933.00    815372.30
  240.47        2970.75           2438      159923.00    714269.80
  240.50        2971.00           2441      144438.00    643559.10
  240.53        2971.25           2445      122983.00    546151.80
  240.56        2971.50           2449       99060.00    438302.00
  240.59        2971.75           2452       82549.00    364329.20
  240.62        2972.00           2456       61790.00    271852.50
  240.65        2972.25           2459       45999.00    201896.40
  240.68        2972.50           2463       26936.00    117887.40
  240.71        2972.75           2466       14314.00     62526.86
  240.74        2973.00           2470        4676.00     20394.26
  240.77        2973.25           2473        2492.00     10863.65
  240.80        2973.50           2477        2051.00      8939.94
  240.83        2973.75           2481        1952.00      8508.13
  240.86        2974.00           2484        1935.00      8433.98
  240.89        2974.25           2488        1856.00      8089.41
  240.92        2974.50           2491        1849.00      8058.88
  240.96        2974.75           2495        1784.00      7775.38
  240.99        2975.00           2498        1798.00      7836.44
  241.02        2975.25           2502        1769.00      7709.95
  241.05        2975.50           2505        1768.00      7705.59
  241.08        2975.75           2509        1713.00      7465.71
  241.11        2976.00           2512        1693.00      7378.49
  241.14        2976.25           2516        1666.00      7260.73
  241.17        2976.50           2520        1663.00      7247.64
  241.20        2976.75           2523        1657.00      7221.48
  241.23        2977.00           2527        1656.00      7217.12
  241.26        2977.25           2530        1660.00      7234.56
  241.29        2977.50           2534        1599.00      6968.52
  241.32        2977.75           2537        1594.00      6946.72
  241.35        2978.00           2541        1629.00      7099.36
  241.38        2978.25           2544        1559.00      6794.07
  241.41        2978.50           2548        1599.00      6968.52
  241.44        2978.75           2552        1515.00      6602.18
  241.48        2979.00           2555        1561.00      6802.79
  241.51        2979.25           2559        1540.00      6711.21
  241.54        2979.50           2562        1547.00      6741.74
  241.57        2979.75           2566        1520.00      6623.99
  241.60        2980.00           2569        1507.00      6567.29
  241.63        2980.25           2573        1487.00      6480.07
  241.66        2980.50           2577        1472.00      6414.65
  241.69        2980.75           2580        1432.00      6240.21
  241.72        2981.00           2584        1496.00      6519.32
  241.75        2981.25           2587        1473.00      6419.01
  241.78        2981.50           2591        1456.00      6344.87
  241.81        2981.75           2594        1442.00      6283.82
  241.84        2982.00           2598        1430.00      6231.49
  241.87        2982.25           2601        1403.00      6113.74
  241.90        2982.50           2605        1386.00      6039.60
  241.93        2982.75           2609        1453.00      6331.79
  241.96        2983.00           2612        1416.00      6170.43
  241.99        2983.25           2616        1362.00      5934.94
  242.03        2983.50           2619        1437.00      6262.01
  242.06        2983.75           2623        1390.00      6057.05
  242.09        2984.00           2626        1386.00      6039.60
HS scan finished at 04:02:19
end
************************************************************
  HS Scan of (1) Internal mercury lamp
************************************************************
Integration time is 0.2294 seconds per sample
dh221018Reading 51.44 .94 3.19pr1000
************************************************************
Dead Time -------------------------  3.4E-08 
Number of Cycles Used -------------  4 
Starting Wavelength (Angstroms) ---  2950 
Final Wavelength (Angstoms) -------  2984 
Wavelength Increment (Angstroms) --  .25 
Filter Wheel #1 Position ---------- (1) Ground quartz diffuser (ND=2.32)
Filter Wheel #2 Position ---------- (1) Neutral Density 0.494



************************************************************
HS scan start time = 17:37:29
Dark Count =  1.4 


Time (GMT)  Wavelength (Ang)  Step Number  Raw Counts  Counts/Second

 1058.38        2950.00           2144        1128.00      4911.89
 1058.57        2950.25           2147        1136.00      4946.78
 1058.60        2950.50           2151        1143.00      4977.30
 1058.63        2950.75           2155        1147.00      4994.75
 1058.66        2951.00           2158        1148.00      4999.11
 1058.69        2951.25           2162        1127.00      4907.53
 1058.72        2951.50           2165        1147.00      4994.75
 1058.75        2951.75           2169        1143.00      4977.30
 1058.78        2952.00           2172        1130.00      4920.61
 1058.81        2952.25           2176        1142.00      4972.94
 1058.84        2952.50           2179        1216.00      5295.64
 1058.88        2952.75           2183        1175.00      5116.84
 1058.91        2953.00           2186        1159.00      5047.07
 1058.94        2953.25           2190        1149.00      5003.47
 1058.97        2953.50           2193        1171.00      5099.40
 1059.00        2953.75           2197        1148.00      4999.11
 1059.03        2954.00           2200        1187.00      5169.17
 1059.06        2954.25           2204        1187.00      5169.17
 1059.09        2954.50           2208        1200.00      5225.86
 1059.12        2954.75           2211        1212.00      5278.19
 1059.15        2955.00           2215        1177.00      5125.57
 1059.18        2955.25           2218        1194.00      5199.70
 1059.21        2955.50           2222        1176.00      5121.21
 1059.24        2955.75           2225        1218.00      5304.36
 1059.27        2956.00           2229        1241.00      5404.66
 1059.30        2956.25           2232        1249.00      5439.54
 1059.33        2956.50           2236        1209.00      5265.11
 1059.36        2956.75           2239        1251.00      5448.26
 1059.40        2957.00           2243        1258.00      5478.79
 1059.43        2957.25           2246        1256.00      5470.07
 1059.46        2957.50           2250        1318.00      5740.44
 1059.49        2957.75           2254        1282.00      5583.45
 1059.52        2958.00           2257        1283.00      5587.81
 1059.55        2958.25           2261        1283.00      5587.81
 1059.58        2958.50           2264        1348.00      5871.27
 1059.61        2958.75           2268        1352.00      5888.71
 1059.64        2959.00           2271        1377.00      5997.74
 1059.67        2959.25           2275        1361.00      5927.96
 1059.70        2959.50           2278        1382.00      6019.54
 1059.73        2959.75           2282        1403.00      6111.12
 1059.76        2960.00           2285        1429.00      6224.51
 1059.79        2960.25           2289        1461.00      6364.06
 1059.82        2960.50           2293        1442.00      6281.20
 1059.85        2960.75           2296        1503.00      6547.23
 1059.88        2961.00           2300        1533.00      6678.06
 1059.92        2961.25           2303        1837.00      8003.92
 1059.95        2961.50           2307        4544.00     19815.44
 1059.98        2961.75           2310       10642.00     46457.81
 1060.01        2962.00           2314       23515.00    102859.50
 1060.04        2962.25           2317       36119.00    158293.40
 1060.07        2962.50           2321       54746.00    240602.80
 1060.10        2962.75           2324       66659.00    293487.70
 1060.13        2963.00           2328       83670.00    369337.00
 1060.16        2963.25           2331       97546.00    431500.60
 1060.19        2963.50           2335      116534.00    516997.10
 1060.22        2963.75           2339      136232.00    606223.50
 1060.25        2964.00           2342      150979.00    673383.30
 1060.28        2964.25           2346      167820.00    750460.80
 1060.31        2964.50           2349      180737.00    809857.60
 1060.34        2964.75           2353      199922.00    898528.40
 1060.37        2965.00           2356      213811.00    963062.30
 1060.40        2965.25           2360      230365.00   1040357.00
 1060.44        2965.50           2363      243561.00   1102270.00
 1060.47        2965.75           2367      260589.00   1182557.00
 1060.50        2966.00           2370      272737.00   1240109.00
 1060.53        2966.25           2374      288795.00   1316541.00
 1060.56        2966.50           2378      298648.00   1363640.00
 1060.59        2966.75           2381      302770.00   1383390.00
 1060.62        2967.00           2385      304285.00   1390656.00
 1060.65        2967.25           2388      304764.00   1392954.00
 1060.68        2967.50           2392      304512.00   1391745.00
 1060.71        2967.75           2395      304315.00   1390800.00
 1060.74        2968.00           2399      301386.00   1376756.00
 1060.77        2968.25           2402      293773.00   1340317.00
 1060.80        2968.50           2406      281000.00   1279388.00
 1060.83        2968.75           2409      268621.00   1220583.00
 1060.86        2969.00           2413      251333.00   1138859.00
 1060.89        2969.25           2417      234529.00   1059865.00
 1060.92        2969.50           2420      221988.00   1001191.00
 1060.96        2969.75           2424      205357.00    923747.20
 1060.99        2970.00           2427      193559.00    869059.20
 1061.02        2970.25           2431      175796.00    787108.40
 1061.05        2970.50           2434      162645.00    726732.30
 1061.08        2970.75           2438      142550.00    634958.50
 1061.11        2971.00           2441      127822.00    568061.60
 1061.14        2971.25           2445      108155.00    479207.50
 1061.17        2971.50           2449       90223.00    398661.00
 1061.20        2971.75           2452       77966.00    343859.90
 1061.23        2972.00           2456       61271.00    269545.30
 1061.26        2972.25           2459       49041.00    215344.30
 1061.29        2972.50           2463       31422.00    137611.00
 1061.32        2972.75           2466       18224.00     79651.34
 1061.35        2973.00           2470        5650.00     24644.01
 1061.38        2973.25           2473        2595.00     11310.36
 1061.41        2973.50           2477        1687.00      7349.70
 1061.44        2973.75           2481        1564.00      6813.26
 1061.48        2974.00           2484        1473.00      6416.40
 1061.51        2974.25           2488        1466.00      6385.87
 1061.54        2974.50           2491        1393.00      6067.51
 1061.57        2974.75           2495        1425.00      6207.06
 1061.60        2975.00           2498        1378.00      6002.10
 1061.63        2975.25           2502        1354.00      5897.43
 1061.66        2975.50           2505        1371.00      5971.57
 1061.69        2975.75           2509        1342.00      5845.10
 1061.72        2976.00           2512        1311.00      5709.91
 1061.75        2976.25           2516        1318.00      5740.44
 1061.78        2976.50           2520        1267.00      5518.04
 1061.81        2976.75           2523        1290.00      5618.34
 1061.84        2977.00           2527        1273.00      5544.20
 1061.87        2977.25           2530        1283.00      5587.81
 1061.90        2977.50           2534        1227.00      5343.60
 1061.93        2977.75           2537        1241.00      5404.66
 1061.96        2978.00           2541        1238.00      5391.57
 1062.00        2978.25           2544        1188.00      5173.53
 1062.03        2978.50           2548        1217.00      5300.00
 1062.06        2978.75           2552        1195.00      5204.06
 1062.09        2979.00           2555        1169.00      5090.68
 1062.12        2979.25           2559        1190.00      5182.26
 1062.15        2979.50           2562        1177.00      5125.57
 1062.18        2979.75           2566        1133.00      4933.70
 1062.21        2980.00           2569        1154.00      5025.27
 1062.24        2980.25           2573        1136.00      4946.78
 1062.27        2980.50           2577        1132.00      4929.34
 1062.30        2980.75           2580        1125.00      4898.81
 1062.33        2981.00           2584        1131.00      4924.97
 1062.36        2981.25           2587        1152.00      5016.55
 1062.39        2981.50           2591        1123.00      4890.09
 1062.42        2981.75           2594        1107.00      4820.32
 1062.45        2982.00           2598        1115.00      4855.20
 1062.48        2982.25           2601        1121.00      4881.37
 1062.51        2982.50           2605        1070.00      4658.98
 1062.55        2982.75           2609        1113.00      4846.48
 1062.58        2983.00           2612        1077.00      4689.50
 1062.61        2983.25           2616        1075.00      4680.78
 1062.64        2983.50           2619        1076.00      4685.14
 1062.67        2983.75           2623        1083.00      4715.66
 1062.70        2984.00           2626        1097.00      4776.71
HS scan finished at 17:42:55
end
