************************************************************
  HS Scan of (1) Internal mercury lamp
************************************************************
Integration time is 0.2294 seconds per sample
dh181017Reading 51.44 .94 3.09pr1000
************************************************************
Dead Time -------------------------  3.4E-08 
Number of Cycles Used -------------  4 
Starting Wavelength (Angstroms) ---  2950 
Final Wavelength (Angstoms) -------  2984 
Wavelength Increment (Angstroms) --  .25 
Filter Wheel #1 Position ---------- (1) Ground quartz diffuser (ND=2.32)
Filter Wheel #2 Position ---------- (1) Neutral Density 0.494



************************************************************
HS scan start time = 03:49:55
Dark Count =  1.1 


Time (GMT)  Wavelength (Ang)  Step Number  Raw Counts  Counts/Second

  230.82        2950.00           2144         115.00       496.52
  231.01        2950.25           2147         118.00       509.60
  231.04        2950.50           2151         129.00       557.55
  231.07        2950.75           2155         116.00       500.88
  231.11        2951.00           2158         127.00       548.83
  231.14        2951.25           2162         123.00       531.40
  231.17        2951.50           2165         124.00       535.76
  231.20        2951.75           2169         113.00       487.80
  231.23        2952.00           2172         128.00       553.19
  231.26        2952.25           2176         143.00       618.58
  231.29        2952.50           2179         137.00       592.43
  231.32        2952.75           2183         141.00       609.86
  231.35        2953.00           2186         110.00       474.72
  231.38        2953.25           2190         146.00       631.66
  231.41        2953.50           2193         123.00       531.40
  231.44        2953.75           2197         130.00       561.91
  231.47        2954.00           2200         140.00       605.51
  231.50        2954.25           2204         143.00       618.58
  231.53        2954.50           2208         116.00       500.88
  231.56        2954.75           2211         110.00       474.72
  231.60        2955.00           2215         133.00       574.99
  231.63        2955.25           2218         118.00       509.60
  231.66        2955.50           2222         124.00       535.76
  231.69        2955.75           2225         122.00       527.04
  231.72        2956.00           2229         125.00       540.11
  231.75        2956.25           2232         124.00       535.76
  231.78        2956.50           2236         148.00       640.38
  231.81        2956.75           2239         123.00       531.40
  231.84        2957.00           2243         125.00       540.11
  231.87        2957.25           2246         147.00       636.02
  231.90        2957.50           2250         170.00       736.29
  231.93        2957.75           2254         149.00       644.74
  231.96        2958.00           2257         151.00       653.46
  231.99        2958.25           2261         136.00       588.07
  232.02        2958.50           2264         144.00       622.94
  232.05        2958.75           2268         167.00       723.21
  232.08        2959.00           2271         139.00       601.15
  232.11        2959.25           2275         162.00       701.41
  232.15        2959.50           2278         156.00       675.26
  232.18        2959.75           2282         166.00       718.85
  232.21        2960.00           2285         152.00       657.82
  232.24        2960.25           2289         153.00       662.18
  232.27        2960.50           2293         162.00       701.41
  232.30        2960.75           2296         166.00       718.85
  232.33        2961.00           2300         236.00      1024.01
  232.36        2961.25           2303         466.00      2026.73
  232.39        2961.50           2307        1668.00      7268.14
  232.42        2961.75           2310        2944.00     12834.28
  232.45        2962.00           2314        5081.00     22160.98
  232.48        2962.25           2317        6974.00     30427.72
  232.51        2962.50           2321        9425.00     41138.15
  232.54        2962.75           2324       11314.00     49398.07
  232.57        2963.00           2328       13963.00     60989.03
  232.60        2963.25           2331       15849.00     69246.97
  232.64        2963.50           2335       18411.00     80472.28
  232.67        2963.75           2339       21091.00     92223.78
  232.70        2964.00           2342       22881.00    100078.00
  232.73        2964.25           2346       25408.00    111173.10
  232.76        2964.50           2349       27353.00    119718.70
  232.79        2964.75           2353       29826.00    130591.20
  232.82        2965.00           2356       32103.00    140609.20
  232.85        2965.25           2360       34486.00    151100.80
  232.88        2965.50           2363       36136.00    158369.60
  232.91        2965.75           2367       38329.00    168036.20
  232.94        2966.00           2370       39972.00    175282.60
  232.97        2966.25           2374       42242.00    185300.20
  233.00        2966.50           2378       43251.00    189755.20
  233.03        2966.75           2381       43614.00    191358.20
  233.06        2967.00           2385       43739.00    191910.30
  233.09        2967.25           2388       43467.00    190709.00
  233.12        2967.50           2392       43366.00    190263.00
  233.16        2967.75           2395       42803.00    187777.00
  233.19        2968.00           2399       41618.00    182545.80
  233.22        2968.25           2402       39874.00    174850.30
  233.25        2968.50           2406       37651.00    165046.90
  233.28        2968.75           2409       35828.00    157012.50
  233.31        2969.00           2413       33423.00    146419.80
  233.34        2969.25           2417       31146.00    136397.90
  233.37        2969.50           2420       29210.00    127882.20
  233.40        2969.75           2424       26532.00    116110.90
  233.43        2970.00           2427       24605.00    107646.50
  233.46        2970.25           2431       21797.00     95321.08
  233.49        2970.50           2434       20108.00     87912.34
  233.52        2970.75           2438       17873.00     78114.35
  233.55        2971.00           2441       15894.00     69444.07
  233.58        2971.25           2445       13574.00     59286.35
  233.61        2971.50           2449       10913.00     47644.25
  233.64        2971.75           2452        8947.00     39048.77
  233.67        2972.00           2456        6536.00     28514.56
  233.71        2972.25           2459        4936.00     21527.96
  233.74        2972.50           2463        2784.00     12136.22
  233.77        2972.75           2466        1336.00      5820.25
  233.80        2973.00           2470         384.00      1669.23
  233.83        2973.25           2473         218.00       945.54
  233.86        2973.50           2477         199.00       862.71
  233.89        2973.75           2481         172.00       745.01
  233.92        2974.00           2484         171.00       740.65
  233.95        2974.25           2488         172.00       745.01
  233.98        2974.50           2491         173.00       749.37
  234.01        2974.75           2495         159.00       688.33
  234.04        2975.00           2498         158.00       683.97
  234.07        2975.25           2502         148.00       640.38
  234.10        2975.50           2505         166.00       718.85
  234.13        2975.75           2509         154.00       666.54
  234.16        2976.00           2512         178.00       771.16
  234.19        2976.25           2516         146.00       631.66
  234.23        2976.50           2520         140.00       605.51
  234.26        2976.75           2523         164.00       710.13
  234.29        2977.00           2527         153.00       662.18
  234.32        2977.25           2530         137.00       592.43
  234.35        2977.50           2534         148.00       640.38
  234.38        2977.75           2537         143.00       618.58
  234.41        2978.00           2541         130.00       561.91
  234.44        2978.25           2544         151.00       653.46
  234.47        2978.50           2548         166.00       718.85
  234.50        2978.75           2552         138.00       596.79
  234.53        2979.00           2555         142.00       614.22
  234.56        2979.25           2559         133.00       574.99
  234.59        2979.50           2562         127.00       548.83
  234.62        2979.75           2566         135.00       583.71
  234.65        2980.00           2569         136.00       588.07
  234.68        2980.25           2573         156.00       675.26
  234.71        2980.50           2577         116.00       500.88
  234.75        2980.75           2580         147.00       636.02
  234.78        2981.00           2584         137.00       592.43
  234.81        2981.25           2587         129.00       557.55
  234.84        2981.50           2591         123.00       531.40
  234.87        2981.75           2594         122.00       527.04
  234.90        2982.00           2598         131.00       566.27
  234.93        2982.25           2601         139.00       601.15
  234.96        2982.50           2605         131.00       566.27
  234.99        2982.75           2609         133.00       574.99
  235.02        2983.00           2612         120.00       518.32
  235.05        2983.25           2616         168.00       727.57
  235.08        2983.50           2619         114.00       492.16
  235.11        2983.75           2623         110.00       474.72
  235.14        2984.00           2626         113.00       487.80
HS scan finished at 03:55:22
end
************************************************************
  HS Scan of (1) Internal mercury lamp
************************************************************
Integration time is 0.2294 seconds per sample
dh181017Reading 51.44 .94 3.45pr1000
************************************************************
Dead Time -------------------------  3.4E-08 
Number of Cycles Used -------------  4 
Starting Wavelength (Angstroms) ---  2950 
Final Wavelength (Angstoms) -------  2984 
Wavelength Increment (Angstroms) --  .25 
Filter Wheel #1 Position ---------- (1) Ground quartz diffuser (ND=2.32)
Filter Wheel #2 Position ---------- (1) Neutral Density 0.494



************************************************************
HS scan start time = 18:07:29
Dark Count =  2.1 


Time (GMT)  Wavelength (Ang)  Step Number  Raw Counts  Counts/Second

 1088.38        2950.00           2144         126.00       540.11
 1088.58        2950.25           2147         114.00       487.80
 1088.61        2950.50           2151         139.00       596.79
 1088.64        2950.75           2155         119.00       509.60
 1088.67        2951.00           2158         103.00       439.85
 1088.70        2951.25           2162         112.00       479.08
 1088.73        2951.50           2165         106.00       452.93
 1088.76        2951.75           2169         148.00       636.02
 1088.79        2952.00           2172         133.00       570.63
 1088.82        2952.25           2176         133.00       570.63
 1088.85        2952.50           2179         133.00       570.63
 1088.88        2952.75           2183         134.00       574.99
 1088.91        2953.00           2186         106.00       452.93
 1088.94        2953.25           2190         120.00       513.96
 1088.97        2953.50           2193         128.00       548.83
 1089.00        2953.75           2197         147.00       631.66
 1089.04        2954.00           2200         121.00       518.32
 1089.07        2954.25           2204         123.00       527.04
 1089.10        2954.50           2208         143.00       614.22
 1089.13        2954.75           2211         132.00       566.27
 1089.16        2955.00           2215         172.00       740.65
 1089.19        2955.25           2218         124.00       531.40
 1089.22        2955.50           2222         158.00       679.61
 1089.25        2955.75           2225         140.00       601.15
 1089.28        2956.00           2229         141.00       605.51
 1089.31        2956.25           2232         118.00       505.24
 1089.34        2956.50           2236         131.00       561.91
 1089.37        2956.75           2239         120.00       513.96
 1089.40        2957.00           2243         147.00       631.66
 1089.43        2957.25           2246         148.00       636.02
 1089.46        2957.50           2250         151.00       649.10
 1089.49        2957.75           2254         143.00       614.22
 1089.52        2958.00           2257         168.00       723.21
 1089.56        2958.25           2261         133.00       570.63
 1089.59        2958.50           2264         135.00       579.35
 1089.62        2958.75           2268         146.00       627.30
 1089.65        2959.00           2271         154.00       662.18
 1089.68        2959.25           2275         165.00       710.13
 1089.71        2959.50           2278         148.00       636.02
 1089.74        2959.75           2282         152.00       653.46
 1089.77        2960.00           2285         163.00       701.41
 1089.80        2960.25           2289         159.00       683.97
 1089.83        2960.50           2293         167.00       718.85
 1089.87        2960.75           2296         174.00       749.37
 1089.90        2961.00           2300         242.00      1045.81
 1089.93        2961.25           2303         470.00      2039.81
 1089.96        2961.50           2307        1620.00      7054.44
 1089.99        2961.75           2310        3016.00     13144.06
 1090.02        2962.00           2314        5258.00     22929.38
 1090.05        2962.25           2317        7078.00     30877.65
 1090.08        2962.50           2321        9857.00     43022.35
 1090.11        2962.75           2324       11957.00     52206.36
 1090.14        2963.00           2328       14277.00     62359.19
 1090.17        2963.25           2331       16435.00     71809.38
 1090.20        2963.50           2335       18860.00     82436.06
 1090.23        2963.75           2339       21633.00     94597.14
 1090.27        2964.00           2342       23635.00    103383.30
 1090.30        2964.25           2346       26339.00    115258.60
 1090.33        2964.50           2349       28101.00    123002.00
 1090.36        2964.75           2353       30593.00    133960.60
 1090.39        2965.00           2356       32744.00    143426.10
 1090.42        2965.25           2360       34927.00    153038.80
 1090.45        2965.50           2363       36767.00    161146.00
 1090.48        2965.75           2367       39015.00    171056.90
 1090.51        2966.00           2370       41008.00    179849.20
 1090.54        2966.25           2374       43172.00    189401.90
 1090.57        2966.50           2378       44331.00    194520.70
 1090.60        2966.75           2381       44588.00    195656.00
 1090.63        2967.00           2385       44814.00    196654.40
 1090.66        2967.25           2388       44733.00    196296.60
 1090.69        2967.50           2392       44628.00    195832.70
 1090.72        2967.75           2395       44536.00    195426.30
 1090.75        2968.00           2399       43187.00    189468.10
 1090.79        2968.25           2402       41505.00    182042.60
 1090.82        2968.50           2406       39267.00    172168.40
 1090.85        2968.75           2409       37378.00    163839.10
 1090.88        2969.00           2413       35135.00    153955.00
 1090.91        2969.25           2417       32336.00    141630.30
 1090.94        2969.50           2420       30634.00    134140.90
 1090.97        2969.75           2424       27994.00    122531.60
 1091.00        2970.00           2427       25863.00    113167.40
 1091.03        2970.25           2431       23104.00    101052.40
 1091.06        2970.50           2434       21273.00     93017.78
 1091.09        2970.75           2438       18738.00     81901.25
 1091.12        2971.00           2441       16565.00     72378.86
 1091.15        2971.25           2445       13797.00     60258.03
 1091.18        2971.50           2449       11118.00     48536.44
 1091.21        2971.75           2452        9085.00     39647.57
 1091.24        2972.00           2456        6506.00     28379.16
 1091.27        2972.25           2459        4792.00     20894.96
 1091.30        2972.50           2463        2538.00     11058.65
 1091.34        2972.75           2466        1246.00      5423.41
 1091.37        2973.00           2470         342.00      1481.77
 1091.40        2973.25           2473         239.00      1032.73
 1091.43        2973.50           2477         190.00       819.12
 1091.46        2973.75           2481         175.00       753.72
 1091.49        2974.00           2484         176.00       758.08
 1091.52        2974.25           2488         156.00       670.90
 1091.55        2974.50           2491         170.00       731.93
 1091.58        2974.75           2495         156.00       670.90
 1091.61        2975.00           2498         167.00       718.85
 1091.64        2975.25           2502         173.00       745.01
 1091.67        2975.50           2505         162.00       697.05
 1091.70        2975.75           2509         152.00       653.46
 1091.73        2976.00           2512         156.00       670.90
 1091.76        2976.25           2516         139.00       596.79
 1091.79        2976.50           2520         137.00       588.07
 1091.82        2976.75           2523         155.00       666.54
 1091.86        2977.00           2527         137.00       588.07
 1091.89        2977.25           2530         151.00       649.10
 1091.92        2977.50           2534         167.00       718.85
 1091.95        2977.75           2537         139.00       596.79
 1091.98        2978.00           2541         134.00       574.99
 1092.01        2978.25           2544         142.00       609.86
 1092.04        2978.50           2548         134.00       574.99
 1092.07        2978.75           2552         132.00       566.27
 1092.10        2979.00           2555         143.00       614.22
 1092.13        2979.25           2559         138.00       592.43
 1092.16        2979.50           2562         131.00       561.91
 1092.19        2979.75           2566         121.00       518.32
 1092.22        2980.00           2569         129.00       553.19
 1092.25        2980.25           2573         136.00       583.71
 1092.28        2980.50           2577         117.00       500.88
 1092.31        2980.75           2580         108.00       461.65
 1092.34        2981.00           2584         136.00       583.71
 1092.38        2981.25           2587         118.00       505.24
 1092.41        2981.50           2591         106.00       452.93
 1092.44        2981.75           2594         117.00       500.88
 1092.47        2982.00           2598         107.00       457.29
 1092.50        2982.25           2601         131.00       561.91
 1092.53        2982.50           2605         125.00       535.76
 1092.56        2982.75           2609         163.00       701.41
 1092.59        2983.00           2612         104.00       444.21
 1092.62        2983.25           2616         104.00       444.21
 1092.65        2983.50           2619         108.00       461.65
 1092.68        2983.75           2623          99.00       422.41
 1092.71        2984.00           2626         143.00       614.22
HS scan finished at 18:12:56
end
