************************************************************
  HS Scan of (1) Internal mercury lamp
************************************************************
Integration time is 0.2294 seconds per sample
dh291017Reading 51.44 .94 3.23pr1000
************************************************************
Dead Time -------------------------  3.4E-08 
Number of Cycles Used -------------  4 
Starting Wavelength (Angstroms) ---  2950 
Final Wavelength (Angstoms) -------  2984 
Wavelength Increment (Angstroms) --  .25 
Filter Wheel #1 Position ---------- (1) Ground quartz diffuser (ND=2.32)
Filter Wheel #2 Position ---------- (1) Neutral Density 0.494



************************************************************
HS scan start time = 04:09:37
Dark Count =  1.8 


Time (GMT)  Wavelength (Ang)  Step Number  Raw Counts  Counts/Second

  250.51        2950.00           2144          84.00       358.33
  250.70        2950.25           2147          85.00       362.69
  250.73        2950.50           2151          83.00       353.97
  250.76        2950.75           2155          90.00       384.49
  250.79        2951.00           2158          83.00       353.97
  250.82        2951.25           2162          87.00       371.41
  250.85        2951.50           2165          86.00       367.05
  250.89        2951.75           2169          88.00       375.77
  250.92        2952.00           2172          85.00       362.69
  250.95        2952.25           2176          82.00       349.61
  250.98        2952.50           2179          91.00       388.85
  251.01        2952.75           2183          74.00       314.74
  251.04        2953.00           2186          93.00       397.56
  251.07        2953.25           2190          91.00       388.85
  251.10        2953.50           2193          89.00       380.13
  251.13        2953.75           2197          87.00       371.41
  251.16        2954.00           2200          93.00       397.56
  251.19        2954.25           2204          91.00       388.85
  251.22        2954.50           2208          83.00       353.97
  251.25        2954.75           2211         129.00       554.50
  251.28        2955.00           2215          99.00       423.72
  251.31        2955.25           2218          96.00       410.64
  251.34        2955.50           2222          90.00       384.49
  251.37        2955.75           2225          87.00       371.41
  251.41        2956.00           2229          89.00       380.13
  251.44        2956.25           2232          95.00       406.28
  251.47        2956.50           2236         102.00       436.80
  251.50        2956.75           2239         107.00       458.59
  251.53        2957.00           2243         102.00       436.80
  251.56        2957.25           2246         112.00       480.39
  251.59        2957.50           2250         103.00       441.16
  251.62        2957.75           2254          96.00       410.64
  251.65        2958.00           2257         105.00       449.88
  251.68        2958.25           2261         106.00       454.24
  251.71        2958.50           2264         130.00       558.86
  251.74        2958.75           2268         111.00       476.03
  251.77        2959.00           2271         117.00       502.19
  251.80        2959.25           2275         119.00       510.91
  251.83        2959.50           2278         110.00       471.67
  251.86        2959.75           2282         123.00       528.34
  251.89        2960.00           2285         129.00       554.50
  251.93        2960.25           2289         119.00       510.91
  251.96        2960.50           2293         123.00       528.34
  251.99        2960.75           2296         145.00       624.25
  252.02        2961.00           2300         148.00       637.33
  252.05        2961.25           2303         255.00      1103.79
  252.08        2961.50           2307        1005.00      4373.80
  252.11        2961.75           2310        2071.00      9022.82
  252.14        2962.00           2314        3693.00     16099.48
  252.17        2962.25           2317        4858.00     21184.39
  252.20        2962.50           2321        6638.00     28957.01
  252.23        2962.75           2324        8052.00     35134.36
  252.26        2963.00           2328        9833.00     42918.73
  252.29        2963.25           2331       11266.00     49185.07
  252.32        2963.50           2335       12971.00     56644.30
  252.35        2963.75           2339       15093.00     65933.18
  252.38        2964.00           2342       16536.00     72253.13
  252.41        2964.25           2346       18515.00     80925.06
  252.45        2964.50           2349       19720.00     86207.84
  252.48        2964.75           2353       21378.00     93479.72
  252.51        2965.00           2356       22541.00     98582.71
  252.54        2965.25           2360       24767.00    108354.90
  252.57        2965.50           2363       26311.00    115136.90
  252.60        2965.75           2367       28177.00    123337.40
  252.63        2966.00           2370       29395.00    128692.60
  252.66        2966.25           2374       31070.00    136060.40
  252.69        2966.50           2378       32040.00    140328.80
  252.72        2966.75           2381       32242.00    141217.80
  252.75        2967.00           2385       32664.00    143075.30
  252.78        2967.25           2388       32480.00    142265.40
  252.81        2967.50           2392       32410.00    141957.30
  252.84        2967.75           2395       32204.00    141050.60
  252.87        2968.00           2399       31188.00    136579.60
  252.90        2968.25           2402       30094.00    131766.90
  252.93        2968.50           2406       28516.00    124827.70
  252.97        2968.75           2409       27174.00    118928.90
  253.00        2969.00           2413       25386.00    111073.40
  253.03        2969.25           2417       23304.00    101931.60
  253.06        2969.50           2420       21874.00     95655.85
  253.09        2969.75           2424       19846.00     86760.35
  253.12        2970.00           2427       18425.00     80530.57
  253.15        2970.25           2431       16606.00     72559.78
  253.18        2970.50           2434       15167.00     66257.21
  253.21        2970.75           2438       13225.00     57755.85
  253.24        2971.00           2441       11660.00     50908.44
  253.27        2971.25           2445        9664.00     42179.90
  253.30        2971.50           2449        7932.00     34610.02
  253.33        2971.75           2452        6607.00     28821.60
  253.36        2972.00           2456        4896.00     21350.28
  253.39        2972.25           2459        3604.00     15711.09
  253.42        2972.50           2463        1887.00      8220.26
  253.45        2972.75           2466         853.00      3711.02
  253.49        2973.00           2470         245.00      1060.20
  253.52        2973.25           2473         153.00       659.13
  253.55        2973.50           2477         164.00       707.08
  253.58        2973.75           2481         148.00       637.33
  253.61        2974.00           2484         189.00       816.06
  253.64        2974.25           2488         161.00       694.00
  253.67        2974.50           2491         132.00       567.58
  253.70        2974.75           2495         156.00       672.20
  253.73        2975.00           2498         130.00       558.86
  253.76        2975.25           2502         115.00       493.47
  253.79        2975.50           2505         113.00       484.75
  253.82        2975.75           2509         146.00       628.61
  253.85        2976.00           2512         118.00       506.55
  253.88        2976.25           2516         109.00       467.31
  253.91        2976.50           2520         104.00       445.52
  253.94        2976.75           2523         100.00       428.08
  253.97        2977.00           2527         120.00       515.27
  254.01        2977.25           2530         125.00       537.06
  254.04        2977.50           2534         106.00       454.24
  254.07        2977.75           2537          94.00       401.92
  254.10        2978.00           2541         142.00       611.17
  254.13        2978.25           2544         105.00       449.88
  254.16        2978.50           2548          93.00       397.56
  254.19        2978.75           2552         102.00       436.80
  254.22        2979.00           2555          91.00       388.85
  254.25        2979.25           2559          89.00       380.13
  254.28        2979.50           2562          88.00       375.77
  254.31        2979.75           2566          96.00       410.64
  254.34        2980.00           2569         110.00       471.67
  254.37        2980.25           2573          92.00       393.20
  254.40        2980.50           2577         107.00       458.59
  254.43        2980.75           2580         105.00       449.88
  254.46        2981.00           2584          82.00       349.61
  254.49        2981.25           2587          94.00       401.92
  254.53        2981.50           2591          82.00       349.61
  254.56        2981.75           2594          98.00       419.36
  254.59        2982.00           2598          86.00       367.05
  254.62        2982.25           2601          93.00       397.56
  254.65        2982.50           2605          77.00       327.82
  254.68        2982.75           2609          76.00       323.46
  254.71        2983.00           2612          81.00       345.25
  254.74        2983.25           2616          83.00       353.97
  254.77        2983.50           2619          86.00       367.05
  254.80        2983.75           2623          76.00       323.46
  254.83        2984.00           2626          89.00       380.13
HS scan finished at 04:15:03
end
************************************************************
  HS Scan of (1) Internal mercury lamp
************************************************************
Integration time is 0.2294 seconds per sample
dh291017Reading 51.44 .94 3.11pr1000
************************************************************
Dead Time -------------------------  3.4E-08 
Number of Cycles Used -------------  4 
Starting Wavelength (Angstroms) ---  2950 
Final Wavelength (Angstoms) -------  2984 
Wavelength Increment (Angstroms) --  .25 
Filter Wheel #1 Position ---------- (1) Ground quartz diffuser (ND=2.32)
Filter Wheel #2 Position ---------- (1) Neutral Density 0.494



************************************************************
HS scan start time = 17:37:29
Dark Count =  1.2 


Time (GMT)  Wavelength (Ang)  Step Number  Raw Counts  Counts/Second

 1058.38        2950.00           2144          95.00       408.90
 1058.57        2950.25           2147          92.00       395.82
 1058.60        2950.50           2151          95.00       408.90
 1058.63        2950.75           2155          89.00       382.74
 1058.66        2951.00           2158          95.00       408.90
 1058.69        2951.25           2162         106.00       456.85
 1058.72        2951.50           2165          95.00       408.90
 1058.76        2951.75           2169          96.00       413.26
 1058.79        2952.00           2172          86.00       369.66
 1058.82        2952.25           2176          94.00       404.54
 1058.85        2952.50           2179          97.00       417.62
 1058.88        2952.75           2183         124.00       535.32
 1058.91        2953.00           2186          90.00       387.10
 1058.94        2953.25           2190         105.00       452.49
 1058.97        2953.50           2193         108.00       465.57
 1059.00        2953.75           2197         100.00       430.70
 1059.03        2954.00           2200          97.00       417.62
 1059.06        2954.25           2204          99.00       426.34
 1059.09        2954.50           2208         105.00       452.49
 1059.12        2954.75           2211         109.00       469.93
 1059.15        2955.00           2215         107.00       461.21
 1059.18        2955.25           2218         122.00       526.60
 1059.21        2955.50           2222         107.00       461.21
 1059.24        2955.75           2225         125.00       539.68
 1059.28        2956.00           2229         122.00       526.60
 1059.31        2956.25           2232         106.00       456.85
 1059.34        2956.50           2236         102.00       439.41
 1059.37        2956.75           2239         140.00       605.07
 1059.40        2957.00           2243         125.00       539.68
 1059.43        2957.25           2246         105.00       452.49
 1059.46        2957.50           2250         106.00       456.85
 1059.49        2957.75           2254         137.00       591.99
 1059.52        2958.00           2257         119.00       513.52
 1059.55        2958.25           2261         171.00       740.21
 1059.58        2958.50           2264         122.00       526.60
 1059.61        2958.75           2268         142.00       613.79
 1059.64        2959.00           2271         144.00       622.51
 1059.67        2959.25           2275         129.00       557.12
 1059.70        2959.50           2278         146.00       631.23
 1059.73        2959.75           2282         126.00       544.04
 1059.76        2960.00           2285         159.00       687.90
 1059.80        2960.25           2289         133.00       574.55
 1059.83        2960.50           2293         142.00       613.79
 1059.86        2960.75           2296         165.00       714.05
 1059.89        2961.00           2300         183.00       792.52
 1059.92        2961.25           2303         342.00      1485.69
 1059.95        2961.50           2307        1340.00      5837.25
 1059.98        2961.75           2310        2570.00     11202.18
 1060.01        2962.00           2314        4438.00     19353.62
 1060.04        2962.25           2317        5774.00     25186.34
 1060.07        2962.50           2321        7753.00     33830.52
 1060.10        2962.75           2324        9344.00     40783.63
 1060.13        2963.00           2328       11555.00     50451.77
 1060.16        2963.25           2331       13010.00     56817.59
 1060.19        2963.50           2335       14972.00     65405.97
 1060.22        2963.75           2339       17153.00     74958.88
 1060.25        2964.00           2342       18963.00     82891.53
 1060.28        2964.25           2346       21351.00     93363.91
 1060.32        2964.50           2349       22662.00     99116.37
 1060.35        2964.75           2353       24647.00    107830.50
 1060.38        2965.00           2356       26101.00    114216.90
 1060.41        2965.25           2360       28112.00    123054.30
 1060.44        2965.50           2363       30048.00    131567.20
 1060.47        2965.75           2367       32138.00    140762.80
 1060.50        2966.00           2370       33462.00    146591.10
 1060.53        2966.25           2374       35010.00    153408.40
 1060.56        2966.50           2378       36236.00    158809.90
 1060.59        2966.75           2381       36258.00    158906.80
 1060.62        2967.00           2385       36251.00    158876.00
 1060.65        2967.25           2388       36667.00    160709.20
 1060.68        2967.50           2392       36245.00    158849.50
 1060.71        2967.75           2395       36027.00    157888.90
 1060.74        2968.00           2399       34774.00    152368.90
 1060.77        2968.25           2402       33308.00    145913.00
 1060.80        2968.50           2406       31554.00    138192.70
 1060.84        2968.75           2409       29847.00    130683.10
 1060.87        2969.00           2413       27902.00    122131.20
 1060.90        2969.25           2417       25693.00    112424.60
 1060.93        2969.50           2420       23971.00    104862.30
 1060.96        2969.75           2424       21869.00     95636.54
 1060.99        2970.00           2427       20370.00     89060.91
 1061.02        2970.25           2431       18376.00     80318.44
 1061.05        2970.50           2434       16652.00     72763.94
 1061.08        2970.75           2438       14398.00     62892.85
 1061.11        2971.00           2441       12818.00     55977.41
 1061.14        2971.25           2445       10835.00     47302.70
 1061.17        2971.50           2449        8713.00     38025.59
 1061.20        2971.75           2452        7202.00     31423.27
 1061.23        2972.00           2456        5162.00     22514.18
 1061.26        2972.25           2459        3787.00     16512.32
 1061.29        2972.50           2463        1889.00      8231.60
 1061.32        2972.75           2466         801.00      3486.90
 1061.35        2973.00           2470         242.00      1049.73
 1061.39        2973.25           2473         176.00       762.01
 1061.42        2973.50           2477         147.00       635.58
 1061.45        2973.75           2481         157.00       679.18
 1061.48        2974.00           2484         138.00       596.35
 1061.51        2974.25           2488         130.00       561.48
 1061.54        2974.50           2491         141.00       609.43
 1061.57        2974.75           2495         142.00       613.79
 1061.60        2975.00           2498         149.00       644.30
 1061.63        2975.25           2502         140.00       605.07
 1061.66        2975.50           2505         131.00       565.83
 1061.69        2975.75           2509         152.00       657.38
 1061.72        2976.00           2512         134.00       578.91
 1061.75        2976.25           2516         141.00       609.43
 1061.78        2976.50           2520         118.00       509.16
 1061.81        2976.75           2523         169.00       731.49
 1061.84        2977.00           2527         110.00       474.29
 1061.87        2977.25           2530         126.00       544.04
 1061.91        2977.50           2534         122.00       526.60
 1061.94        2977.75           2537         103.00       443.77
 1061.97        2978.00           2541         100.00       430.70
 1062.00        2978.25           2544          94.00       404.54
 1062.03        2978.50           2548         107.00       461.21
 1062.06        2978.75           2552         115.00       496.09
 1062.09        2979.00           2555         111.00       478.65
 1062.12        2979.25           2559         100.00       430.70
 1062.15        2979.50           2562         102.00       439.41
 1062.18        2979.75           2566         105.00       452.49
 1062.21        2980.00           2569         118.00       509.16
 1062.24        2980.25           2573         119.00       513.52
 1062.27        2980.50           2577         102.00       439.41
 1062.30        2980.75           2580          95.00       408.90
 1062.33        2981.00           2584         101.00       435.05
 1062.36        2981.25           2587         103.00       443.77
 1062.39        2981.50           2591         113.00       487.37
 1062.43        2981.75           2594          95.00       408.90
 1062.46        2982.00           2598          82.00       352.23
 1062.49        2982.25           2601          98.00       421.98
 1062.52        2982.50           2605          92.00       395.82
 1062.55        2982.75           2609          87.00       374.02
 1062.58        2983.00           2612          89.00       382.74
 1062.61        2983.25           2616          90.00       387.10
 1062.64        2983.50           2619          88.00       378.38
 1062.67        2983.75           2623          97.00       417.62
 1062.70        2984.00           2626          90.00       387.10
HS scan finished at 17:42:55
end
