************************************************************
  HS Scan of (1) Internal mercury lamp
************************************************************
Integration time is 0.2294 seconds per sample
dh301017Reading 51.44 .94 2.5pr1000
************************************************************
Dead Time -------------------------  3.4E-08 
Number of Cycles Used -------------  4 
Starting Wavelength (Angstroms) ---  2950 
Final Wavelength (Angstoms) -------  2984 
Wavelength Increment (Angstroms) --  .25 
Filter Wheel #1 Position ---------- (1) Ground quartz diffuser (ND=2.32)
Filter Wheel #2 Position ---------- (1) Neutral Density 0.494



************************************************************
HS scan start time = 04:14:17
Dark Count =  .4 


Time (GMT)  Wavelength (Ang)  Step Number  Raw Counts  Counts/Second

  255.19        2950.00           2144         200.00       870.12
  255.38        2950.25           2147         205.00       891.92
  255.41        2950.50           2151         206.00       896.28
  255.44        2950.75           2155         194.00       843.96
  255.47        2951.00           2158         198.00       861.40
  255.50        2951.25           2162         205.00       891.92
  255.53        2951.50           2165         198.00       861.40
  255.56        2951.75           2169         188.00       817.81
  255.59        2952.00           2172         197.00       857.04
  255.63        2952.25           2176         197.00       857.04
  255.66        2952.50           2179         215.00       935.51
  255.69        2952.75           2183         187.00       813.45
  255.72        2953.00           2186         213.00       926.79
  255.75        2953.25           2190         195.00       848.32
  255.78        2953.50           2193         208.00       905.00
  255.81        2953.75           2197         238.00      1035.78
  255.84        2954.00           2200         223.00       970.39
  255.87        2954.25           2204         210.00       913.72
  255.90        2954.50           2208         208.00       905.00
  255.93        2954.75           2211         213.00       926.79
  255.96        2955.00           2215         212.00       922.44
  255.99        2955.25           2218         215.00       935.51
  256.02        2955.50           2222         215.00       935.51
  256.05        2955.75           2225         221.00       961.67
  256.08        2956.00           2229         205.00       891.92
  256.11        2956.25           2232         217.00       944.23
  256.15        2956.50           2236         250.00      1088.10
  256.18        2956.75           2239         253.00      1101.17
  256.21        2957.00           2243         231.00      1005.27
  256.24        2957.25           2246         235.00      1022.70
  256.27        2957.50           2250         242.00      1053.22
  256.30        2957.75           2254         229.00       996.55
  256.33        2958.00           2257         236.00      1027.06
  256.36        2958.25           2261         239.00      1040.14
  256.39        2958.50           2264         282.00      1227.60
  256.42        2958.75           2268         269.00      1170.93
  256.45        2959.00           2271         306.00      1332.23
  256.48        2959.25           2275         261.00      1136.05
  256.51        2959.50           2278         288.00      1253.76
  256.54        2959.75           2282         282.00      1227.60
  256.57        2960.00           2285         280.00      1218.88
  256.60        2960.25           2289         274.00      1192.73
  256.63        2960.50           2293         301.00      1310.43
  256.66        2960.75           2296         313.00      1362.75
  256.70        2961.00           2300         321.00      1397.63
  256.73        2961.25           2303         543.00      2365.49
  256.76        2961.50           2307        2111.00      9203.40
  256.79        2961.75           2310        4357.00     19003.56
  256.82        2962.00           2314        7656.00     33410.21
  256.85        2962.25           2317       10323.00     45067.26
  256.88        2962.50           2321       14560.00     63605.59
  256.91        2962.75           2324       18140.00     79287.56
  256.94        2963.00           2328       22775.00     99615.81
  256.97        2963.25           2331       26351.00    115318.80
  257.00        2963.50           2335       31043.00    135947.80
  257.03        2963.75           2339       36221.00    158747.30
  257.06        2964.00           2342       39944.00    175162.20
  257.09        2964.25           2346       44369.00    194696.10
  257.12        2964.50           2349       47683.00    209342.60
  257.15        2964.75           2353       52451.00    230441.00
  257.18        2965.00           2356       55281.00    242978.10
  257.22        2965.25           2360       59705.00    262598.30
  257.25        2965.50           2363       63245.00    278317.00
  257.28        2965.75           2367       67165.00    295742.70
  257.31        2966.00           2370       69911.00    307961.90
  257.34        2966.25           2374       72993.00    321688.50
  257.37        2966.50           2378       74840.00    329920.80
  257.40        2966.75           2381       75242.00    331713.10
  257.43        2967.00           2385       75480.00    332774.40
  257.46        2967.25           2388       75454.00    332658.50
  257.49        2967.50           2392       75062.00    330910.60
  257.52        2967.75           2395       74839.00    329916.30
  257.55        2968.00           2399       72139.00    317883.60
  257.58        2968.25           2402       69237.00    304961.80
  257.61        2968.50           2406       65024.00    286222.60
  257.64        2968.75           2409       61625.00    271121.60
  257.67        2969.00           2413       57222.00    251583.10
  257.71        2969.25           2417       53313.00    234258.60
  257.74        2969.50           2420       49865.00    218994.20
  257.77        2969.75           2424       45893.00    201429.70
  257.80        2970.00           2427       42725.00    187435.70
  257.83        2970.25           2431       37954.00    166385.90
  257.86        2970.50           2434       34533.00    151310.90
  257.89        2970.75           2438       29637.00    129763.10
  257.93        2971.00           2441       26206.00    114681.70
  257.96        2971.25           2445       22116.00     96723.84
  257.99        2971.50           2449       17823.00     77898.28
  258.02        2971.75           2452       14830.00     64787.72
  258.05        2972.00           2456       10169.00     44393.90
  258.08        2972.25           2459        7056.00     30788.97
  258.11        2972.50           2463        3602.00     15708.48
  258.14        2972.75           2466        1675.00      7301.73
  258.17        2973.00           2470         548.00      2387.29
  258.20        2973.25           2473         341.00      1484.82
  258.23        2973.50           2477         306.00      1332.23
  258.26        2973.75           2481         285.00      1240.68
  258.29        2974.00           2484         275.00      1197.08
  258.32        2974.25           2488         278.00      1210.16
  258.35        2974.50           2491         299.00      1301.71
  258.38        2974.75           2495         257.00      1118.61
  258.42        2975.00           2498         277.00      1205.80
  258.45        2975.25           2502         243.00      1057.58
  258.48        2975.50           2505         267.00      1162.21
  258.51        2975.75           2509         246.00      1070.66
  258.54        2976.00           2512         251.00      1092.46
  258.57        2976.25           2516         248.00      1079.38
  258.60        2976.50           2520         253.00      1101.17
  258.63        2976.75           2523         222.00       966.03
  258.66        2977.00           2527         234.00      1018.34
  258.69        2977.25           2530         243.00      1057.58
  258.72        2977.50           2534         218.00       948.59
  258.75        2977.75           2537         227.00       987.83
  258.78        2978.00           2541         214.00       931.15
  258.81        2978.25           2544         202.00       878.84
  258.84        2978.50           2548         223.00       970.39
  258.87        2978.75           2552         196.00       852.68
  258.90        2979.00           2555         200.00       870.12
  258.94        2979.25           2559         202.00       878.84
  258.97        2979.50           2562         211.00       918.08
  259.00        2979.75           2566         198.00       861.40
  259.03        2980.00           2569         203.00       883.20
  259.06        2980.25           2573         195.00       848.32
  259.09        2980.50           2577         189.00       822.17
  259.12        2980.75           2580         193.00       839.61
  259.15        2981.00           2584         196.00       852.68
  259.18        2981.25           2587         180.00       782.93
  259.21        2981.50           2591         189.00       822.17
  259.24        2981.75           2594         179.00       778.57
  259.27        2982.00           2598         182.00       791.65
  259.31        2982.25           2601         191.00       830.89
  259.34        2982.50           2605         182.00       791.65
  259.37        2982.75           2609         184.00       800.37
  259.40        2983.00           2612         177.00       769.85
  259.43        2983.25           2616         180.00       782.93
  259.46        2983.50           2619         165.00       717.54
  259.49        2983.75           2623         191.00       830.89
  259.52        2984.00           2626         165.00       717.54
HS scan finished at 04:19:45
end
************************************************************
  HS Scan of (1) Internal mercury lamp
************************************************************
Integration time is 0.2294 seconds per sample
dh301017Reading 51.44 .94 3.11pr1000
************************************************************
Dead Time -------------------------  3.4E-08 
Number of Cycles Used -------------  4 
Starting Wavelength (Angstroms) ---  2950 
Final Wavelength (Angstoms) -------  2984 
Wavelength Increment (Angstroms) --  .25 
Filter Wheel #1 Position ---------- (1) Ground quartz diffuser (ND=2.32)
Filter Wheel #2 Position ---------- (1) Neutral Density 0.494



************************************************************
HS scan start time = 17:37:29
Dark Count =  1.5 


Time (GMT)  Wavelength (Ang)  Step Number  Raw Counts  Counts/Second

 1058.38        2950.00           2144          73.00       311.69
 1058.57        2950.25           2147          78.00       333.48
 1058.60        2950.50           2151          74.00       316.05
 1058.63        2950.75           2155          78.00       333.48
 1058.66        2951.00           2158          84.00       359.64
 1058.69        2951.25           2162          79.00       337.84
 1058.73        2951.50           2165          77.00       329.12
 1058.76        2951.75           2169          80.00       342.20
 1058.79        2952.00           2172          78.00       333.48
 1058.82        2952.25           2176          77.00       329.12
 1058.85        2952.50           2179          75.00       320.40
 1058.88        2952.75           2183          79.00       337.84
 1058.91        2953.00           2186          86.00       368.36
 1058.94        2953.25           2190          70.00       298.61
 1058.97        2953.50           2193          81.00       346.56
 1059.01        2953.75           2197          84.00       359.64
 1059.04        2954.00           2200          79.00       337.84
 1059.07        2954.25           2204          81.00       346.56
 1059.10        2954.50           2208         100.00       429.39
 1059.13        2954.75           2211          82.00       350.92
 1059.16        2955.00           2215          83.00       355.28
 1059.19        2955.25           2218          75.00       320.40
 1059.22        2955.50           2222          83.00       355.28
 1059.25        2955.75           2225          75.00       320.40
 1059.28        2956.00           2229          78.00       333.48
 1059.31        2956.25           2232          80.00       342.20
 1059.34        2956.50           2236          75.00       320.40
 1059.37        2956.75           2239          86.00       368.36
 1059.40        2957.00           2243          79.00       337.84
 1059.43        2957.25           2246          85.00       364.00
 1059.46        2957.50           2250          76.00       324.76
 1059.49        2957.75           2254          86.00       368.36
 1059.53        2958.00           2257          79.00       337.84
 1059.56        2958.25           2261          89.00       381.43
 1059.59        2958.50           2264          86.00       368.36
 1059.62        2958.75           2268          83.00       355.28
 1059.65        2959.00           2271          88.00       377.08
 1059.68        2959.25           2275          96.00       411.95
 1059.71        2959.50           2278         100.00       429.39
 1059.74        2959.75           2282          86.00       368.36
 1059.77        2960.00           2285          88.00       377.08
 1059.80        2960.25           2289          97.00       416.31
 1059.83        2960.50           2293          95.00       407.59
 1059.86        2960.75           2296         105.00       451.18
 1059.89        2961.00           2300         126.00       542.73
 1059.92        2961.25           2303         254.00      1100.74
 1059.95        2961.50           2307        1074.00      4675.98
 1059.98        2961.75           2310        1991.00      8675.18
 1060.01        2962.00           2314        3262.00     14220.04
 1060.05        2962.25           2317        4321.00     18841.62
 1060.08        2962.50           2321        5917.00     25809.47
 1060.11        2962.75           2324        7123.00     31076.85
 1060.14        2963.00           2328        8825.00     38513.78
 1060.17        2963.25           2331        9986.00     43588.97
 1060.20        2963.50           2335       11371.00     49645.64
 1060.23        2963.75           2339       13037.00     56934.43
 1060.26        2964.00           2342       14629.00     63902.86
 1060.29        2964.25           2346       16285.00     71154.94
 1060.32        2964.50           2349       17352.00     75829.52
 1060.35        2964.75           2353       18939.00     82785.00
 1060.38        2965.00           2356       20167.00     88169.32
 1060.41        2965.25           2360       21815.00     95398.30
 1060.44        2965.50           2363       23061.00    100866.30
 1060.47        2965.75           2367       24437.00    106907.10
 1060.50        2966.00           2370       25571.00    111887.30
 1060.53        2966.25           2374       26919.00    117809.70
 1060.56        2966.50           2378       27602.00    120811.30
 1060.60        2966.75           2381       27966.00    122411.20
 1060.63        2967.00           2385       28056.00    122806.80
 1060.66        2967.25           2388       27917.00    122195.80
 1060.69        2967.50           2392       27881.00    122037.60
 1060.72        2967.75           2395       27789.00    121633.20
 1060.75        2968.00           2399       26731.00    116983.60
 1060.78        2968.25           2402       25379.00    111044.00
 1060.81        2968.50           2406       23797.00    104097.10
 1060.84        2968.75           2409       22766.00     99571.49
 1060.88        2969.00           2413       21240.00     92875.64
 1060.91        2969.25           2417       19715.00     86187.24
 1060.94        2969.50           2420       18568.00     81158.68
 1060.97        2969.75           2424       16868.00     73708.91
 1061.00        2970.00           2427       15624.00     68259.81
 1061.03        2970.25           2431       13934.00     60860.33
 1061.06        2970.50           2434       12602.00     55030.94
 1061.09        2970.75           2438       11109.00     48499.71
 1061.12        2971.00           2441       10037.00     43811.95
 1061.15        2971.25           2445        8496.00     37075.92
 1061.18        2971.50           2449        6880.00     30015.36
 1061.21        2971.75           2452        5709.00     24901.20
 1061.24        2972.00           2456        4020.00     17527.88
 1061.27        2972.25           2459        2953.00     12871.81
 1061.31        2972.50           2463        1685.00      7340.54
 1061.34        2972.75           2466         871.00      3790.81
 1061.37        2973.00           2470         257.00      1113.82
 1061.40        2973.25           2473         145.00       625.56
 1061.43        2973.50           2477         117.00       503.50
 1061.46        2973.75           2481         104.00       446.82
 1061.49        2974.00           2484         100.00       429.39
 1061.52        2974.25           2488         102.00       438.11
 1061.55        2974.50           2491          94.00       403.23
 1061.58        2974.75           2495          95.00       407.59
 1061.61        2975.00           2498         100.00       429.39
 1061.64        2975.25           2502          90.00       385.79
 1061.67        2975.50           2505          83.00       355.28
 1061.70        2975.75           2509          85.00       364.00
 1061.73        2976.00           2512          92.00       394.51
 1061.76        2976.25           2516          89.00       381.43
 1061.79        2976.50           2520          88.00       377.08
 1061.83        2976.75           2523          82.00       350.92
 1061.86        2977.00           2527          83.00       355.28
 1061.89        2977.25           2530          84.00       359.64
 1061.92        2977.50           2534          78.00       333.48
 1061.95        2977.75           2537          79.00       337.84
 1061.98        2978.00           2541          71.00       302.97
 1062.01        2978.25           2544          76.00       324.76
 1062.04        2978.50           2548          76.00       324.76
 1062.07        2978.75           2552          79.00       337.84
 1062.10        2979.00           2555          78.00       333.48
 1062.13        2979.25           2559          76.00       324.76
 1062.16        2979.50           2562          70.00       298.61
 1062.19        2979.75           2566          72.00       307.33
 1062.22        2980.00           2569          73.00       311.69
 1062.25        2980.25           2573          77.00       329.12
 1062.28        2980.50           2577          66.00       281.17
 1062.31        2980.75           2580          73.00       311.69
 1062.35        2981.00           2584          70.00       298.61
 1062.38        2981.25           2587          68.00       289.89
 1062.41        2981.50           2591          74.00       316.05
 1062.44        2981.75           2594          65.00       276.81
 1062.47        2982.00           2598          67.00       285.53
 1062.50        2982.25           2601          66.00       281.17
 1062.53        2982.50           2605          69.00       294.25
 1062.56        2982.75           2609          63.00       268.09
 1062.59        2983.00           2612          71.00       302.97
 1062.62        2983.25           2616          73.00       311.69
 1062.66        2983.50           2619          64.00       272.45
 1062.69        2983.75           2623          61.00       259.37
 1062.72        2984.00           2626          63.00       268.09
HS scan finished at 17:42:57
end
