************************************************************
  HS Scan of (1) Internal mercury lamp
************************************************************
Integration time is 0.2294 seconds per sample
dh041118Reading 51.44 .94 2.98pr1000
************************************************************
Dead Time -------------------------  3.4E-08 
Number of Cycles Used -------------  4 
Starting Wavelength (Angstroms) ---  2950 
Final Wavelength (Angstoms) -------  2984 
Wavelength Increment (Angstroms) --  .25 
Filter Wheel #1 Position ---------- (1) Ground quartz diffuser (ND=2.32)
Filter Wheel #2 Position ---------- (1) Neutral Density 0.494



************************************************************
HS scan start time = 04:19:03
Dark Count =  .8 


Time (GMT)  Wavelength (Ang)  Step Number  Raw Counts  Counts/Second

  259.95        2950.00           2144        1553.00      6767.91
  260.14        2950.25           2147        1560.00      6798.43
  260.17        2950.50           2151        1556.00      6780.99
  260.20        2950.75           2155        1568.00      6833.32
  260.23        2951.00           2158        1556.00      6780.99
  260.26        2951.25           2162        1570.00      6842.05
  260.29        2951.50           2165        1609.00      7012.13
  260.32        2951.75           2169        1624.00      7077.55
  260.35        2952.00           2172        1580.00      6885.66
  260.38        2952.25           2176        1583.00      6898.74
  260.41        2952.50           2179        1556.00      6780.99
  260.44        2952.75           2183        1637.00      7134.25
  260.47        2953.00           2186        1624.00      7077.55
  260.51        2953.25           2190        1614.00      7033.94
  260.54        2953.50           2193        1630.00      7103.72
  260.57        2953.75           2197        1613.00      7029.58
  260.60        2954.00           2200        1624.00      7077.55
  260.63        2954.25           2204        1621.00      7064.47
  260.66        2954.50           2208        1644.00      7164.78
  260.69        2954.75           2211        1668.00      7269.45
  260.72        2955.00           2215        1641.00      7151.70
  260.75        2955.25           2218        1681.00      7326.15
  260.78        2955.50           2222        1630.00      7103.72
  260.81        2955.75           2225        1671.00      7282.54
  260.84        2956.00           2229        1633.00      7116.80
  260.87        2956.25           2232        1672.00      7286.90
  260.90        2956.50           2236        1725.00      7518.05
  260.93        2956.75           2239        1680.00      7321.79
  260.96        2957.00           2243        1730.00      7539.86
  260.99        2957.25           2246        1736.00      7566.03
  261.03        2957.50           2250        1783.00      7771.02
  261.06        2957.75           2254        1779.00      7753.57
  261.09        2958.00           2257        1800.00      7845.16
  261.12        2958.25           2261        1779.00      7753.57
  261.15        2958.50           2264        1782.00      7766.65
  261.18        2958.75           2268        1790.00      7801.55
  261.21        2959.00           2271        1837.00      8006.54
  261.24        2959.25           2275        1837.00      8006.54
  261.27        2959.50           2278        1868.00      8141.75
  261.30        2959.75           2282        1882.00      8202.81
  261.33        2960.00           2285        1931.00      8416.53
  261.36        2960.25           2289        1952.00      8508.13
  261.39        2960.50           2293        1976.00      8612.81
  261.42        2960.75           2296        2026.00      8830.90
  261.45        2961.00           2300        2175.00      9480.82
  261.48        2961.25           2303        2707.00     11801.60
  261.52        2961.50           2307        7319.00     31936.15
  261.55        2961.75           2310       16221.00     70877.66
  261.58        2962.00           2314       34392.00    150688.10
  261.61        2962.25           2317       51612.00    226724.50
  261.64        2962.50           2321       74510.00    328447.80
  261.67        2962.75           2324       91343.00    403681.50
  261.70        2963.00           2328      113055.00    501297.50
  261.73        2963.25           2331      130914.00    582083.20
  261.76        2963.50           2335      154403.00    689023.80
  261.79        2963.75           2339      178900.00    801398.40
  261.82        2964.00           2342      197089.00    885403.20
  261.85        2964.25           2346      220520.00    994341.20
  261.88        2964.50           2349      238039.00   1076332.00
  261.91        2964.75           2353      259581.00   1177795.00
  261.94        2965.00           2356      274224.00   1247173.00
  261.97        2965.25           2360      298477.00   1362824.00
  262.00        2965.50           2363      315498.00   1444549.00
  262.03        2965.75           2367      337683.00   1551773.00
  262.07        2966.00           2370      352852.00   1625553.00
  262.10        2966.25           2374      370745.00   1713075.00
  262.13        2966.50           2378      384023.00   1778371.00
  262.16        2966.75           2381      387890.00   1797444.00
  262.19        2967.00           2385      388839.00   1802129.00
  262.22        2967.25           2388      389895.00   1807343.00
  262.25        2967.50           2392      388721.00   1801546.00
  262.28        2967.75           2395      388325.00   1799591.00
  262.31        2968.00           2399      382595.00   1771334.00
  262.34        2968.25           2402      372325.00   1720829.00
  262.37        2968.50           2406      356024.00   1641029.00
  262.40        2968.75           2409      342242.00   1573908.00
  262.43        2969.00           2413      320295.00   1467666.00
  262.46        2969.25           2417      297686.00   1359037.00
  262.49        2969.50           2420      281177.00   1280233.00
  262.52        2969.75           2424      259440.00   1177128.00
  262.55        2970.00           2427      242916.00   1099241.00
  262.59        2970.25           2431      220827.00    995774.10
  262.62        2970.50           2434      205510.00    924460.70
  262.65        2970.75           2438      180357.00    808109.60
  262.68        2971.00           2441      161789.00    722814.00
  262.71        2971.25           2445      138026.00    614379.80
  262.74        2971.50           2449      115155.00    510773.70
  262.77        2971.75           2452       97305.00    430421.30
  262.80        2972.00           2456       73971.00    326045.20
  262.83        2972.25           2459       57308.00    251962.70
  262.86        2972.50           2463       35738.00    156617.30
  262.89        2972.75           2466       20511.00     89681.06
  262.92        2973.00           2470        6238.00     27214.36
  262.95        2973.25           2473        3023.00     13180.27
  262.98        2973.50           2477        2202.00      9598.60
  263.01        2973.75           2481        2083.00      9079.52
  263.04        2974.00           2484        2008.00      8752.39
  263.07        2974.25           2488        1956.00      8525.57
  263.11        2974.50           2491        1948.00      8490.68
  263.14        2974.75           2495        1846.00      8045.79
  263.17        2975.00           2498        1903.00      8294.41
  263.20        2975.25           2502        1843.00      8032.71
  263.23        2975.50           2505        1833.00      7989.09
  263.26        2975.75           2509        1822.00      7941.11
  263.29        2976.00           2512        1809.00      7884.42
  263.32        2976.25           2516        1769.00      7709.95
  263.35        2976.50           2520        1750.00      7627.09
  263.38        2976.75           2523        1700.00      7409.01
  263.41        2977.00           2527        1730.00      7539.86
  263.44        2977.25           2530        1669.00      7273.81
  263.47        2977.50           2534        1683.00      7334.87
  263.50        2977.75           2537        1710.00      7452.63
  263.53        2978.00           2541        1699.00      7404.65
  263.56        2978.25           2544        1660.00      7234.56
  263.59        2978.50           2548        1647.00      7177.86
  263.63        2978.75           2552        1590.00      6929.27
  263.66        2979.00           2555        1653.00      7204.03
  263.69        2979.25           2559        1628.00      7095.00
  263.72        2979.50           2562        1588.00      6920.55
  263.75        2979.75           2566        1596.00      6955.44
  263.78        2980.00           2569        1570.00      6842.05
  263.81        2980.25           2573        1543.00      6724.29
  263.84        2980.50           2577        1552.00      6763.54
  263.87        2980.75           2580        1551.00      6759.18
  263.91        2981.00           2584        1519.00      6619.62
  263.94        2981.25           2587        1521.00      6628.35
  263.97        2981.50           2591        1563.00      6811.52
  264.00        2981.75           2594        1502.00      6545.48
  264.03        2982.00           2598        1531.00      6671.96
  264.06        2982.25           2601        1490.00      6493.15
  264.09        2982.50           2605        1457.00      6349.23
  264.12        2982.75           2609        1502.00      6545.48
  264.15        2983.00           2612        1478.00      6440.82
  264.18        2983.25           2616        1501.00      6541.12
  264.21        2983.50           2619        1494.00      6510.60
  264.24        2983.75           2623        1496.00      6519.32
  264.27        2984.00           2626        1463.00      6375.40
HS scan finished at 04:24:30
end
************************************************************
  HS Scan of (1) Internal mercury lamp
************************************************************
Integration time is 0.2294 seconds per sample
dh041118Reading 51.44 .94 3.15pr1000
************************************************************
Dead Time -------------------------  3.4E-08 
Number of Cycles Used -------------  4 
Starting Wavelength (Angstroms) ---  2950 
Final Wavelength (Angstoms) -------  2984 
Wavelength Increment (Angstroms) --  .25 
Filter Wheel #1 Position ---------- (1) Ground quartz diffuser (ND=2.32)
Filter Wheel #2 Position ---------- (1) Neutral Density 0.494



************************************************************
HS scan start time = 17:37:19
Dark Count =  1.4 


Time (GMT)  Wavelength (Ang)  Step Number  Raw Counts  Counts/Second

 1058.21        2950.00           2144        1159.00      5047.07
 1058.40        2950.25           2147        1193.00      5195.34
 1058.43        2950.50           2151        1255.00      5465.71
 1058.46        2950.75           2155        1192.00      5190.98
 1058.49        2951.00           2158        1211.00      5273.83
 1058.52        2951.25           2162        1207.00      5256.39
 1058.55        2951.50           2165        1199.00      5221.50
 1058.58        2951.75           2169        1191.00      5186.62
 1058.61        2952.00           2172        1184.00      5156.09
 1058.65        2952.25           2176        1212.00      5278.19
 1058.68        2952.50           2179        1207.00      5256.39
 1058.71        2952.75           2183        1197.00      5212.78
 1058.74        2953.00           2186        1245.00      5422.10
 1058.77        2953.25           2190        1196.00      5208.42
 1058.80        2953.50           2193        1243.00      5413.38
 1058.83        2953.75           2197        1231.00      5361.05
 1058.86        2954.00           2200        1213.00      5282.55
 1058.89        2954.25           2204        1226.00      5339.24
 1058.92        2954.50           2208        1241.00      5404.66
 1058.95        2954.75           2211        1291.00      5622.70
 1058.98        2955.00           2215        1240.00      5400.29
 1059.01        2955.25           2218        1279.00      5570.37
 1059.04        2955.50           2222        1277.00      5561.64
 1059.07        2955.75           2225        1296.00      5644.50
 1059.10        2956.00           2229        1317.00      5736.08
 1059.13        2956.25           2232        1306.00      5688.11
 1059.17        2956.50           2236        1342.00      5845.10
 1059.20        2956.75           2239        1312.00      5714.28
 1059.23        2957.00           2243        1292.00      5627.06
 1059.26        2957.25           2246        1293.00      5631.42
 1059.29        2957.50           2250        1311.00      5709.91
 1059.32        2957.75           2254        1340.00      5836.38
 1059.35        2958.00           2257        1364.00      5941.04
 1059.38        2958.25           2261        1377.00      5997.74
 1059.41        2958.50           2264        1360.00      5923.60
 1059.44        2958.75           2268        1428.00      6220.15
 1059.47        2959.00           2271        1412.00      6150.37
 1059.50        2959.25           2275        1447.00      6303.01
 1059.53        2959.50           2278        1451.00      6320.45
 1059.56        2959.75           2282        1456.00      6342.26
 1059.59        2960.00           2285        1434.00      6246.31
 1059.62        2960.25           2289        1473.00      6416.40
 1059.65        2960.50           2293        1512.00      6586.48
 1059.69        2960.75           2296        1563.00      6808.90
 1059.72        2961.00           2300        1694.00      7380.23
 1059.75        2961.25           2303        1969.00      8579.66
 1059.78        2961.50           2307        5166.00     22530.77
 1059.81        2961.75           2310       12344.00     53902.53
 1059.84        2962.00           2314       26045.00    113970.00
 1059.87        2962.25           2317       37721.00    165354.20
 1059.90        2962.50           2321       54227.00    238303.20
 1059.93        2962.75           2324       67444.00    296979.30
 1059.96        2963.00           2328       87847.00    388021.80
 1059.99        2963.25           2331      101809.00    450651.80
 1060.02        2963.50           2335      121091.00    537590.40
 1060.05        2963.75           2339      139130.00    619396.80
 1060.08        2964.00           2342      152942.00    682346.40
 1060.11        2964.25           2346      171374.00    766779.10
 1060.14        2964.50           2349      186452.00    836215.00
 1060.17        2964.75           2353      205372.00    923817.00
 1060.21        2965.00           2356      218256.00    983776.50
 1060.24        2965.25           2360      234504.00   1059748.00
 1060.27        2965.50           2363      248329.00   1124706.00
 1060.30        2965.75           2367      263763.00   1197572.00
 1060.33        2966.00           2370      275255.00   1252067.00
 1060.36        2966.25           2374      292099.00   1332317.00
 1060.39        2966.50           2378      306336.00   1400498.00
 1060.42        2966.75           2381      310581.00   1420890.00
 1060.45        2967.00           2385      312077.00   1428083.00
 1060.48        2967.25           2388      312616.00   1430676.00
 1060.51        2967.50           2392      313075.00   1432884.00
 1060.54        2967.75           2395      312538.00   1430301.00
 1060.57        2968.00           2399      310933.00   1422582.00
 1060.60        2968.25           2402      302816.00   1383610.00
 1060.63        2968.50           2406      288383.00   1314574.00
 1060.66        2968.75           2409      276847.00   1259633.00
 1060.70        2969.00           2413      260032.00   1179924.00
 1060.73        2969.25           2417      242406.00   1096840.00
 1060.76        2969.50           2420      229865.00   1038016.00
 1060.79        2969.75           2424      211803.00    953714.50
 1060.82        2970.00           2427      198639.00    892581.60
 1060.85        2970.25           2431      179325.00    803352.90
 1060.88        2970.50           2434      164700.00    736150.30
 1060.91        2970.75           2438      145955.00    650468.50
 1060.94        2971.00           2441      131327.00    583954.00
 1060.97        2971.25           2445      111965.00    496378.60
 1061.00        2971.50           2449       91937.00    406340.80
 1061.03        2971.75           2452       76322.00    336525.10
 1061.06        2972.00           2456       57379.00    252274.90
 1061.09        2972.25           2459       43747.00    191944.30
 1061.12        2972.50           2463       26662.00    116680.80
 1061.15        2972.75           2466       15583.00     68080.69
 1061.18        2973.00           2470        5373.00     23434.53
 1061.21        2973.25           2473        2661.00     11598.30
 1061.25        2973.50           2477        1705.00      7428.21
 1061.28        2973.75           2481        1614.00      7031.32
 1061.31        2974.00           2484        1561.00      6800.18
 1061.34        2974.25           2488        1568.00      6830.71
 1061.37        2974.50           2491        1555.00      6774.01
 1061.40        2974.75           2495        1519.00      6617.01
 1061.43        2975.00           2498        1488.00      6481.81
 1061.46        2975.25           2502        1424.00      6202.70
 1061.49        2975.50           2505        1416.00      6167.81
 1061.52        2975.75           2509        1403.00      6111.12
 1061.55        2976.00           2512        1408.00      6132.93
 1061.58        2976.25           2516        1397.00      6084.96
 1061.61        2976.50           2520        1353.00      5893.07
 1061.64        2976.75           2523        1320.00      5749.16
 1061.67        2977.00           2527        1340.00      5836.38
 1061.70        2977.25           2530        1343.00      5849.46
 1061.73        2977.50           2534        1262.00      5496.23
 1061.77        2977.75           2537        1301.00      5666.31
 1061.80        2978.00           2541        1321.00      5753.52
 1061.83        2978.25           2544        1288.00      5609.61
 1061.86        2978.50           2548        1262.00      5496.23
 1061.89        2978.75           2552        1264.00      5504.95
 1061.92        2979.00           2555        1237.00      5387.21
 1061.95        2979.25           2559        1237.00      5387.21
 1061.98        2979.50           2562        1215.00      5291.27
 1062.01        2979.75           2566        1245.00      5422.10
 1062.04        2980.00           2569        1217.00      5300.00
 1062.07        2980.25           2573        1200.00      5225.86
 1062.10        2980.50           2577        1212.00      5278.19
 1062.13        2980.75           2580        1198.00      5217.14
 1062.16        2981.00           2584        1184.00      5156.09
 1062.19        2981.25           2587        1173.00      5108.12
 1062.22        2981.50           2591        1161.00      5055.80
 1062.25        2981.75           2594        1189.00      5177.90
 1062.29        2982.00           2598        1164.00      5068.88
 1062.32        2982.25           2601        1158.00      5042.71
 1062.35        2982.50           2605        1133.00      4933.70
 1062.38        2982.75           2609        1169.00      5090.68
 1062.41        2983.00           2612        1161.00      5055.80
 1062.44        2983.25           2616        1132.00      4929.34
 1062.47        2983.50           2619        1151.00      5012.19
 1062.50        2983.75           2623        1155.00      5029.63
 1062.53        2984.00           2626        1105.00      4811.60
HS scan finished at 17:42:45
end
