************************************************************
  HS Scan of (1) Internal mercury lamp
************************************************************
Integration time is 0.2294 seconds per sample
dh271018Reading 51.44 .94 2.45pr1000
************************************************************
Dead Time -------------------------  3.4E-08 
Number of Cycles Used -------------  4 
Starting Wavelength (Angstroms) ---  2950 
Final Wavelength (Angstoms) -------  2984 
Wavelength Increment (Angstroms) --  .25 
Filter Wheel #1 Position ---------- (1) Ground quartz diffuser (ND=2.32)
Filter Wheel #2 Position ---------- (1) Neutral Density 0.494



************************************************************
HS scan start time = 04:08:45
Dark Count =  .4 


Time (GMT)  Wavelength (Ang)  Step Number  Raw Counts  Counts/Second

  249.64        2950.00           2144        1575.00      6865.60
  249.84        2950.25           2147        1545.00      6734.76
  249.87        2950.50           2151        1572.00      6852.51
  249.90        2950.75           2155        1552.00      6765.29
  249.93        2951.00           2158        1538.00      6704.23
  249.96        2951.25           2162        1566.00      6826.34
  249.99        2951.50           2165        1592.00      6939.74
  250.02        2951.75           2169        1567.00      6830.71
  250.05        2952.00           2172        1582.00      6896.12
  250.08        2952.25           2176        1594.00      6948.46
  250.11        2952.50           2179        1567.00      6830.71
  250.14        2952.75           2183        1564.00      6817.62
  250.17        2953.00           2186        1568.00      6835.07
  250.20        2953.25           2190        1596.00      6957.18
  250.23        2953.50           2193        1577.00      6874.32
  250.26        2953.75           2197        1555.00      6778.37
  250.29        2954.00           2200        1646.00      7175.25
  250.33        2954.25           2204        1592.00      6939.74
  250.36        2954.50           2208        1570.00      6843.79
  250.39        2954.75           2211        1577.00      6874.32
  250.42        2955.00           2215        1603.00      6987.71
  250.45        2955.25           2218        1639.00      7144.72
  250.48        2955.50           2222        1652.00      7201.41
  250.51        2955.75           2225        1644.00      7166.52
  250.54        2956.00           2229        1636.00      7131.63
  250.57        2956.25           2232        1658.00      7227.58
  250.60        2956.50           2236        1641.00      7153.44
  250.63        2956.75           2239        1633.00      7118.55
  250.66        2957.00           2243        1668.00      7271.20
  250.69        2957.25           2246        1676.00      7306.09
  250.72        2957.50           2250        1675.00      7301.73
  250.75        2957.75           2254        1685.00      7345.34
  250.78        2958.00           2257        1737.00      7572.13
  250.81        2958.25           2261        1731.00      7545.96
  250.85        2958.50           2264        1722.00      7506.71
  250.88        2958.75           2268        1719.00      7493.63
  250.91        2959.00           2271        1754.00      7646.28
  250.94        2959.25           2275        1788.00      7794.57
  250.97        2959.50           2278        1809.00      7886.16
  251.00        2959.75           2282        1840.00      8021.37
  251.03        2960.00           2285        1812.00      7899.24
  251.06        2960.25           2289        1880.00      8195.83
  251.09        2960.50           2293        1942.00      8466.26
  251.12        2960.75           2296        1880.00      8195.83
  251.15        2961.00           2300        1987.00      8662.53
  251.18        2961.25           2303        2072.00      9033.29
  251.21        2961.50           2307        4211.00     18366.31
  251.24        2961.75           2310       10258.00     44783.04
  251.27        2962.00           2314       22641.00     99027.72
  251.30        2962.25           2317       33436.00    146480.10
  251.33        2962.50           2321       50040.00    219768.60
  251.37        2962.75           2324       63364.00    278845.70
  251.40        2963.00           2328       81108.00    357892.70
  251.43        2963.25           2331       93370.00    412769.00
  251.46        2963.50           2335      112940.00    500780.50
  251.49        2963.75           2339      132451.00    589058.70
  251.52        2964.00           2342      147964.00    659631.90
  251.55        2964.25           2346      166757.00    745588.10
  251.58        2964.50           2349      180175.00    807272.80
  251.61        2964.75           2353      196485.00    882607.70
  251.64        2965.00           2356      210427.00    947316.90
  251.67        2965.25           2360      228568.00   1031951.00
  251.70        2965.50           2363      242275.00   1096229.00
  251.73        2965.75           2367      260601.00   1182618.00
  251.76        2966.00           2370      272848.00   1240641.00
  251.79        2966.25           2374      289492.00   1319872.00
  251.82        2966.50           2378      304336.00   1390905.00
  251.85        2966.75           2381      310780.00   1421851.00
  251.89        2967.00           2385      314472.00   1439612.00
  251.92        2967.25           2388      315163.00   1442938.00
  251.95        2967.50           2392      315330.00   1443742.00
  251.98        2967.75           2395      315476.00   1444445.00
  252.01        2968.00           2399      312919.00   1432138.00
  252.04        2968.25           2402      307832.00   1407686.00
  252.07        2968.50           2406      294589.00   1344223.00
  252.10        2968.75           2409      283074.00   1289268.00
  252.13        2969.00           2413      264718.00   1202097.00
  252.16        2969.25           2417      243995.00   1104315.00
  252.19        2969.50           2420      230451.00   1040764.00
  252.22        2969.75           2424      211876.00    954058.90
  252.25        2970.00           2427      198202.00    890561.20
  252.28        2970.25           2431      180498.00    808761.00
  252.31        2970.50           2434      166453.00    744193.60
  252.34        2970.75           2438      147553.00    657757.60
  252.37        2971.00           2441      134114.00    596607.80
  252.41        2971.25           2445      113715.00    504276.80
  252.44        2971.50           2449       95203.00    420990.00
  252.47        2971.75           2452       80668.00    355927.40
  252.50        2972.00           2456       63687.00    280280.80
  252.53        2972.25           2459       50347.00    221127.10
  252.56        2972.50           2463       31847.00    139485.60
  252.59        2972.75           2466       18825.00     82290.07
  252.62        2973.00           2470        6831.00     29806.13
  252.65        2973.25           2473        3372.00     14704.82
  252.68        2973.50           2477        2128.00      9277.56
  252.71        2973.75           2481        1955.00      8522.96
  252.74        2974.00           2484        1903.00      8296.15
  252.77        2974.25           2488        1872.00      8160.94
  252.80        2974.50           2491        1818.00      7925.41
  252.83        2974.75           2495        1771.00      7720.42
  252.86        2975.00           2498        1771.00      7720.42
  252.89        2975.25           2502        1768.00      7707.34
  252.93        2975.50           2505        1762.00      7681.17
  252.96        2975.75           2509        1712.00      7463.10
  252.99        2976.00           2512        1686.00      7349.70
  253.02        2976.25           2516        1704.00      7428.21
  253.05        2976.50           2520        1675.00      7301.73
  253.08        2976.75           2523        1665.00      7258.11
  253.11        2977.00           2527        1644.00      7166.52
  253.14        2977.25           2530        1603.00      6987.71
  253.17        2977.50           2534        1607.00      7005.16
  253.20        2977.75           2537        1608.00      7009.52
  253.23        2978.00           2541        1602.00      6983.35
  253.26        2978.25           2544        1603.00      6987.71
  253.29        2978.50           2548        1578.00      6878.68
  253.32        2978.75           2552        1559.00      6795.82
  253.35        2979.00           2555        1596.00      6957.18
  253.38        2979.25           2559        1527.00      6656.26
  253.41        2979.50           2562        1543.00      6726.04
  253.45        2979.75           2566        1511.00      6586.48
  253.48        2980.00           2569        1522.00      6634.45
  253.51        2980.25           2573        1509.00      6577.76
  253.54        2980.50           2577        1501.00      6542.87
  253.57        2980.75           2580        1484.00      6468.73
  253.60        2981.00           2584        1482.00      6460.01
  253.63        2981.25           2587        1480.00      6451.28
  253.66        2981.50           2591        1453.00      6333.54
  253.69        2981.75           2594        1479.00      6446.92
  253.72        2982.00           2598        1463.00      6377.15
  253.75        2982.25           2601        1467.00      6394.59
  253.78        2982.50           2605        1446.00      6303.01
  253.81        2982.75           2609        1460.00      6364.06
  253.84        2983.00           2612        1441.00      6281.20
  253.87        2983.25           2616        1436.00      6259.40
  253.90        2983.50           2619        1412.00      6154.73
  253.93        2983.75           2623        1463.00      6377.15
  253.96        2984.00           2626        1442.00      6285.56
HS scan finished at 04:14:11
end
************************************************************
  HS Scan of (1) Internal mercury lamp
************************************************************
Integration time is 0.2294 seconds per sample
dh271018Reading 51.44 .94 2.68pr1000
************************************************************
Dead Time -------------------------  3.4E-08 
Number of Cycles Used -------------  4 
Starting Wavelength (Angstroms) ---  2950 
Final Wavelength (Angstoms) -------  2984 
Wavelength Increment (Angstroms) --  .25 
Filter Wheel #1 Position ---------- (1) Ground quartz diffuser (ND=2.32)
Filter Wheel #2 Position ---------- (1) Neutral Density 0.494



************************************************************
HS scan start time = 17:37:29
Dark Count =  .5 


Time (GMT)  Wavelength (Ang)  Step Number  Raw Counts  Counts/Second

 1058.38        2950.00           2144        1445.00      6298.21
 1058.58        2950.25           2147        1450.00      6320.02
 1058.61        2950.50           2151        1430.00      6232.79
 1058.64        2950.75           2155        1469.00      6402.88
 1058.67        2951.00           2158        1458.00      6354.90
 1058.70        2951.25           2162        1453.00      6333.10
 1058.73        2951.50           2165        1456.00      6346.18
 1058.76        2951.75           2169        1444.00      6293.85
 1058.79        2952.00           2172        1451.00      6324.38
 1058.82        2952.25           2176        1458.00      6354.90
 1058.85        2952.50           2179        1430.00      6232.79
 1058.88        2952.75           2183        1491.00      6498.82
 1058.91        2953.00           2186        1457.00      6350.54
 1058.94        2953.25           2190        1472.00      6415.96
 1058.98        2953.50           2193        1477.00      6437.76
 1059.01        2953.75           2197        1465.00      6385.43
 1059.04        2954.00           2200        1501.00      6542.43
 1059.07        2954.25           2204        1460.00      6363.63
 1059.10        2954.50           2208        1492.00      6503.18
 1059.13        2954.75           2211        1500.00      6538.07
 1059.16        2955.00           2215        1454.00      6337.46
 1059.19        2955.25           2218        1491.00      6498.82
 1059.22        2955.50           2222        1517.00      6612.21
 1059.25        2955.75           2225        1542.00      6721.24
 1059.28        2956.00           2229        1530.00      6668.91
 1059.31        2956.25           2232        1532.00      6677.63
 1059.34        2956.50           2236        1528.00      6660.18
 1059.37        2956.75           2239        1567.00      6830.27
 1059.40        2957.00           2243        1573.00      6856.44
 1059.43        2957.25           2246        1601.00      6978.55
 1059.46        2957.50           2250        1579.00      6882.60
 1059.51        2957.75           2254        1628.00      7096.31
 1059.54        2958.00           2257        1602.00      6982.91
 1059.57        2958.25           2261        1581.00      6891.33
 1059.60        2958.50           2264        1623.00      7074.50
 1059.63        2958.75           2268        1639.00      7144.28
 1059.66        2959.00           2271        1643.00      7161.73
 1059.69        2959.25           2275        1693.00      7379.79
 1059.73        2959.50           2278        1683.00      7336.18
 1059.76        2959.75           2282        1682.00      7331.82
 1059.79        2960.00           2285        1757.00      7658.93
 1059.82        2960.25           2289        1716.00      7480.11
 1059.85        2960.50           2293        1800.00      7846.47
 1059.88        2960.75           2296        1806.00      7872.64
 1059.91        2961.00           2300        1861.00      8112.53
 1059.94        2961.25           2303        2041.00      8897.64
 1059.97        2961.50           2307        4314.00     18815.43
 1060.00        2961.75           2310       10649.00     46492.36
 1060.03        2962.00           2314       24427.00    106867.60
 1060.06        2962.25           2317       36042.00    157958.10
 1060.09        2962.50           2321       52550.00    230879.00
 1060.12        2962.75           2324       66325.00    292006.40
 1060.15        2963.00           2328       85755.00    378664.80
 1060.19        2963.25           2331      100715.00    445738.80
 1060.22        2963.50           2335      120836.00    536441.40
 1060.25        2963.75           2339      138738.00    617618.40
 1060.28        2964.00           2342      152929.00    682291.20
 1060.31        2964.25           2346      170468.00    762621.50
 1060.34        2964.50           2349      184513.00    827271.10
 1060.37        2964.75           2353      204584.00    920162.10
 1060.40        2965.00           2356      218948.00    987008.20
 1060.43        2965.25           2360      235773.00   1065702.00
 1060.46        2965.50           2363      249264.00   1129114.00
 1060.49        2965.75           2367      264452.00   1200838.00
 1060.52        2966.00           2370      276292.00   1256999.00
 1060.55        2966.25           2374      293046.00   1336847.00
 1060.58        2966.50           2378      308194.00   1409424.00
 1060.61        2966.75           2381      313455.00   1434717.00
 1060.64        2967.00           2385      316327.00   1448543.00
 1060.67        2967.25           2388      316598.00   1449848.00
 1060.71        2967.50           2392      317203.00   1452763.00
 1060.74        2967.75           2395      316535.00   1449545.00
 1060.77        2968.00           2399      315023.00   1442264.00
 1060.80        2968.25           2402      309383.00   1415136.00
 1060.83        2968.50           2406      294738.00   1344935.00
 1060.86        2968.75           2409      282684.00   1287410.00
 1060.89        2969.00           2413      266220.00   1209210.00
 1060.92        2969.25           2417      247436.00   1120506.00
 1060.95        2969.50           2420      235300.00   1063484.00
 1060.98        2969.75           2424      216570.00    975920.20
 1061.01        2970.00           2427      202481.00    910401.10
 1061.04        2970.25           2431      183607.00    823092.10
 1061.07        2970.50           2434      169200.00    756799.10
 1061.10        2970.75           2438      148778.00    663344.00
 1061.13        2971.00           2441      134688.00    599214.00
 1061.16        2971.25           2445      116183.00    515416.10
 1061.19        2971.50           2449       96767.00    428007.80
 1061.22        2971.75           2452       80773.00    356395.90
 1061.26        2972.00           2456       60540.00    266304.00
 1061.29        2972.25           2459       46446.00    203873.40
 1061.32        2972.50           2463       29205.00    127862.90
 1061.35        2972.75           2466       17679.00     77266.80
 1061.38        2973.00           2470        6373.00     27805.26
 1061.41        2973.25           2473        3258.00     14206.95
 1061.44        2973.50           2477        2013.00      8775.50
 1061.47        2973.75           2481        1890.00      8239.01
 1061.50        2974.00           2484        1795.00      7824.66
 1061.53        2974.25           2488        1756.00      7654.56
 1061.56        2974.50           2491        1716.00      7480.11
 1061.59        2974.75           2495        1725.00      7519.36
 1061.62        2975.00           2498        1684.00      7340.54
 1061.65        2975.25           2502        1695.00      7388.52
 1061.68        2975.50           2505        1678.00      7314.37
 1061.71        2975.75           2509        1634.00      7122.47
 1061.75        2976.00           2512        1598.00      6965.47
 1061.78        2976.25           2516        1550.00      6756.13
 1061.81        2976.50           2520        1598.00      6965.47
 1061.84        2976.75           2523        1571.00      6847.71
 1061.87        2977.00           2527        1507.00      6568.60
 1061.90        2977.25           2530        1537.00      6699.43
 1061.93        2977.50           2534        1506.00      6564.24
 1061.96        2977.75           2537        1530.00      6668.91
 1061.99        2978.00           2541        1500.00      6538.07
 1062.02        2978.25           2544        1478.00      6442.13
 1062.05        2978.50           2548        1471.00      6411.60
 1062.08        2978.75           2552        1483.00      6463.93
 1062.11        2979.00           2555        1437.00      6263.32
 1062.14        2979.25           2559        1505.00      6559.88
 1062.17        2979.50           2562        1439.00      6272.04
 1062.20        2979.75           2566        1460.00      6363.63
 1062.23        2980.00           2569        1429.00      6228.43
 1062.26        2980.25           2573        1412.00      6154.30
 1062.30        2980.50           2577        1433.00      6245.88
 1062.33        2980.75           2580        1400.00      6101.96
 1062.36        2981.00           2584        1397.00      6088.88
 1062.39        2981.25           2587        1389.00      6053.99
 1062.42        2981.50           2591        1385.00      6036.55
 1062.45        2981.75           2594        1389.00      6053.99
 1062.48        2982.00           2598        1360.00      5927.52
 1062.51        2982.25           2601        1380.00      6014.74
 1062.54        2982.50           2605        1394.00      6075.80
 1062.57        2982.75           2609        1352.00      5892.64
 1062.60        2983.00           2612        1336.00      5822.86
 1062.63        2983.25           2616        1341.00      5844.67
 1062.66        2983.50           2619        1339.00      5835.95
 1062.69        2983.75           2623        1404.00      6119.41
 1062.72        2984.00           2626        1355.00      5905.72
HS scan finished at 17:42:57
end
