************************************************************
  HS Scan of (1) Internal mercury lamp
************************************************************
Integration time is 0.2294 seconds per sample
dh031118Reading 51.44 .94 2.6pr1000
************************************************************
Dead Time -------------------------  3.4E-08 
Number of Cycles Used -------------  4 
Starting Wavelength (Angstroms) ---  2950 
Final Wavelength (Angstoms) -------  2984 
Wavelength Increment (Angstroms) --  .25 
Filter Wheel #1 Position ---------- (1) Ground quartz diffuser (ND=2.32)
Filter Wheel #2 Position ---------- (1) Neutral Density 0.494



************************************************************
HS scan start time = 04:17:27
Dark Count =  .6 


Time (GMT)  Wavelength (Ang)  Step Number  Raw Counts  Counts/Second

  258.35        2950.00           2144        1597.00      6960.67
  258.54        2950.25           2147        1600.00      6973.76
  258.57        2950.50           2151        1583.00      6899.61
  258.60        2950.75           2155        1596.00      6956.31
  258.63        2951.00           2158        1609.00      7013.01
  258.66        2951.25           2162        1576.00      6869.08
  258.69        2951.50           2165        1620.00      7060.98
  258.72        2951.75           2169        1629.00      7100.23
  258.75        2952.00           2172        1615.00      7039.17
  258.78        2952.25           2176        1588.00      6921.42
  258.81        2952.50           2179        1639.00      7143.85
  258.85        2952.75           2183        1652.00      7200.54
  258.88        2953.00           2186        1606.00      6999.92
  258.91        2953.25           2190        1594.00      6947.59
  258.94        2953.50           2193        1663.00      7248.52
  258.97        2953.75           2197        1635.00      7126.40
  259.00        2954.00           2200        1656.00      7217.99
  259.03        2954.25           2204        1673.00      7292.13
  259.06        2954.50           2208        1641.00      7152.57
  259.09        2954.75           2211        1645.00      7170.01
  259.12        2955.00           2215        1659.00      7231.07
  259.15        2955.25           2218        1681.00      7327.02
  259.18        2955.50           2222        1713.00      7466.59
  259.21        2955.75           2225        1710.00      7453.50
  259.24        2956.00           2229        1694.00      7383.72
  259.27        2956.25           2232        1717.00      7484.03
  259.30        2956.50           2236        1693.00      7379.36
  259.33        2956.75           2239        1773.00      7728.27
  259.37        2957.00           2243        1760.00      7671.57
  259.40        2957.25           2246        1756.00      7654.13
  259.43        2957.50           2250        1768.00      7706.47
  259.46        2957.75           2254        1785.00      7780.61
  259.49        2958.00           2257        1777.00      7745.72
  259.52        2958.25           2261        1844.00      8037.94
  259.55        2958.50           2264        1806.00      7872.20
  259.58        2958.75           2268        1819.00      7928.90
  259.61        2959.00           2271        1832.00      7985.60
  259.64        2959.25           2275        1829.00      7972.52
  259.67        2959.50           2278        1881.00      8199.32
  259.70        2959.75           2282        1880.00      8194.96
  259.73        2960.00           2285        1918.00      8360.70
  259.76        2960.25           2289        1942.00      8465.38
  259.79        2960.50           2293        1983.00      8644.21
  259.82        2960.75           2296        2013.00      8775.07
  259.85        2961.00           2300        2123.00      9254.87
  259.88        2961.25           2303        2544.00     11091.37
  259.92        2961.50           2307        6545.00     28556.05
  259.95        2961.75           2310       14621.00     63871.78
  259.98        2962.00           2314       29822.00    130575.80
  260.01        2962.25           2317       43602.00    191307.40
  260.04        2962.50           2321       62810.00    276383.60
  260.07        2962.75           2324       76605.00    337791.10
  260.10        2963.00           2328       95843.00    423860.60
  260.13        2963.25           2331      111063.00    492315.20
  260.16        2963.50           2335      132716.00    590260.50
  260.19        2963.75           2339      154045.00    687388.90
  260.22        2964.00           2342      169532.00    758323.00
  260.25        2964.25           2346      188747.00    846816.60
  260.28        2964.50           2349      202293.00    909528.50
  260.31        2964.75           2353      223414.00   1007854.00
  260.34        2965.00           2356      239324.00   1082366.00
  260.37        2965.25           2360      258557.00   1172956.00
  260.40        2965.50           2363      273302.00   1242795.00
  260.44        2965.75           2367      290930.00   1326737.00
  260.47        2966.00           2370      303755.00   1388117.00
  260.50        2966.25           2374      322080.00   1476278.00
  260.53        2966.50           2378      337274.00   1549790.00
  260.56        2966.75           2381      342656.00   1575920.00
  260.59        2967.00           2385      345133.00   1587962.00
  260.62        2967.25           2388      345252.00   1588541.00
  260.65        2967.50           2392      345698.00   1590711.00
  260.68        2967.75           2395      344618.00   1585458.00
  260.71        2968.00           2399      340872.00   1567254.00
  260.74        2968.25           2402      334470.00   1536195.00
  260.77        2968.50           2406      318962.00   1461239.00
  260.80        2968.75           2409      304969.00   1393941.00
  260.83        2969.00           2413      283443.00   1291025.00
  260.86        2969.25           2417      262804.00   1193037.00
  260.89        2969.50           2420      248156.00   1123895.00
  260.92        2969.75           2424      227913.00   1028886.00
  260.96        2970.00           2427      212901.00    958829.00
  260.99        2970.25           2431      190525.00    855032.50
  261.02        2970.50           2434      173574.00    776893.40
  261.05        2970.75           2438      152827.00    681824.90
  261.08        2971.00           2441      138319.00    615712.80
  261.11        2971.25           2445      117795.00    522696.20
  261.14        2971.50           2449       97994.00    433515.60
  261.17        2971.75           2452       83901.00    370373.20
  261.20        2972.00           2456       63729.00    280466.50
  261.23        2972.25           2459       47042.00    206507.60
  261.26        2972.50           2463       26657.00    116662.40
  261.29        2972.75           2466       14244.00     62221.30
  261.32        2973.00           2470        5166.00     22534.26
  261.35        2973.25           2473        2851.00     12430.71
  261.38        2973.50           2477        2137.00      9315.94
  261.41        2973.75           2481        2052.00      8945.18
  261.44        2974.00           2484        1991.00      8679.11
  261.49        2974.25           2488        1942.00      8465.38
  261.52        2974.50           2491        1927.00      8399.96
  261.55        2974.75           2495        1841.00      8024.86
  261.58        2975.00           2498        1830.00      7976.88
  261.61        2975.25           2502        1803.00      7859.12
  261.64        2975.50           2505        1792.00      7811.14
  261.67        2975.75           2509        1768.00      7706.47
  261.70        2976.00           2512        1773.00      7728.27
  261.74        2976.25           2516        1771.00      7719.55
  261.77        2976.50           2520        1744.00      7601.79
  261.80        2976.75           2523        1704.00      7427.33
  261.83        2977.00           2527        1730.00      7540.73
  261.86        2977.25           2530        1744.00      7601.79
  261.89        2977.50           2534        1661.00      7239.79
  261.92        2977.75           2537        1664.00      7252.88
  261.95        2978.00           2541        1641.00      7152.57
  261.98        2978.25           2544        1636.00      7130.76
  262.01        2978.50           2548        1597.00      6960.67
  262.04        2978.75           2552        1615.00      7039.17
  262.07        2979.00           2555        1618.00      7052.26
  262.10        2979.25           2559        1616.00      7043.54
  262.13        2979.50           2562        1595.00      6951.95
  262.16        2979.75           2566        1568.00      6834.19
  262.19        2980.00           2569        1575.00      6864.72
  262.22        2980.25           2573        1583.00      6899.61
  262.26        2980.50           2577        1535.00      6690.28
  262.29        2980.75           2580        1522.00      6633.58
  262.32        2981.00           2584        1535.00      6690.28
  262.35        2981.25           2587        1524.00      6642.30
  262.38        2981.50           2591        1511.00      6585.61
  262.41        2981.75           2594        1575.00      6864.72
  262.44        2982.00           2598        1512.00      6589.97
  262.47        2982.25           2601        1518.00      6616.14
  262.50        2982.50           2605        1536.00      6694.64
  262.53        2982.75           2609        1495.00      6515.83
  262.56        2983.00           2612        1486.00      6476.58
  262.59        2983.25           2616        1540.00      6712.08
  262.62        2983.50           2619        1468.00      6398.08
  262.65        2983.75           2623        1489.00      6489.66
  262.68        2984.00           2626        1492.00      6502.75
HS scan finished at 04:22:54
end
************************************************************
  HS Scan of (1) Internal mercury lamp
************************************************************
Integration time is 0.2294 seconds per sample
dh031118Reading 51.44 .94 3.03pr1000
************************************************************
Dead Time -------------------------  3.4E-08 
Number of Cycles Used -------------  4 
Starting Wavelength (Angstroms) ---  2950 
Final Wavelength (Angstoms) -------  2984 
Wavelength Increment (Angstroms) --  .25 
Filter Wheel #1 Position ---------- (1) Ground quartz diffuser (ND=2.32)
Filter Wheel #2 Position ---------- (1) Neutral Density 0.494



************************************************************
HS scan start time = 17:37:31
Dark Count =  1 


Time (GMT)  Wavelength (Ang)  Step Number  Raw Counts  Counts/Second

 1058.42        2950.00           2144        1284.00      5593.92
 1058.61        2950.25           2147        1265.00      5511.06
 1058.64        2950.50           2151        1282.00      5585.19
 1058.68        2950.75           2155        1285.00      5598.28
 1058.71        2951.00           2158        1320.00      5750.91
 1058.74        2951.25           2162        1275.00      5554.67
 1058.77        2951.50           2165        1284.00      5593.92
 1058.80        2951.75           2169        1272.00      5541.59
 1058.83        2952.00           2172        1314.00      5724.74
 1058.86        2952.25           2176        1311.00      5711.66
 1058.89        2952.50           2179        1312.00      5716.02
 1058.92        2952.75           2183        1292.00      5628.80
 1058.95        2953.00           2186        1284.00      5593.92
 1058.98        2953.25           2190        1282.00      5585.19
 1059.01        2953.50           2193        1315.00      5729.10
 1059.04        2953.75           2197        1349.00      5877.37
 1059.07        2954.00           2200        1323.00      5763.99
 1059.10        2954.25           2204        1331.00      5798.88
 1059.13        2954.50           2208        1347.00      5868.65
 1059.16        2954.75           2211        1365.00      5947.15
 1059.20        2955.00           2215        1350.00      5881.73
 1059.23        2955.25           2218        1374.00      5986.40
 1059.27        2955.50           2222        1350.00      5881.73
 1059.30        2955.75           2225        1408.00      6134.67
 1059.33        2956.00           2229        1381.00      6016.92
 1059.36        2956.25           2232        1364.00      5942.79
 1059.39        2956.50           2236        1372.00      5977.68
 1059.42        2956.75           2239        1397.00      6086.70
 1059.45        2957.00           2243        1450.00      6317.84
 1059.49        2957.25           2246        1424.00      6204.45
 1059.52        2957.50           2250        1407.00      6130.31
 1059.55        2957.75           2254        1441.00      6278.59
 1059.58        2958.00           2257        1409.00      6139.03
 1059.61        2958.25           2261        1467.00      6391.97
 1059.64        2958.50           2264        1481.00      6453.03
 1059.67        2958.75           2268        1507.00      6566.42
 1059.70        2959.00           2271        1496.00      6518.45
 1059.73        2959.25           2275        1484.00      6466.11
 1059.76        2959.50           2278        1602.00      6980.73
 1059.79        2959.75           2282        1544.00      6727.78
 1059.82        2960.00           2285        1578.00      6876.06
 1059.85        2960.25           2289        1599.00      6967.65
 1059.88        2960.50           2293        1648.00      7181.35
 1059.91        2960.75           2296        1660.00      7233.69
 1059.94        2961.00           2300        1777.00      7743.97
 1059.98        2961.25           2303        1883.00      8206.30
 1060.01        2961.50           2307        4319.00     18835.08
 1060.04        2961.75           2310       11353.00     49569.09
 1060.07        2962.00           2314       26162.00    114485.70
 1060.10        2962.25           2317       38267.00    167763.30
 1060.13        2962.50           2321       55251.00    242842.50
 1060.16        2962.75           2324       67825.00    298676.00
 1060.19        2963.00           2328       86969.00    384094.10
 1060.22        2963.25           2331      102589.00    454160.50
 1060.25        2963.50           2335      123545.00    548694.10
 1060.28        2963.75           2339      141416.00    629798.60
 1060.31        2964.00           2342      156096.00    696761.30
 1060.34        2964.25           2346      174000.00    778850.10
 1060.37        2964.50           2349      188683.00    846519.10
 1060.40        2964.75           2353      208166.00    936800.50
 1060.43        2965.00           2356      222571.00   1003915.00
 1060.46        2965.25           2360      241319.00   1091734.00
 1060.49        2965.50           2363      254731.00   1154888.00
 1060.53        2965.75           2367      270978.00   1231763.00
 1060.56        2966.00           2370      283943.00   1293405.00
 1060.59        2966.25           2374      299535.00   1367889.00
 1060.62        2966.50           2378      311863.00   1427056.00
 1060.65        2966.75           2381      315921.00   1446585.00
 1060.68        2967.00           2385      317336.00   1453401.00
 1060.71        2967.25           2388      317739.00   1455343.00
 1060.74        2967.50           2392      317809.00   1455680.00
 1060.77        2967.75           2395      317153.00   1452520.00
 1060.80        2968.00           2399      313462.00   1434748.00
 1060.83        2968.25           2402      306013.00   1398949.00
 1060.86        2968.50           2406      290797.00   1326100.00
 1060.89        2968.75           2409      278128.00   1265725.00
 1060.92        2969.00           2413      261513.00   1186928.00
 1060.95        2969.25           2417      244419.00   1106307.00
 1060.98        2969.50           2420      231869.00   1047402.00
 1061.01        2969.75           2424      213105.00    959776.90
 1061.05        2970.00           2427      199383.00    896031.60
 1061.08        2970.25           2431      180201.00    807390.00
 1061.11        2970.50           2434      165663.00    740567.60
 1061.14        2970.75           2438      146294.00    652015.30
 1061.17        2971.00           2441      132238.00    588089.40
 1061.20        2971.25           2445      113505.00    503326.60
 1061.23        2971.50           2449       95541.00    422503.70
 1061.26        2971.75           2452       82099.00    362317.40
 1061.29        2972.00           2456       64909.00    285708.80
 1061.32        2972.25           2459       50784.00    223058.50
 1061.35        2972.50           2463       31575.00    138286.00
 1061.39        2972.75           2466       17994.00     78645.06
 1061.42        2973.00           2470        6233.00     27191.65
 1061.45        2973.25           2473        3258.00     14204.77
 1061.48        2973.50           2477        1947.00      8485.45
 1061.51        2973.75           2481        1715.00      7473.56
 1061.54        2974.00           2484        1700.00      7408.14
 1061.57        2974.25           2488        1628.00      7094.13
 1061.61        2974.50           2491        1593.00      6941.48
 1061.64        2974.75           2495        1560.00      6797.56
 1061.67        2975.00           2498        1500.00      6535.89
 1061.71        2975.25           2502        1539.00      6705.98
 1061.74        2975.50           2505        1510.00      6579.50
 1061.77        2975.75           2509        1508.00      6570.78
 1061.80        2976.00           2512        1477.00      6435.58
 1061.83        2976.25           2516        1440.00      6274.22
 1061.86        2976.50           2520        1436.00      6256.78
 1061.89        2976.75           2523        1467.00      6391.97
 1061.92        2977.00           2527        1416.00      6169.56
 1061.95        2977.25           2530        1408.00      6134.67
 1061.98        2977.50           2534        1358.00      5916.62
 1062.01        2977.75           2537        1360.00      5925.34
 1062.04        2978.00           2541        1370.00      5968.95
 1062.07        2978.25           2544        1338.00      5829.40
 1062.10        2978.50           2548        1322.00      5759.63
 1062.13        2978.75           2552        1295.00      5641.88
 1062.16        2979.00           2555        1323.00      5763.99
 1062.19        2979.25           2559        1313.00      5720.38
 1062.23        2979.50           2562        1298.00      5654.97
 1062.26        2979.75           2566        1323.00      5763.99
 1062.29        2980.00           2569        1317.00      5737.82
 1062.32        2980.25           2573        1259.00      5484.89
 1062.35        2980.50           2577        1266.00      5515.42
 1062.38        2980.75           2580        1290.00      5620.08
 1062.41        2981.00           2584        1246.00      5428.20
 1062.44        2981.25           2587        1241.00      5406.40
 1062.47        2981.50           2591        1275.00      5554.67
 1062.50        2981.75           2594        1249.00      5441.29
 1062.53        2982.00           2598        1232.00      5367.15
 1062.56        2982.25           2601        1257.00      5476.17
 1062.59        2982.50           2605        1241.00      5406.40
 1062.62        2982.75           2609        1229.00      5354.07
 1062.65        2983.00           2612        1240.00      5402.04
 1062.68        2983.25           2616        1232.00      5367.15
 1062.71        2983.50           2619        1230.00      5358.43
 1062.75        2983.75           2623        1213.00      5284.30
 1062.78        2984.00           2626        1187.00      5170.92
HS scan finished at 17:43:00
end
