************************************************************
  HS Scan of (1) Internal mercury lamp
************************************************************
Integration time is 0.2294 seconds per sample
dh021117Reading 51.44 .94 2.64pr1000
************************************************************
Dead Time -------------------------  3.4E-08 
Number of Cycles Used -------------  4 
Starting Wavelength (Angstroms) ---  2950 
Final Wavelength (Angstoms) -------  2984 
Wavelength Increment (Angstroms) --  .25 
Filter Wheel #1 Position ---------- (1) Ground quartz diffuser (ND=2.32)
Filter Wheel #2 Position ---------- (1) Neutral Density 0.494



************************************************************
HS scan start time = 04:16:11
Dark Count =  .4 


Time (GMT)  Wavelength (Ang)  Step Number  Raw Counts  Counts/Second

  257.09        2950.00           2144          91.00       394.95
  257.28        2950.25           2147          96.00       416.75
  257.31        2950.50           2151         114.00       495.21
  257.34        2950.75           2155          95.00       412.39
  257.37        2951.00           2158          98.00       425.46
  257.40        2951.25           2162          83.00       360.07
  257.43        2951.50           2165          93.00       403.67
  257.47        2951.75           2169          93.00       403.67
  257.50        2952.00           2172          88.00       381.87
  257.53        2952.25           2176         112.00       486.49
  257.56        2952.50           2179         100.00       434.18
  257.59        2952.75           2183          88.00       381.87
  257.62        2953.00           2186          92.00       399.31
  257.65        2953.25           2190          94.00       408.03
  257.68        2953.50           2193         100.00       434.18
  257.71        2953.75           2197          92.00       399.31
  257.74        2954.00           2200          89.00       386.23
  257.77        2954.25           2204          93.00       403.67
  257.80        2954.50           2208         103.00       447.26
  257.83        2954.75           2211         134.00       582.40
  257.86        2955.00           2215         101.00       438.54
  257.89        2955.25           2218          96.00       416.75
  257.92        2955.50           2222         105.00       455.98
  257.95        2955.75           2225          97.00       421.10
  257.98        2956.00           2229         115.00       499.57
  258.02        2956.25           2232         121.00       525.73
  258.05        2956.50           2236         104.00       451.62
  258.08        2956.75           2239         100.00       434.18
  258.11        2957.00           2243         132.00       573.68
  258.14        2957.25           2246         107.00       464.70
  258.17        2957.50           2250         103.00       447.26
  258.20        2957.75           2254          99.00       429.82
  258.23        2958.00           2257         116.00       503.93
  258.26        2958.25           2261         101.00       438.54
  258.29        2958.50           2264         100.00       434.18
  258.32        2958.75           2268         113.00       490.85
  258.35        2959.00           2271         130.00       564.96
  258.38        2959.25           2275         110.00       477.78
  258.41        2959.50           2278         148.00       643.43
  258.44        2959.75           2282         114.00       495.21
  258.47        2960.00           2285         117.00       508.29
  258.50        2960.25           2289         138.00       599.84
  258.54        2960.50           2293         150.00       652.15
  258.57        2960.75           2296         142.00       617.28
  258.60        2961.00           2300         160.00       695.74
  258.63        2961.25           2303         301.00      1310.43
  258.66        2961.50           2307        1087.00      4737.47
  258.69        2961.75           2310        2080.00      9068.18
  258.72        2962.00           2314        3648.00     15909.22
  258.75        2962.25           2317        4782.00     20858.73
  258.78        2962.50           2321        6242.00     27233.58
  258.81        2962.75           2324        7310.00     31898.57
  258.84        2963.00           2328        9022.00     39379.63
  258.87        2963.25           2331       10565.00     46125.47
  258.90        2963.50           2335       12109.00     52878.77
  258.93        2963.75           2339       13863.00     60554.37
  258.96        2964.00           2342       15220.00     66495.41
  258.99        2964.25           2346       16716.00     73047.81
  259.02        2964.50           2349       18154.00     79348.93
  259.06        2964.75           2353       19778.00     86468.31
  259.09        2965.00           2356       21116.00     92336.51
  259.12        2965.25           2360       22478.00     98312.38
  259.15        2965.50           2363       23828.00    104238.00
  259.18        2965.75           2367       25282.00    110622.80
  259.21        2966.00           2370       26560.00    116237.00
  259.24        2966.25           2374       28503.00    124776.70
  259.27        2966.50           2378       28861.00    126350.70
  259.30        2966.75           2381       28857.00    126333.10
  259.33        2967.00           2385       28565.00    125049.30
  259.36        2967.25           2388       28432.00    124464.60
  259.39        2967.50           2392       28808.00    126117.70
  259.42        2967.75           2395       28236.00    123602.90
  259.45        2968.00           2399       27099.00    118605.50
  259.48        2968.25           2402       26112.00    114268.70
  259.51        2968.50           2406       24271.00    106183.00
  259.54        2968.75           2409       23400.00    102359.10
  259.58        2969.00           2413       21543.00     94209.74
  259.61        2969.25           2417       20227.00     88437.27
  259.64        2969.50           2420       18934.00     82767.91
  259.67        2969.75           2424       17423.00     76145.45
  259.70        2970.00           2427       16174.00     70673.54
  259.73        2970.25           2431       14765.00     64503.12
  259.76        2970.50           2434       13414.00     58589.13
  259.79        2970.75           2438       11658.00     50905.82
  259.82        2971.00           2441       10226.00     44643.12
  259.85        2971.25           2445        8614.00     37596.42
  259.88        2971.50           2449        7215.00     31483.55
  259.91        2971.75           2452        6079.00     26521.73
  259.94        2972.00           2456        4529.00     19754.33
  259.97        2972.25           2459        3267.00     14246.66
  260.00        2972.50           2463        1775.00      7737.87
  260.03        2972.75           2466         868.00      3782.53
  260.06        2973.00           2470         252.00      1096.82
  260.10        2973.25           2473         181.00       787.29
  260.13        2973.50           2477         162.00       704.46
  260.16        2973.75           2481         116.00       503.93
  260.19        2974.00           2484         156.00       678.31
  260.22        2974.25           2488         135.00       586.76
  260.25        2974.50           2491         128.00       556.24
  260.28        2974.75           2495         144.00       625.99
  260.31        2975.00           2498         110.00       477.78
  260.34        2975.25           2502         113.00       490.85
  260.37        2975.50           2505          98.00       425.46
  260.40        2975.75           2509         124.00       538.81
  260.43        2976.00           2512         142.00       617.28
  260.46        2976.25           2516         111.00       482.14
  260.49        2976.50           2520         153.00       665.23
  260.52        2976.75           2523         121.00       525.73
  260.55        2977.00           2527         119.00       517.01
  260.58        2977.25           2530         105.00       455.98
  260.62        2977.50           2534         115.00       499.57
  260.65        2977.75           2537          98.00       425.46
  260.68        2978.00           2541         110.00       477.78
  260.71        2978.25           2544          99.00       429.82
  260.74        2978.50           2548          99.00       429.82
  260.77        2978.75           2552         105.00       455.98
  260.80        2979.00           2555          94.00       408.03
  260.83        2979.25           2559         121.00       525.73
  260.86        2979.50           2562          98.00       425.46
  260.89        2979.75           2566          91.00       394.95
  260.92        2980.00           2569         114.00       495.21
  260.95        2980.25           2573         103.00       447.26
  260.98        2980.50           2577          97.00       421.10
  261.01        2980.75           2580          95.00       412.39
  261.04        2981.00           2584          93.00       403.67
  261.07        2981.25           2587          88.00       381.87
  261.10        2981.50           2591          86.00       373.15
  261.13        2981.75           2594          99.00       429.82
  261.17        2982.00           2598          88.00       381.87
  261.20        2982.25           2601          83.00       360.07
  261.23        2982.50           2605          95.00       412.39
  261.26        2982.75           2609          83.00       360.07
  261.29        2983.00           2612          95.00       412.39
  261.32        2983.25           2616          92.00       399.31
  261.35        2983.50           2619          88.00       381.87
  261.38        2983.75           2623          86.00       373.15
  261.41        2984.00           2626          88.00       381.87
HS scan finished at 04:21:38
end
************************************************************
  HS Scan of (1) Internal mercury lamp
************************************************************
Integration time is 0.2294 seconds per sample
dh021117Reading 51.44 .94 3.35pr1000
************************************************************
Dead Time -------------------------  3.4E-08 
Number of Cycles Used -------------  4 
Starting Wavelength (Angstroms) ---  2950 
Final Wavelength (Angstoms) -------  2984 
Wavelength Increment (Angstroms) --  .25 
Filter Wheel #1 Position ---------- (1) Ground quartz diffuser (ND=2.32)
Filter Wheel #2 Position ---------- (1) Neutral Density 0.494



************************************************************
HS scan start time = 17:37:29
Dark Count =  1.6 


Time (GMT)  Wavelength (Ang)  Step Number  Raw Counts  Counts/Second

 1058.38        2950.00           2144          98.00       420.23
 1058.57        2950.25           2147          92.00       394.08
 1058.60        2950.50           2151          98.00       420.23
 1058.63        2950.75           2155          96.00       411.51
 1058.66        2951.00           2158         120.00       516.14
 1058.69        2951.25           2162          99.00       424.59
 1058.72        2951.50           2165          85.00       363.56
 1058.75        2951.75           2169         122.00       524.86
 1058.78        2952.00           2172         126.00       542.29
 1058.81        2952.25           2176         100.00       428.95
 1058.84        2952.50           2179         134.00       577.17
 1058.88        2952.75           2183          96.00       411.51
 1058.91        2953.00           2186         104.00       446.39
 1058.94        2953.25           2190         106.00       455.11
 1058.97        2953.50           2193         104.00       446.39
 1059.00        2953.75           2197         107.00       459.47
 1059.03        2954.00           2200         150.00       646.92
 1059.06        2954.25           2204         126.00       542.29
 1059.09        2954.50           2208         105.00       450.75
 1059.12        2954.75           2211         112.00       481.26
 1059.15        2955.00           2215         140.00       603.33
 1059.18        2955.25           2218         107.00       459.47
 1059.21        2955.50           2222         124.00       533.58
 1059.24        2955.75           2225         131.00       564.09
 1059.27        2956.00           2229         112.00       481.26
 1059.30        2956.25           2232         133.00       572.81
 1059.33        2956.50           2236         135.00       581.53
 1059.37        2956.75           2239         140.00       603.33
 1059.40        2957.00           2243         142.00       612.04
 1059.43        2957.25           2246         126.00       542.29
 1059.46        2957.50           2250         144.00       620.76
 1059.49        2957.75           2254         140.00       603.33
 1059.52        2958.00           2257         134.00       577.17
 1059.55        2958.25           2261         142.00       612.04
 1059.58        2958.50           2264         115.00       494.34
 1059.61        2958.75           2268         127.00       546.65
 1059.64        2959.00           2271         133.00       572.81
 1059.67        2959.25           2275         126.00       542.29
 1059.70        2959.50           2278         141.00       607.68
 1059.73        2959.75           2282         141.00       607.68
 1059.76        2960.00           2285         139.00       598.97
 1059.79        2960.25           2289         157.00       677.43
 1059.82        2960.50           2293         163.00       703.59
 1059.85        2960.75           2296         162.00       699.23
 1059.89        2961.00           2300         260.00      1126.46
 1059.92        2961.25           2303         501.00      2177.14
 1059.95        2961.50           2307        1794.00      7815.50
 1059.98        2961.75           2310        3229.00     14075.61
 1060.01        2962.00           2314        5539.00     24158.46
 1060.04        2962.25           2317        7622.00     33256.42
 1060.07        2962.50           2321       10418.00     45477.42
 1060.10        2962.75           2324       12266.00     53560.40
 1060.13        2963.00           2328       14569.00     63639.74
 1060.16        2963.25           2331       16517.00     72170.78
 1060.19        2963.50           2335       19269.00     84231.30
 1060.22        2963.75           2339       22368.00     97824.39
 1060.25        2964.00           2342       24407.00    106774.90
 1060.28        2964.25           2346       27126.00    118718.90
 1060.31        2964.50           2349       28943.00    126706.00
 1060.34        2964.75           2353       31580.00    138305.30
 1060.37        2965.00           2356       33718.00    147716.50
 1060.40        2965.25           2360       36140.00    158385.10
 1060.44        2965.50           2363       38271.00    167778.30
 1060.47        2965.75           2367       40839.00    179105.70
 1060.50        2966.00           2370       42555.00    186679.80
 1060.53        2966.25           2374       44513.00    195326.90
 1060.56        2966.50           2378       45425.00    199356.30
 1060.59        2966.75           2381       45660.00    200394.70
 1060.62        2967.00           2385       45814.00    201075.30
 1060.65        2967.25           2388       45555.00    199930.70
 1060.68        2967.50           2392       45691.00    200531.70
 1060.72        2967.75           2395       45427.00    199365.10
 1060.76        2968.00           2399       43763.00    192014.10
 1060.79        2968.25           2402       42283.00    185479.00
 1060.82        2968.50           2406       39835.00    174676.00
 1060.85        2968.75           2409       37780.00    165613.40
 1060.88        2969.00           2413       35092.00    153767.80
 1060.91        2969.25           2417       32720.00    143322.70
 1060.94        2969.50           2420       30849.00    135089.00
 1060.97        2969.75           2424       28247.00    123646.00
 1061.00        2970.00           2427       26231.00    114786.30
 1061.03        2970.25           2431       23480.00    102705.00
 1061.06        2970.50           2434       21493.00     93985.12
 1061.09        2970.75           2438       18894.00     82587.29
 1061.12        2971.00           2441       16603.00     72547.52
 1061.15        2971.25           2445       13972.00     61026.24
 1061.18        2971.50           2449       11426.00     49885.76
 1061.22        2971.75           2452        9465.00     41310.82
 1061.25        2972.00           2456        7223.00     31513.26
 1061.28        2972.25           2459        5403.00     23564.65
 1061.31        2972.50           2463        2933.00     12784.11
 1061.34        2972.75           2466        1286.00      5600.02
 1061.37        2973.00           2470         349.00      1514.46
 1061.40        2973.25           2473         225.00       973.88
 1061.43        2973.50           2477         171.00       738.47
 1061.46        2973.75           2481         166.00       716.67
 1061.49        2974.00           2484         172.00       742.83
 1061.52        2974.25           2488         154.00       664.36
 1061.55        2974.50           2491         155.00       668.72
 1061.58        2974.75           2495         153.00       660.00
 1061.61        2975.00           2498         155.00       668.72
 1061.64        2975.25           2502         142.00       612.04
 1061.67        2975.50           2505         141.00       607.68
 1061.70        2975.75           2509         165.00       712.31
 1061.74        2976.00           2512         149.00       642.56
 1061.77        2976.25           2516         143.00       616.40
 1061.80        2976.50           2520         147.00       633.84
 1061.83        2976.75           2523         148.00       638.20
 1061.86        2977.00           2527         157.00       677.43
 1061.89        2977.25           2530         125.00       537.93
 1061.92        2977.50           2534         120.00       516.14
 1061.95        2977.75           2537         117.00       503.06
 1061.98        2978.00           2541         119.00       511.78
 1062.01        2978.25           2544         125.00       537.93
 1062.04        2978.50           2548         145.00       625.12
 1062.07        2978.75           2552         110.00       472.54
 1062.10        2979.00           2555         127.00       546.65
 1062.13        2979.25           2559         143.00       616.40
 1062.16        2979.50           2562         125.00       537.93
 1062.19        2979.75           2566         123.00       529.22
 1062.22        2980.00           2569         113.00       485.62
 1062.26        2980.25           2573         125.00       537.93
 1062.29        2980.50           2577         106.00       455.11
 1062.32        2980.75           2580         127.00       546.65
 1062.35        2981.00           2584         130.00       559.73
 1062.38        2981.25           2587         124.00       533.58
 1062.41        2981.50           2591         118.00       507.42
 1062.44        2981.75           2594         102.00       437.67
 1062.47        2982.00           2598         139.00       598.97
 1062.50        2982.25           2601         103.00       442.03
 1062.53        2982.50           2605         119.00       511.78
 1062.56        2982.75           2609          97.00       415.87
 1062.59        2983.00           2612          95.00       407.15
 1062.62        2983.25           2616         107.00       459.47
 1062.65        2983.50           2619          94.00       402.80
 1062.68        2983.75           2623          98.00       420.23
 1062.71        2984.00           2626          82.00       350.48
HS scan finished at 17:42:56
end
