************************************************************
  HS Scan of (1) Internal mercury lamp
************************************************************
Integration time is 0.2294 seconds per sample
dh311018Reading 51.44 .94 2.35pr1000
************************************************************
Dead Time -------------------------  3.4E-08 
Number of Cycles Used -------------  4 
Starting Wavelength (Angstroms) ---  2950 
Final Wavelength (Angstoms) -------  2984 
Wavelength Increment (Angstroms) --  .25 
Filter Wheel #1 Position ---------- (1) Ground quartz diffuser (ND=2.32)
Filter Wheel #2 Position ---------- (1) Neutral Density 0.494



************************************************************
HS scan start time = 04:15:33
Dark Count =  .3 


Time (GMT)  Wavelength (Ang)  Step Number  Raw Counts  Counts/Second

  256.46        2950.00           2144        1612.00      7027.40
  256.65        2950.25           2147        1583.00      6900.92
  256.68        2950.50           2151        1628.00      7097.18
  256.71        2950.75           2155        1608.00      7009.95
  256.74        2951.00           2158        1604.00      6992.51
  256.77        2951.25           2162        1667.00      7267.27
  256.80        2951.50           2165        1625.00      7084.09
  256.83        2951.75           2169        1654.00      7210.57
  256.86        2952.00           2172        1645.00      7171.32
  256.90        2952.25           2176        1663.00      7249.83
  256.93        2952.50           2179        1631.00      7110.26
  256.96        2952.75           2183        1638.00      7140.79
  256.99        2953.00           2186        1636.00      7132.07
  257.02        2953.25           2190        1642.00      7158.24
  257.05        2953.50           2193        1652.00      7201.85
  257.08        2953.75           2197        1644.00      7166.96
  257.11        2954.00           2200        1638.00      7140.79
  257.14        2954.25           2204        1669.00      7275.99
  257.17        2954.50           2208        1667.00      7267.27
  257.20        2954.75           2211        1654.00      7210.57
  257.23        2955.00           2215        1695.00      7389.39
  257.26        2955.25           2218        1679.00      7319.61
  257.29        2955.50           2222        1702.00      7419.92
  257.32        2955.75           2225        1704.00      7428.64
  257.35        2956.00           2229        1742.00      7594.38
  257.38        2956.25           2232        1730.00      7542.04
  257.42        2956.50           2236        1745.00      7607.46
  257.45        2956.75           2239        1752.00      7637.99
  257.48        2957.00           2243        1756.00      7655.44
  257.51        2957.25           2246        1759.00      7668.52
  257.54        2957.50           2250        1736.00      7568.21
  257.57        2957.75           2254        1762.00      7681.61
  257.60        2958.00           2257        1759.00      7668.52
  257.63        2958.25           2261        1796.00      7829.90
  257.66        2958.50           2264        1808.00      7882.23
  257.69        2958.75           2268        1819.00      7930.21
  257.72        2959.00           2271        1825.00      7956.38
  257.75        2959.25           2275        1842.00      8030.53
  257.78        2959.50           2278        1811.00      7895.32
  257.81        2959.75           2282        1893.00      8252.97
  257.84        2960.00           2285        1917.00      8357.65
  257.87        2960.25           2289        1937.00      8444.88
  257.90        2960.50           2293        1922.00      8379.46
  257.94        2960.75           2296        1968.00      8580.10
  257.97        2961.00           2300        2129.00      9282.35
  258.00        2961.25           2303        2573.00     11219.19
  258.03        2961.50           2307        7327.00     31973.28
  258.06        2961.75           2310       16072.00     70227.21
  258.09        2962.00           2314       30714.00    134500.80
  258.12        2962.25           2317       41618.00    182549.30
  258.15        2962.50           2321       59283.00    260726.10
  258.18        2962.75           2324       73985.00    326109.80
  258.21        2963.00           2328       95201.00    420981.50
  258.24        2963.25           2331      110247.00    488638.30
  258.27        2963.50           2335      128099.00    569322.00
  258.30        2963.75           2339      147030.00    655373.60
  258.33        2964.00           2342      162186.00    724634.80
  258.36        2964.25           2346      182132.00    816292.00
  258.39        2964.50           2349      196112.00    880880.90
  258.42        2964.75           2353      216590.00    976014.40
  258.46        2965.00           2356      229414.00   1035911.00
  258.49        2965.25           2360      247738.00   1121928.00
  258.52        2965.50           2363      260652.00   1182860.00
  258.55        2965.75           2367      278142.00   1265795.00
  258.58        2966.00           2370      289513.00   1319973.00
  258.61        2966.25           2374      305402.00   1396020.00
  258.64        2966.50           2378      316276.00   1448298.00
  258.67        2966.75           2381      320057.00   1466521.00
  258.70        2967.00           2385      320889.00   1470534.00
  258.73        2967.25           2388      321332.00   1472671.00
  258.76        2967.50           2392      320343.00   1467900.00
  258.79        2967.75           2395      320341.00   1467890.00
  258.82        2968.00           2399      313197.00   1433476.00
  258.85        2968.25           2402      302502.00   1382110.00
  258.88        2968.50           2406      287064.00   1308287.00
  258.91        2968.75           2409      274986.00   1250795.00
  258.94        2969.00           2413      258094.00   1170770.00
  258.98        2969.25           2417      239963.00   1085368.00
  259.01        2969.50           2420      226607.00   1022779.00
  259.04        2969.75           2424      209656.00    943731.50
  259.07        2970.00           2427      194451.00    873191.90
  259.10        2970.25           2431      175120.00    784003.90
  259.13        2970.50           2434      160325.00    716112.40
  259.16        2970.75           2438      142111.00    632965.10
  259.19        2971.00           2441      127899.00    568415.60
  259.22        2971.25           2445      110742.00    490869.40
  259.25        2971.50           2449       92727.00    409886.70
  259.28        2971.75           2452       78614.00    346756.90
  259.31        2972.00           2456       58812.00    258636.20
  259.34        2972.25           2459       43821.00    192276.00
  259.37        2972.50           2463       26142.00    114401.00
  259.40        2972.75           2466       14853.00     64888.87
  259.43        2973.00           2470        5312.00     23173.01
  259.46        2973.25           2473        2917.00     12719.97
  259.49        2973.50           2477        2071.00      9029.36
  259.53        2973.75           2481        2017.00      8793.82
  259.56        2974.00           2484        1946.00      8484.14
  259.60        2974.25           2488        1913.00      8340.20
  259.63        2974.50           2491        1830.00      7978.19
  259.66        2974.75           2495        1805.00      7869.15
  259.69        2975.00           2498        1799.00      7842.98
  259.72        2975.25           2502        1815.00      7912.76
  259.75        2975.50           2505        1739.00      7581.29
  259.79        2975.75           2509        1756.00      7655.44
  259.82        2976.00           2512        1723.00      7511.51
  259.85        2976.25           2516        1758.00      7664.16
  259.88        2976.50           2520        1680.00      7323.97
  259.91        2976.75           2523        1668.00      7271.63
  259.94        2977.00           2527        1669.00      7275.99
  259.97        2977.25           2530        1668.00      7271.63
  260.00        2977.50           2534        1657.00      7223.66
  260.03        2977.75           2537        1669.00      7275.99
  260.06        2978.00           2541        1627.00      7092.82
  260.09        2978.25           2544        1626.00      7088.46
  260.12        2978.50           2548        1597.00      6961.98
  260.16        2978.75           2552        1589.00      6927.09
  260.20        2979.00           2555        1606.00      7001.23
  260.23        2979.25           2559        1575.00      6866.03
  260.26        2979.50           2562        1560.00      6800.61
  260.29        2979.75           2566        1520.00      6626.17
  260.32        2980.00           2569        1565.00      6822.42
  260.35        2980.25           2573        1581.00      6892.20
  260.38        2980.50           2577        1580.00      6887.84
  260.41        2980.75           2580        1534.00      6687.22
  260.44        2981.00           2584        1518.00      6617.44
  260.47        2981.25           2587        1500.00      6538.94
  260.50        2981.50           2591        1515.00      6604.36
  260.53        2981.75           2594        1485.00      6473.53
  260.57        2982.00           2598        1475.00      6429.91
  260.60        2982.25           2601        1500.00      6538.94
  260.63        2982.50           2605        1496.00      6521.50
  260.66        2982.75           2609        1509.00      6578.19
  260.69        2983.00           2612        1492.00      6504.05
  260.72        2983.25           2616        1503.00      6552.03
  260.75        2983.50           2619        1466.00      6390.67
  260.78        2983.75           2623        1451.00      6325.25
  260.81        2984.00           2626        1463.00      6377.58
HS scan finished at 04:21:02
end
************************************************************
  HS Scan of (1) Internal mercury lamp
************************************************************
Integration time is 0.2294 seconds per sample
dh311018Reading 51.44 .94 3.05pr1000
************************************************************
Dead Time -------------------------  3.4E-08 
Number of Cycles Used -------------  4 
Starting Wavelength (Angstroms) ---  2950 
Final Wavelength (Angstoms) -------  2984 
Wavelength Increment (Angstroms) --  .25 
Filter Wheel #1 Position ---------- (1) Ground quartz diffuser (ND=2.32)
Filter Wheel #2 Position ---------- (1) Neutral Density 0.494



************************************************************
HS scan start time = 17:37:31
Dark Count =  1.2 


Time (GMT)  Wavelength (Ang)  Step Number  Raw Counts  Counts/Second

 1058.42        2950.00           2144        1276.00      5558.16
 1058.61        2950.25           2147        1279.00      5571.24
 1058.64        2950.50           2151        1247.00      5431.69
 1058.67        2950.75           2155        1279.00      5571.24
 1058.70        2951.00           2158        1256.00      5470.94
 1058.73        2951.25           2162        1292.00      5627.93
 1058.76        2951.50           2165        1276.00      5558.16
 1058.79        2951.75           2169        1283.00      5588.68
 1058.82        2952.00           2172        1321.00      5754.40
 1058.85        2952.25           2176        1293.00      5632.29
 1058.89        2952.50           2179        1305.00      5684.62
 1058.92        2952.75           2183        1274.00      5549.43
 1058.95        2953.00           2186        1322.00      5758.76
 1058.98        2953.25           2190        1339.00      5832.89
 1059.01        2953.50           2193        1292.00      5627.93
 1059.04        2953.75           2197        1326.00      5776.20
 1059.07        2954.00           2200        1316.00      5732.59
 1059.10        2954.25           2204        1310.00      5706.43
 1059.13        2954.50           2208        1298.00      5654.10
 1059.16        2954.75           2211        1304.00      5680.26
 1059.19        2955.00           2215        1341.00      5841.61
 1059.22        2955.25           2218        1310.00      5706.43
 1059.25        2955.50           2222        1339.00      5832.89
 1059.28        2955.75           2225        1362.00      5933.19
 1059.31        2956.00           2229        1374.00      5985.53
 1059.34        2956.25           2232        1384.00      6029.14
 1059.37        2956.50           2236        1363.00      5937.55
 1059.41        2956.75           2239        1358.00      5915.75
 1059.44        2957.00           2243        1395.00      6077.11
 1059.47        2957.25           2246        1416.00      6168.69
 1059.50        2957.50           2250        1445.00      6295.16
 1059.53        2957.75           2254        1426.00      6212.30
 1059.56        2958.00           2257        1442.00      6282.07
 1059.59        2958.25           2261        1448.00      6308.24
 1059.62        2958.50           2264        1492.00      6500.13
 1059.65        2958.75           2268        1481.00      6452.16
 1059.68        2959.00           2271        1489.00      6487.05
 1059.71        2959.25           2275        1501.00      6539.38
 1059.74        2959.50           2278        1536.00      6692.02
 1059.77        2959.75           2282        1511.00      6582.99
 1059.80        2960.00           2285        1548.00      6744.35
 1059.83        2960.25           2289        1573.00      6853.38
 1059.86        2960.50           2293        1624.00      7075.81
 1059.89        2960.75           2296        1608.00      7006.03
 1059.93        2961.00           2300        1717.00      7481.42
 1059.96        2961.25           2303        1867.00      8135.64
 1059.99        2961.50           2307        3849.00     16782.90
 1060.02        2961.75           2310        9905.00     43236.14
 1060.05        2962.00           2314       21761.00     95162.69
 1060.08        2962.25           2317       31827.00    139394.10
 1060.11        2962.50           2321       49262.00    216322.80
 1060.14        2962.75           2324       64443.00    283636.70
 1060.17        2963.00           2328       83288.00    367630.20
 1060.20        2963.25           2331       96833.00    428300.80
 1060.23        2963.50           2335      116701.00    517752.10
 1060.26        2963.75           2339      137056.00    609968.80
 1060.29        2964.00           2342      152571.00    680652.90
 1060.32        2964.25           2346      172519.00    772041.20
 1060.35        2964.50           2349      188111.00    843876.10
 1060.38        2964.75           2353      207924.00    935674.80
 1060.41        2965.00           2356      221353.00    998227.40
 1060.45        2965.25           2360      240062.00   1085829.00
 1060.48        2965.50           2363      254038.00   1151617.00
 1060.51        2965.75           2367      270208.00   1228110.00
 1060.54        2966.00           2370      283272.00   1290208.00
 1060.57        2966.25           2374      299335.00   1366931.00
 1060.60        2966.50           2378      315138.00   1442814.00
 1060.63        2966.75           2381      322122.00   1476478.00
 1060.66        2967.00           2385      323945.00   1485279.00
 1060.69        2967.25           2388      324155.00   1486293.00
 1060.72        2967.50           2392      324077.00   1485916.00
 1060.75        2967.75           2395      323711.00   1484149.00
 1060.78        2968.00           2399      320346.00   1467910.00
 1060.81        2968.25           2402      313517.00   1435012.00
 1060.84        2968.50           2406      298663.00   1363713.00
 1060.87        2968.75           2409      286313.00   1304701.00
 1060.90        2969.00           2413      269518.00   1224837.00
 1060.93        2969.25           2417      252012.00   1142061.00
 1060.97        2969.50           2420      239629.00   1083795.00
 1061.00        2969.75           2424      223027.00   1006044.00
 1061.03        2970.00           2427      208459.00    938161.60
 1061.06        2970.25           2431      188151.00    844060.90
 1061.09        2970.50           2434      173247.00    775387.30
 1061.12        2970.75           2438      154785.00    690767.60
 1061.15        2971.00           2441      140605.00    626107.30
 1061.18        2971.25           2445      122927.00    545896.50
 1061.21        2971.50           2449      104098.00    460946.30
 1061.24        2971.75           2452       89624.00    395979.00
 1061.27        2972.00           2456       69111.00    304397.40
 1061.30        2972.25           2459       54383.00    238995.20
 1061.33        2972.50           2463       36770.00    161163.20
 1061.36        2972.75           2466       24352.00    106535.20
 1061.39        2973.00           2470        9819.00     42860.15
 1061.42        2973.25           2473        4079.00     17786.69
 1061.45        2973.50           2477        1996.00      8698.30
 1061.49        2973.75           2481        1720.00      7494.50
 1061.52        2974.00           2484        1689.00      7359.30
 1061.55        2974.25           2488        1639.00      7141.23
 1061.58        2974.50           2491        1636.00      7128.14
 1061.61        2974.75           2495        1597.00      6958.05
 1061.64        2975.00           2498        1547.00      6739.99
 1061.67        2975.25           2502        1518.00      6613.52
 1061.70        2975.50           2505        1519.00      6617.88
 1061.73        2975.75           2509        1488.00      6482.68
 1061.76        2976.00           2512        1494.00      6508.85
 1061.79        2976.25           2516        1469.00      6399.82
 1061.82        2976.50           2520        1437.00      6260.27
 1061.85        2976.75           2523        1420.00      6186.13
 1061.88        2977.00           2527        1406.00      6125.08
 1061.91        2977.25           2530        1403.00      6111.99
 1061.94        2977.50           2534        1380.00      6011.69
 1061.97        2977.75           2537        1376.00      5994.25
 1062.00        2978.00           2541        1382.00      6020.41
 1062.04        2978.25           2544        1341.00      5841.61
 1062.07        2978.50           2548        1340.00      5837.25
 1062.10        2978.75           2552        1325.00      5771.84
 1062.13        2979.00           2555        1322.00      5758.76
 1062.16        2979.25           2559        1310.00      5706.43
 1062.19        2979.50           2562        1308.00      5697.70
 1062.22        2979.75           2566        1277.00      5562.52
 1062.25        2980.00           2569        1277.00      5562.52
 1062.28        2980.25           2573        1286.00      5601.76
 1062.31        2980.50           2577        1256.00      5470.94
 1062.34        2980.75           2580        1289.00      5614.85
 1062.37        2981.00           2584        1258.00      5479.66
 1062.40        2981.25           2587        1273.00      5545.07
 1062.43        2981.50           2591        1260.00      5488.38
 1062.46        2981.75           2594        1231.00      5361.92
 1062.49        2982.00           2598        1235.00      5379.36
 1062.52        2982.25           2601        1220.00      5313.95
 1062.56        2982.50           2605        1221.00      5318.31
 1062.59        2982.75           2609        1209.00      5265.98
 1062.62        2983.00           2612        1211.00      5274.70
 1062.65        2983.25           2616        1200.00      5226.74
 1062.68        2983.50           2619        1205.00      5248.54
 1062.71        2983.75           2623        1216.00      5296.51
 1062.74        2984.00           2626        1154.00      5026.14
HS scan finished at 17:42:58
end
