************************************************************
  HS Scan of (1) Internal mercury lamp
************************************************************
Integration time is 0.2294 seconds per sample
dh301018Reading 51.44 .94 2.58pr1000
************************************************************
Dead Time -------------------------  3.4E-08 
Number of Cycles Used -------------  4 
Starting Wavelength (Angstroms) ---  2950 
Final Wavelength (Angstoms) -------  2984 
Wavelength Increment (Angstroms) --  .25 
Filter Wheel #1 Position ---------- (1) Ground quartz diffuser (ND=2.32)
Filter Wheel #2 Position ---------- (1) Neutral Density 0.494



************************************************************
HS scan start time = 04:10:50
Dark Count =  .4 


Time (GMT)  Wavelength (Ang)  Step Number  Raw Counts  Counts/Second

  251.73        2950.00           2144        1604.00      6992.07
  251.93        2950.25           2147        1555.00      6778.37
  251.96        2950.50           2151        1564.00      6817.62
  251.99        2950.75           2155        1573.00      6856.87
  252.02        2951.00           2158        1565.00      6821.98
  252.05        2951.25           2162        1589.00      6926.65
  252.08        2951.50           2165        1599.00      6970.27
  252.11        2951.75           2169        1609.00      7013.88
  252.14        2952.00           2172        1586.00      6913.57
  252.17        2952.25           2176        1614.00      7035.68
  252.20        2952.50           2179        1611.00      7022.60
  252.23        2952.75           2183        1612.00      7026.96
  252.26        2953.00           2186        1625.00      7083.66
  252.29        2953.25           2190        1625.00      7083.66
  252.32        2953.50           2193        1578.00      6878.68
  252.35        2953.75           2197        1651.00      7197.05
  252.38        2954.00           2200        1645.00      7170.88
  252.42        2954.25           2204        1599.00      6970.27
  252.45        2954.50           2208        1648.00      7183.97
  252.48        2954.75           2211        1659.00      7231.94
  252.51        2955.00           2215        1685.00      7345.34
  252.54        2955.25           2218        1642.00      7157.80
  252.57        2955.50           2222        1666.00      7262.47
  252.60        2955.75           2225        1670.00      7279.92
  252.63        2956.00           2229        1694.00      7384.59
  252.66        2956.25           2232        1661.00      7240.67
  252.69        2956.50           2236        1686.00      7349.70
  252.72        2956.75           2239        1736.00      7567.77
  252.75        2957.00           2243        1689.00      7362.78
  252.78        2957.25           2246        1746.00      7611.39
  252.81        2957.50           2250        1737.00      7572.13
  252.84        2957.75           2254        1752.00      7637.55
  252.87        2958.00           2257        1785.00      7781.48
  252.90        2958.25           2261        1820.00      7934.14
  252.94        2958.50           2264        1835.00      7999.56
  252.97        2958.75           2268        1845.00      8043.18
  253.00        2959.00           2271        1862.00      8117.32
  253.03        2959.25           2275        1823.00      7947.22
  253.06        2959.50           2278        1862.00      8117.32
  253.09        2959.75           2282        1854.00      8082.43
  253.12        2960.00           2285        1947.00      8488.06
  253.15        2960.25           2289        1892.00      8248.17
  253.18        2960.50           2293        1964.00      8562.21
  253.21        2960.75           2296        1989.00      8671.26
  253.24        2961.00           2300        2088.00      9103.08
  253.27        2961.25           2303        2307.00     10058.37
  253.30        2961.50           2307        4600.00     20064.25
  253.33        2961.75           2310       10769.00     47017.57
  253.36        2962.00           2314       23663.00    103513.60
  253.39        2962.25           2317       34640.00    151782.10
  253.42        2962.50           2321       53791.00    236376.00
  253.46        2962.75           2324       69979.00    308264.60
  253.49        2963.00           2328       91492.00    404351.00
  253.52        2963.25           2331      108120.00    479054.30
  253.55        2963.50           2335      129486.00    575609.00
  253.58        2963.75           2339      148747.00    663203.10
  253.61        2964.00           2342      165095.00    737965.80
  253.64        2964.25           2346      186673.00    837239.80
  253.67        2964.50           2349      202010.00    908216.40
  253.70        2964.75           2353      222781.00   1004899.00
  253.73        2965.00           2356      237524.00   1073917.00
  253.76        2965.25           2360      257766.00   1169220.00
  253.79        2965.50           2363      273942.00   1245835.00
  253.82        2965.75           2367      292302.00   1333292.00
  253.85        2966.00           2370      305464.00   1396317.00
  253.88        2966.25           2374      323013.00   1480783.00
  253.91        2966.50           2378      338291.00   1554725.00
  253.94        2966.75           2381      342855.00   1576888.00
  253.98        2967.00           2385      344696.00   1585838.00
  254.01        2967.25           2388      345146.00   1588027.00
  254.04        2967.50           2392      344610.00   1585420.00
  254.07        2967.75           2395      343599.00   1580505.00
  254.10        2968.00           2399      338905.00   1557705.00
  254.13        2968.25           2402      329539.00   1512321.00
  254.16        2968.50           2406      312834.00   1431729.00
  254.19        2968.75           2409      300281.00   1371466.00
  254.22        2969.00           2413      281505.00   1281797.00
  254.25        2969.25           2417      262773.00   1192892.00
  254.28        2969.50           2420      248474.00   1125394.00
  254.31        2969.75           2424      229506.00   1036341.00
  254.34        2970.00           2427      214426.00    965931.20
  254.37        2970.25           2431      192699.00    865085.40
  254.40        2970.50           2434      176204.00    788990.10
  254.43        2970.75           2438      154217.00    688175.70
  254.46        2971.00           2441      138168.00    615027.10
  254.49        2971.25           2445      118777.00    527134.20
  254.53        2971.50           2449       98452.00    435573.10
  254.56        2971.75           2452       83100.00    366793.50
  254.59        2972.00           2456       62413.00    274621.10
  254.62        2972.25           2459       47543.00    208723.60
  254.65        2972.50           2463       28587.00    125146.00
  254.68        2972.75           2466       16513.00     72158.52
  254.71        2973.00           2470        5822.00     25399.43
  254.74        2973.25           2473        2935.00     12798.07
  254.77        2973.50           2477        2107.00      9185.96
  254.80        2973.75           2481        1990.00      8675.62
  254.83        2974.00           2484        1993.00      8688.70
  254.86        2974.25           2488        1951.00      8505.51
  254.89        2974.50           2491        1902.00      8291.79
  254.92        2974.75           2495        1836.00      8003.92
  254.95        2975.00           2498        1849.00      8060.62
  254.98        2975.25           2502        1863.00      8121.68
  255.01        2975.50           2505        1828.00      7969.03
  255.05        2975.75           2509        1783.00      7772.76
  255.08        2976.00           2512        1789.00      7798.93
  255.11        2976.25           2516        1736.00      7567.77
  255.14        2976.50           2520        1706.00      7436.93
  255.17        2976.75           2523        1696.00      7393.31
  255.20        2977.00           2527        1731.00      7545.96
  255.23        2977.25           2530        1663.00      7249.39
  255.26        2977.50           2534        1645.00      7170.88
  255.29        2977.75           2537        1675.00      7301.73
  255.32        2978.00           2541        1617.00      7048.77
  255.35        2978.25           2544        1706.00      7436.93
  255.38        2978.50           2548        1576.00      6869.96
  255.41        2978.75           2552        1566.00      6826.34
  255.44        2979.00           2555        1612.00      7026.96
  255.47        2979.25           2559        1585.00      6909.21
  255.50        2979.50           2562        1573.00      6856.87
  255.53        2979.75           2566        1572.00      6852.51
  255.57        2980.00           2569        1589.00      6926.65
  255.60        2980.25           2573        1555.00      6778.37
  255.63        2980.50           2577        1599.00      6970.27
  255.66        2980.75           2580        1504.00      6555.95
  255.69        2981.00           2584        1585.00      6909.21
  255.72        2981.25           2587        1524.00      6643.17
  255.75        2981.50           2591        1513.00      6595.20
  255.78        2981.75           2594        1511.00      6586.48
  255.81        2982.00           2598        1553.00      6769.65
  255.84        2982.25           2601        1511.00      6586.48
  255.87        2982.50           2605        1464.00      6381.51
  255.90        2982.75           2609        1479.00      6446.92
  255.93        2983.00           2612        1491.00      6499.26
  255.96        2983.25           2616        1488.00      6486.17
  255.99        2983.50           2619        1473.00      6420.76
  256.02        2983.75           2623        1445.00      6298.65
  256.05        2984.00           2626        1473.00      6420.76
HS scan finished at 04:16:17
end
************************************************************
  HS Scan of (1) Internal mercury lamp
************************************************************
Integration time is 0.2294 seconds per sample
dh301018Reading 51.44 .94 3pr1000
************************************************************
Dead Time -------------------------  3.4E-08 
Number of Cycles Used -------------  4 
Starting Wavelength (Angstroms) ---  2950 
Final Wavelength (Angstoms) -------  2984 
Wavelength Increment (Angstroms) --  .25 
Filter Wheel #1 Position ---------- (1) Ground quartz diffuser (ND=2.32)
Filter Wheel #2 Position ---------- (1) Neutral Density 0.494



************************************************************
HS scan start time = 17:37:30
Dark Count =  .7 


Time (GMT)  Wavelength (Ang)  Step Number  Raw Counts  Counts/Second

 1058.40        2950.00           2144        1280.00      5577.78
 1058.59        2950.25           2147        1296.00      5647.55
 1058.62        2950.50           2151        1296.00      5647.55
 1058.65        2950.75           2155        1309.00      5704.25
 1058.69        2951.00           2158        1302.00      5673.72
 1058.72        2951.25           2162        1329.00      5791.46
 1058.75        2951.50           2165        1266.00      5516.73
 1058.78        2951.75           2169        1349.00      5878.68
 1058.81        2952.00           2172        1285.00      5599.58
 1058.84        2952.25           2176        1345.00      5861.24
 1058.87        2952.50           2179        1330.00      5795.82
 1058.90        2952.75           2183        1324.00      5769.66
 1058.93        2953.00           2186        1351.00      5887.40
 1058.96        2953.25           2190        1336.00      5821.99
 1058.99        2953.50           2193        1339.00      5835.07
 1059.02        2953.75           2197        1332.00      5804.55
 1059.05        2954.00           2200        1402.00      6109.81
 1059.08        2954.25           2204        1352.00      5891.76
 1059.11        2954.50           2208        1325.00      5774.02
 1059.14        2954.75           2211        1389.00      6053.12
 1059.17        2955.00           2215        1369.00      5965.90
 1059.20        2955.25           2218        1393.00      6070.56
 1059.24        2955.50           2222        1397.00      6088.01
 1059.27        2955.75           2225        1386.00      6040.04
 1059.30        2956.00           2229        1409.00      6140.34
 1059.33        2956.25           2232        1420.00      6188.31
 1059.36        2956.50           2236        1414.00      6162.15
 1059.39        2956.75           2239        1420.00      6188.31
 1059.42        2957.00           2243        1438.00      6266.81
 1059.45        2957.25           2246        1441.00      6279.89
 1059.48        2957.50           2250        1438.00      6266.81
 1059.51        2957.75           2254        1485.00      6471.78
 1059.54        2958.00           2257        1494.00      6511.03
 1059.57        2958.25           2261        1482.00      6458.70
 1059.60        2958.50           2264        1494.00      6511.03
 1059.63        2958.75           2268        1513.00      6593.89
 1059.66        2959.00           2271        1540.00      6711.64
 1059.69        2959.25           2275        1531.00      6672.39
 1059.72        2959.50           2278        1526.00      6650.59
 1059.76        2959.75           2282        1586.00      6912.26
 1059.79        2960.00           2285        1594.00      6947.15
 1059.82        2960.25           2289        1589.00      6925.34
 1059.85        2960.50           2293        1615.00      7038.74
 1059.88        2960.75           2296        1681.00      7326.59
 1059.91        2961.00           2300        1690.00      7365.84
 1059.94        2961.25           2303        1862.00      8116.01
 1059.97        2961.50           2307        3160.00     13778.47
 1060.00        2961.75           2310        7776.00     33933.20
 1060.03        2962.00           2314       20783.00     90874.52
 1060.06        2962.25           2317       33606.00    147227.30
 1060.09        2962.50           2321       52876.00    232321.80
 1060.12        2962.75           2324       67000.00    295007.40
 1060.15        2963.00           2328       85085.00    375667.10
 1060.18        2963.25           2331       99442.00    440018.30
 1060.21        2963.50           2335      120275.00    533903.90
 1060.24        2963.75           2339      139886.00    622838.60
 1060.28        2964.00           2342      153755.00    686063.50
 1060.31        2964.25           2346      173396.00    776074.50
 1060.34        2964.50           2349      188893.00    847490.60
 1060.37        2964.75           2353      208646.00    939033.20
 1060.40        2965.00           2356      222618.00   1004136.00
 1060.43        2965.25           2360      241087.00   1090645.00
 1060.46        2965.50           2363      254279.00   1152756.00
 1060.49        2965.75           2367      271538.00   1234422.00
 1060.52        2966.00           2370      284164.00   1294460.00
 1060.55        2966.25           2374      301945.00   1379438.00
 1060.58        2966.50           2378      315780.00   1445908.00
 1060.61        2966.75           2381      319824.00   1465395.00
 1060.64        2967.00           2385      322308.00   1477378.00
 1060.67        2967.25           2388      322672.00   1479135.00
 1060.70        2967.50           2392      322882.00   1480149.00
 1060.73        2967.75           2395      322424.00   1477938.00
 1060.76        2968.00           2399      318372.00   1458395.00
 1060.80        2968.25           2402      311834.00   1426918.00
 1060.83        2968.50           2406      297676.00   1358990.00
 1060.86        2968.75           2409      283808.00   1292764.00
 1060.89        2969.00           2413      265968.00   1208015.00
 1060.92        2969.25           2417      248359.00   1124851.00
 1060.95        2969.50           2420      234689.00   1060618.00
 1060.98        2969.75           2424      216546.00    975807.40
 1061.01        2970.00           2427      202227.00    909221.70
 1061.04        2970.25           2431      183851.00    824216.60
 1061.07        2970.50           2434      170189.00    761339.30
 1061.10        2970.75           2438      152646.00    680997.70
 1061.13        2971.00           2441      137436.00    611698.30
 1061.16        2971.25           2445      117913.00    523228.90
 1061.19        2971.50           2449       96436.00    426521.30
 1061.22        2971.75           2452       80607.00    355653.60
 1061.25        2972.00           2456       62526.00    275121.70
 1061.28        2972.25           2459       49504.00    217395.70
 1061.32        2972.50           2463       32307.00    141508.80
 1061.35        2972.75           2466       19869.00     86866.03
 1061.38        2973.00           2470        6641.00     28974.91
 1061.41        2973.25           2473        3151.00     13739.20
 1061.44        2973.50           2477        1948.00      8491.12
 1061.47        2973.75           2481        1767.00      7701.67
 1061.50        2974.00           2484        1718.00      7487.96
 1061.53        2974.25           2488        1681.00      7326.59
 1061.56        2974.50           2491        1647.00      7178.30
 1061.59        2974.75           2495        1637.00      7134.69
 1061.62        2975.00           2498        1572.00      6851.20
 1061.65        2975.25           2502        1574.00      6859.93
 1061.68        2975.50           2505        1539.00      6707.28
 1061.71        2975.75           2509        1511.00      6585.17
 1061.74        2976.00           2512        1506.00      6563.37
 1061.77        2976.25           2516        1484.00      6467.42
 1061.80        2976.50           2520        1464.00      6380.20
 1061.84        2976.75           2523        1481.00      6454.34
 1061.87        2977.00           2527        1433.00      6245.01
 1061.90        2977.25           2530        1465.00      6384.56
 1061.93        2977.50           2534        1433.00      6245.01
 1061.96        2977.75           2537        1400.00      6101.09
 1061.99        2978.00           2541        1382.00      6022.59
 1062.02        2978.25           2544        1371.00      5974.62
 1062.05        2978.50           2548        1348.00      5874.32
 1062.08        2978.75           2552        1373.00      5983.34
 1062.11        2979.00           2555        1373.00      5983.34
 1062.14        2979.25           2559        1354.00      5900.49
 1062.17        2979.50           2562        1373.00      5983.34
 1062.20        2979.75           2566        1328.00      5787.10
 1062.23        2980.00           2569        1340.00      5839.43
 1062.26        2980.25           2573        1328.00      5787.10
 1062.29        2980.50           2577        1282.00      5586.50
 1062.32        2980.75           2580        1306.00      5691.16
 1062.36        2981.00           2584        1255.00      5468.76
 1062.39        2981.25           2587        1299.00      5660.64
 1062.42        2981.50           2591        1276.00      5560.34
 1062.45        2981.75           2594        1295.00      5643.19
 1062.48        2982.00           2598        1251.00      5451.32
 1062.51        2982.25           2601        1237.00      5390.26
 1062.54        2982.50           2605        1239.00      5398.99
 1062.57        2982.75           2609        1253.00      5460.04
 1062.61        2983.00           2612        1264.00      5508.01
 1062.64        2983.25           2616        1231.00      5364.10
 1062.67        2983.50           2619        1240.00      5403.35
 1062.70        2983.75           2623        1235.00      5381.54
 1062.73        2984.00           2626        1210.00      5272.52
HS scan finished at 17:42:57
end
