************************************************************
  HS Scan of (1) Internal mercury lamp
************************************************************
Integration time is 0.2294 seconds per sample
dh021118Reading 51.44 .94 2.43pr1000
************************************************************
Dead Time -------------------------  3.4E-08 
Number of Cycles Used -------------  4 
Starting Wavelength (Angstroms) ---  2950 
Final Wavelength (Angstoms) -------  2984 
Wavelength Increment (Angstroms) --  .25 
Filter Wheel #1 Position ---------- (1) Ground quartz diffuser (ND=2.32)
Filter Wheel #2 Position ---------- (1) Neutral Density 0.494



************************************************************
HS scan start time = 04:18:47
Dark Count =  .3 


Time (GMT)  Wavelength (Ang)  Step Number  Raw Counts  Counts/Second

  259.68        2950.00           2144        1616.00      7044.84
  259.87        2950.25           2147        1598.00      6966.34
  259.90        2950.50           2151        1598.00      6966.34
  259.93        2950.75           2155        1617.00      7049.20
  259.96        2951.00           2158        1579.00      6883.48
  259.99        2951.25           2162        1618.00      7053.57
  260.02        2951.50           2165        1587.00      6918.37
  260.05        2951.75           2169        1599.00      6970.70
  260.08        2952.00           2172        1579.00      6883.48
  260.12        2952.25           2176        1612.00      7027.40
  260.15        2952.50           2179        1612.00      7027.40
  260.18        2952.75           2183        1631.00      7110.26
  260.21        2953.00           2186        1597.00      6961.98
  260.24        2953.25           2190        1678.00      7315.25
  260.27        2953.50           2193        1648.00      7184.41
  260.30        2953.75           2197        1625.00      7084.09
  260.33        2954.00           2200        1609.00      7014.31
  260.36        2954.25           2204        1616.00      7044.84
  260.39        2954.50           2208        1644.00      7166.96
  260.42        2954.75           2211        1630.00      7105.90
  260.45        2955.00           2215        1675.00      7302.16
  260.48        2955.25           2218        1645.00      7171.32
  260.51        2955.50           2222        1697.00      7398.11
  260.54        2955.75           2225        1669.00      7275.99
  260.57        2956.00           2229        1693.00      7380.67
  260.60        2956.25           2232        1683.00      7337.05
  260.64        2956.50           2236        1731.00      7546.40
  260.67        2956.75           2239        1711.00      7459.17
  260.70        2957.00           2243        1680.00      7323.97
  260.73        2957.25           2246        1711.00      7459.17
  260.76        2957.50           2250        1722.00      7507.15
  260.79        2957.75           2254        1721.00      7502.79
  260.82        2958.00           2257        1771.00      7720.86
  260.85        2958.25           2261        1776.00      7742.67
  260.88        2958.50           2264        1782.00      7768.83
  260.91        2958.75           2268        1825.00      7956.38
  260.94        2959.00           2271        1840.00      8021.80
  260.97        2959.25           2275        1815.00      7912.76
  261.00        2959.50           2278        1814.00      7908.40
  261.03        2959.75           2282        1843.00      8034.89
  261.06        2960.00           2285        1899.00      8279.14
  261.09        2960.25           2289        1918.00      8362.01
  261.12        2960.50           2293        1941.00      8462.33
  261.15        2960.75           2296        1967.00      8575.73
  261.19        2961.00           2300        2026.00      8833.08
  261.22        2961.25           2303        2366.00     10316.17
  261.25        2961.50           2307        5795.00     25281.97
  261.28        2961.75           2310       13076.00     57110.35
  261.31        2962.00           2314       26828.00    117415.10
  261.34        2962.25           2317       39974.00    175294.90
  261.37        2962.50           2321       58222.00    256018.80
  261.40        2962.75           2324       71209.00    313741.80
  261.43        2963.00           2328       87757.00    387623.90
  261.46        2963.25           2331      102152.00    452198.80
  261.49        2963.50           2335      122199.00    542607.00
  261.52        2963.75           2339      141729.00    631226.40
  261.55        2964.00           2342      155950.00    696097.00
  261.58        2964.25           2346      174352.00    780471.90
  261.61        2964.50           2349      187775.00    842328.60
  261.64        2964.75           2353      207784.00    935028.20
  261.68        2965.00           2356      222282.00   1002569.00
  261.71        2965.25           2360      239967.00   1085387.00
  261.74        2965.50           2363      252860.00   1146064.00
  261.77        2965.75           2367      269919.00   1226743.00
  261.80        2966.00           2370      282414.00   1286125.00
  261.83        2966.25           2374      299302.00   1366777.00
  261.86        2966.50           2378      312689.00   1431032.00
  261.89        2966.75           2381      318240.00   1457761.00
  261.92        2967.00           2385      320648.00   1469371.00
  261.95        2967.25           2388      321336.00   1472690.00
  261.98        2967.50           2392      321239.00   1472222.00
  262.01        2967.75           2395      321125.00   1471672.00
  262.04        2968.00           2399      318054.00   1456864.00
  262.07        2968.25           2402      311723.00   1426386.00
  262.10        2968.50           2406      297898.00   1360054.00
  262.13        2968.75           2409      283924.00   1293318.00
  262.16        2969.00           2413      265058.00   1203708.00
  262.20        2969.25           2417      246260.00   1114971.00
  262.23        2969.50           2420      232585.00   1050759.00
  262.26        2969.75           2424      213537.00    961791.60
  262.29        2970.00           2427      198828.00    893462.60
  262.32        2970.25           2431      178066.00    797560.60
  262.35        2970.50           2434      163556.00    730911.80
  262.38        2970.75           2438      144187.00    642418.10
  262.41        2971.00           2441      130126.00    578511.50
  262.44        2971.25           2445      110988.00    491978.40
  262.47        2971.50           2449       92072.00    406950.70
  262.50        2971.75           2452       79513.00    350770.10
  262.53        2972.00           2456       60602.00    266580.10
  262.56        2972.25           2459       45566.00    199985.10
  262.59        2972.50           2463       26014.00    113838.60
  262.62        2972.75           2466       14373.00     62787.34
  262.65        2973.00           2470        5343.00     23308.35
  262.68        2973.25           2473        3024.00     13186.82
  262.71        2973.50           2477        2081.00      9072.98
  262.75        2973.75           2481        1989.00      8671.69
  262.78        2974.00           2484        1928.00      8405.63
  262.81        2974.25           2488        1919.00      8366.37
  262.84        2974.50           2491        1868.00      8143.93
  262.87        2974.75           2495        1872.00      8161.38
  262.90        2975.00           2498        1835.00      8000.00
  262.93        2975.25           2502        1780.00      7760.11
  262.96        2975.50           2505        1784.00      7777.56
  262.99        2975.75           2509        1755.00      7651.07
  263.02        2976.00           2512        1723.00      7511.51
  263.05        2976.25           2516        1699.00      7406.83
  263.08        2976.50           2520        1698.00      7402.47
  263.11        2976.75           2523        1664.00      7254.19
  263.14        2977.00           2527        1638.00      7140.79
  263.17        2977.25           2530        1675.00      7302.16
  263.20        2977.50           2534        1652.00      7201.85
  263.23        2977.75           2537        1623.00      7075.37
  263.27        2978.00           2541        1636.00      7132.07
  263.30        2978.25           2544        1636.00      7132.07
  263.33        2978.50           2548        1635.00      7127.71
  263.36        2978.75           2552        1573.00      6857.31
  263.39        2979.00           2555        1578.00      6879.11
  263.42        2979.25           2559        1543.00      6726.47
  263.45        2979.50           2562        1551.00      6761.36
  263.48        2979.75           2566        1569.00      6839.86
  263.51        2980.00           2569        1515.00      6604.36
  263.54        2980.25           2573        1536.00      6695.95
  263.57        2980.50           2577        1522.00      6634.89
  263.60        2980.75           2580        1543.00      6726.47
  263.63        2981.00           2584        1504.00      6556.39
  263.66        2981.25           2587        1517.00      6613.08
  263.69        2981.50           2591        1484.00      6469.16
  263.72        2981.75           2594        1476.00      6434.28
  263.75        2982.00           2598        1492.00      6504.05
  263.79        2982.25           2601        1515.00      6604.36
  263.82        2982.50           2605        1472.00      6416.83
  263.85        2982.75           2609        1509.00      6578.19
  263.88        2983.00           2612        1478.00      6443.00
  263.91        2983.25           2616        1489.00      6490.97
  263.94        2983.50           2619        1462.00      6373.22
  263.97        2983.75           2623        1451.00      6325.25
  264.00        2984.00           2626        1442.00      6286.00
HS scan finished at 04:24:13
end
************************************************************
  HS Scan of (1) Internal mercury lamp
************************************************************
Integration time is 0.2294 seconds per sample
dh021118Reading 51.44 .94 3pr1000
************************************************************
Dead Time -------------------------  3.4E-08 
Number of Cycles Used -------------  4 
Starting Wavelength (Angstroms) ---  2950 
Final Wavelength (Angstoms) -------  2984 
Wavelength Increment (Angstroms) --  .25 
Filter Wheel #1 Position ---------- (1) Ground quartz diffuser (ND=2.32)
Filter Wheel #2 Position ---------- (1) Neutral Density 0.494



************************************************************
HS scan start time = 17:37:30
Dark Count =  .8 


Time (GMT)  Wavelength (Ang)  Step Number  Raw Counts  Counts/Second

 1058.40        2950.00           2144        1269.00      5529.37
 1058.59        2950.25           2147        1323.00      5764.86
 1058.62        2950.50           2151        1259.00      5485.77
 1058.65        2950.75           2155        1305.00      5686.36
 1058.68        2951.00           2158        1272.00      5542.46
 1058.71        2951.25           2162        1272.00      5542.46
 1058.74        2951.50           2165        1322.00      5760.50
 1058.77        2951.75           2169        1346.00      5865.16
 1058.81        2952.00           2172        1303.00      5677.64
 1058.84        2952.25           2176        1295.00      5642.76
 1058.87        2952.50           2179        1280.00      5577.34
 1058.90        2952.75           2183        1297.00      5651.48
 1058.93        2953.00           2186        1297.00      5651.48
 1058.96        2953.25           2190        1316.00      5734.34
 1058.99        2953.50           2193        1285.00      5599.15
 1059.02        2953.75           2197        1338.00      5830.28
 1059.06        2954.00           2200        1316.00      5734.34
 1059.09        2954.25           2204        1305.00      5686.36
 1059.12        2954.50           2208        1330.00      5795.39
 1059.15        2954.75           2211        1327.00      5782.30
 1059.18        2955.00           2215        1356.00      5908.77
 1059.21        2955.25           2218        1332.00      5804.11
 1059.24        2955.50           2222        1389.00      6052.68
 1059.27        2955.75           2225        1348.00      5873.88
 1059.30        2956.00           2229        1378.00      6004.71
 1059.33        2956.25           2232        1370.00      5969.83
 1059.36        2956.50           2236        1348.00      5873.88
 1059.39        2956.75           2239        1376.00      5995.99
 1059.42        2957.00           2243        1416.00      6170.43
 1059.45        2957.25           2246        1388.00      6048.32
 1059.48        2957.50           2250        1443.00      6288.18
 1059.51        2957.75           2254        1427.00      6218.40
 1059.54        2958.00           2257        1441.00      6279.46
 1059.58        2958.25           2261        1441.00      6279.46
 1059.61        2958.50           2264        1422.00      6196.60
 1059.64        2958.75           2268        1473.00      6419.01
 1059.67        2959.00           2271        1482.00      6458.26
 1059.70        2959.25           2275        1534.00      6685.04
 1059.73        2959.50           2278        1521.00      6628.35
 1059.76        2959.75           2282        1542.00      6719.93
 1059.79        2960.00           2285        1557.00      6785.35
 1059.82        2960.25           2289        1581.00      6890.02
 1059.85        2960.50           2293        1618.00      7051.39
 1059.88        2960.75           2296        1671.00      7282.54
 1059.91        2961.00           2300        1712.00      7461.35
 1059.94        2961.25           2303        2024.00      8822.18
 1059.97        2961.50           2307        4790.00     20891.91
 1060.00        2961.75           2310       11432.00     49915.51
 1060.03        2962.00           2314       25119.00    109905.10
 1060.06        2962.25           2317       36797.00    161283.90
 1060.10        2962.50           2321       54083.00    237667.80
 1060.13        2962.75           2324       67611.00    297724.80
 1060.16        2963.00           2328       86749.00    383110.60
 1060.19        2963.25           2331      100270.00    443737.80
 1060.22        2963.50           2335      120214.00    533627.60
 1060.25        2963.75           2339      138855.00    618149.10
 1060.28        2964.00           2342      152503.00    680344.20
 1060.31        2964.25           2346      168944.00    755622.50
 1060.34        2964.50           2349      182915.00    819899.60
 1060.37        2964.75           2353      202555.00    910743.10
 1060.40        2965.00           2356      216408.00    975163.80
 1060.43        2965.25           2360      233831.00   1056596.00
 1060.46        2965.50           2363      247007.00   1118485.00
 1060.49        2965.75           2367      261135.00   1185142.00
 1060.52        2966.00           2370      273779.00   1245059.00
 1060.55        2966.25           2374      292148.00   1332554.00
 1060.59        2966.50           2378      306100.00   1399368.00
 1060.62        2966.75           2381      310999.00   1422902.00
 1060.65        2967.00           2385      312166.00   1428514.00
 1060.68        2967.25           2388      312862.00   1431862.00
 1060.71        2967.50           2392      312680.00   1430987.00
 1060.74        2967.75           2395      312024.00   1427831.00
 1060.77        2968.00           2399      310481.00   1420412.00
 1060.80        2968.25           2402      303760.00   1388140.00
 1060.83        2968.50           2406      289814.00   1321407.00
 1060.86        2968.75           2409      278233.00   1266226.00
 1060.89        2969.00           2413      260381.00   1181576.00
 1060.92        2969.25           2417      242905.00   1099189.00
 1060.95        2969.50           2420      230173.00   1039461.00
 1060.98        2969.75           2424      212232.00    955713.90
 1061.01        2970.00           2427      198553.00    892185.80
 1061.04        2970.25           2431      177127.00    793235.80
 1061.07        2970.50           2434      163099.00    728815.30
 1061.10        2970.75           2438      143518.00    639369.00
 1061.14        2971.00           2441      129055.00    573653.10
 1061.17        2971.25           2445      111891.00    496047.60
 1061.20        2971.50           2449       92831.00    410350.70
 1061.23        2971.75           2452       76932.00    339248.90
 1061.26        2972.00           2456       57430.00    252503.70
 1061.29        2972.25           2459       43967.00    192918.60
 1061.32        2972.50           2463       27166.00    118898.20
 1061.35        2972.75           2466       15753.00     68827.85
 1061.38        2973.00           2470        5265.00     22965.62
 1061.41        2973.25           2473        2636.00     11491.85
 1061.44        2973.50           2477        1828.00      7967.28
 1061.47        2973.75           2481        1668.00      7269.45
 1061.50        2974.00           2484        1688.00      7356.68
 1061.53        2974.25           2488        1599.00      6968.52
 1061.56        2974.50           2491        1599.00      6968.52
 1061.59        2974.75           2495        1537.00      6698.13
 1061.62        2975.00           2498        1582.00      6894.38
 1061.66        2975.25           2502        1506.00      6562.93
 1061.69        2975.50           2505        1483.00      6462.62
 1061.72        2975.75           2509        1463.00      6375.40
 1061.75        2976.00           2512        1464.00      6379.76
 1061.78        2976.25           2516        1422.00      6196.60
 1061.81        2976.50           2520        1446.00      6301.26
 1061.84        2976.75           2523        1414.00      6161.71
 1061.87        2977.00           2527        1396.00      6083.21
 1061.90        2977.25           2530        1380.00      6013.43
 1061.93        2977.50           2534        1357.00      5913.13
 1061.96        2977.75           2537        1390.00      6057.05
 1061.99        2978.00           2541        1357.00      5913.13
 1062.02        2978.25           2544        1347.00      5869.52
 1062.05        2978.50           2548        1302.00      5673.28
 1062.08        2978.75           2552        1347.00      5869.52
 1062.11        2979.00           2555        1298.00      5655.84
 1062.14        2979.25           2559        1313.00      5721.25
 1062.18        2979.50           2562        1341.00      5843.36
 1062.21        2979.75           2566        1278.00      5568.62
 1062.24        2980.00           2569        1274.00      5551.18
 1062.27        2980.25           2573        1248.00      5437.80
 1062.30        2980.50           2577        1313.00      5721.25
 1062.33        2980.75           2580        1245.00      5424.71
 1062.36        2981.00           2584        1251.00      5450.88
 1062.39        2981.25           2587        1230.00      5359.30
 1062.42        2981.50           2591        1254.00      5463.96
 1062.45        2981.75           2594        1278.00      5568.62
 1062.48        2982.00           2598        1228.00      5350.58
 1062.51        2982.25           2601        1197.00      5215.40
 1062.54        2982.50           2605        1236.00      5385.47
 1062.57        2982.75           2609        1269.00      5529.37
 1062.60        2983.00           2612        1226.00      5341.86
 1062.63        2983.25           2616        1212.00      5280.81
 1062.66        2983.50           2619        1255.00      5468.32
 1062.70        2983.75           2623        1189.00      5180.51
 1062.73        2984.00           2626        1215.00      5293.89
HS scan finished at 17:42:57
end
