************************************************************
  HS Scan of (1) Internal mercury lamp
************************************************************
Integration time is 0.2294 seconds per sample
dh311017Reading 51.44 .94 2.9pr1000
************************************************************
Dead Time -------------------------  3.4E-08 
Number of Cycles Used -------------  4 
Starting Wavelength (Angstroms) ---  2950 
Final Wavelength (Angstoms) -------  2984 
Wavelength Increment (Angstroms) --  .25 
Filter Wheel #1 Position ---------- (1) Ground quartz diffuser (ND=2.32)
Filter Wheel #2 Position ---------- (1) Neutral Density 0.494



************************************************************
HS scan start time = 04:12:58
Dark Count =  .7 


Time (GMT)  Wavelength (Ang)  Step Number  Raw Counts  Counts/Second

  253.86        2950.00           2144         161.00       698.80
  254.05        2950.25           2147         177.00       768.55
  254.08        2950.50           2151         160.00       694.44
  254.11        2950.75           2155         155.00       672.64
  254.15        2951.00           2158         163.00       707.51
  254.18        2951.25           2162         161.00       698.80
  254.21        2951.50           2165         156.00       677.00
  254.24        2951.75           2169         163.00       707.51
  254.27        2952.00           2172         161.00       698.80
  254.30        2952.25           2176         165.00       716.23
  254.33        2952.50           2179         166.00       720.59
  254.36        2952.75           2183         164.00       711.87
  254.39        2953.00           2186         166.00       720.59
  254.42        2953.25           2190         166.00       720.59
  254.45        2953.50           2193         175.00       759.83
  254.48        2953.75           2197         175.00       759.83
  254.51        2954.00           2200         173.00       751.11
  254.54        2954.25           2204         173.00       751.11
  254.57        2954.50           2208         170.00       738.03
  254.60        2954.75           2211         179.00       777.27
  254.63        2955.00           2215         178.00       772.91
  254.67        2955.25           2218         177.00       768.55
  254.70        2955.50           2222         178.00       772.91
  254.73        2955.75           2225         176.00       764.19
  254.76        2956.00           2229         190.00       825.22
  254.79        2956.25           2232         171.00       742.39
  254.82        2956.50           2236         170.00       738.03
  254.85        2956.75           2239         205.00       890.61
  254.88        2957.00           2243         196.00       851.38
  254.91        2957.25           2246         187.00       812.14
  254.94        2957.50           2250         207.00       899.33
  254.97        2957.75           2254         210.00       912.41
  255.00        2958.00           2257         234.00      1017.04
  255.03        2958.25           2261         212.00       921.13
  255.06        2958.50           2264         208.00       903.69
  255.09        2958.75           2268         207.00       899.33
  255.12        2959.00           2271         213.00       925.49
  255.15        2959.25           2275         215.00       934.21
  255.19        2959.50           2278         219.00       951.64
  255.22        2959.75           2282         223.00       969.08
  255.25        2960.00           2285         230.00       999.60
  255.28        2960.25           2289         234.00      1017.04
  255.31        2960.50           2293         240.00      1043.19
  255.34        2960.75           2296         247.00      1073.71
  255.37        2961.00           2300         292.00      1269.89
  255.40        2961.25           2303         574.00      2499.34
  255.43        2961.50           2307        2409.00     10502.01
  255.46        2961.75           2310        4601.00     20067.30
  255.49        2962.00           2314        7559.00     32985.10
  255.52        2962.25           2317        9913.00     43273.30
  255.55        2962.50           2321       14110.00     61634.25
  255.58        2962.75           2324       17164.00     75009.28
  255.61        2963.00           2328       21091.00     92225.53
  255.64        2963.25           2331       24101.00    105435.30
  255.67        2963.50           2335       27921.00    122216.90
  255.70        2963.75           2339       31979.00    140065.20
  255.74        2964.00           2342       35314.00    154749.80
  255.77        2964.25           2346       39429.00    172889.10
  255.80        2964.50           2349       42904.00    188224.70
  255.83        2964.75           2353       47284.00    207577.10
  255.86        2965.00           2356       50221.00    220568.20
  255.89        2965.25           2360       53726.00    236086.70
  255.92        2965.50           2363       56691.00    249227.20
  255.95        2965.75           2367       60337.00    265402.00
  255.98        2966.00           2370       63050.00    277449.30
  256.01        2966.25           2374       66956.00    294811.70
  256.04        2966.50           2378       68472.00    301556.00
  256.07        2966.75           2381       68946.00    303665.30
  256.10        2967.00           2385       69273.00    305120.60
  256.13        2967.25           2388       69155.00    304595.50
  256.16        2967.50           2392       69117.00    304426.40
  256.19        2967.75           2395       68495.00    301658.40
  256.23        2968.00           2399       66721.00    293766.60
  256.26        2968.25           2402       63791.00    280741.50
  256.29        2968.50           2406       60333.00    265384.20
  256.32        2968.75           2409       57778.00    254047.60
  256.35        2969.00           2413       53973.00    237180.90
  256.38        2969.25           2417       50308.00    220953.20
  256.41        2969.50           2420       47580.00    208885.90
  256.44        2969.75           2424       43096.00    189072.50
  256.47        2970.00           2427       40124.00    175954.90
  256.50        2970.25           2431       35703.00    156463.50
  256.53        2970.50           2434       32666.00    143089.00
  256.56        2970.75           2438       28862.00    126353.80
  256.59        2971.00           2441       26244.00    114847.30
  256.62        2971.25           2445       22084.00     96582.12
  256.65        2971.50           2449       17898.00     78225.66
  256.68        2971.75           2452       14675.00     64107.76
  256.71        2972.00           2456       10906.00     47615.39
  256.75        2972.25           2459        8214.00     35847.06
  256.78        2972.50           2463        4405.00     19211.76
  256.81        2972.75           2466        2143.00      9341.68
  256.84        2973.00           2470         709.00      3087.94
  256.87        2973.25           2473         383.00      1666.62
  256.90        2973.50           2477         303.00      1317.84
  256.93        2973.75           2481         278.00      1208.86
  256.96        2974.00           2484         280.00      1217.57
  256.99        2974.25           2488         278.00      1208.86
  257.02        2974.50           2491         249.00      1082.43
  257.05        2974.75           2495         251.00      1091.15
  257.08        2975.00           2498         223.00       969.08
  257.11        2975.25           2502         264.00      1147.82
  257.14        2975.50           2505         217.00       942.92
  257.17        2975.75           2509         224.00       973.44
  257.20        2976.00           2512         208.00       903.69
  257.23        2976.25           2516         222.00       964.72
  257.26        2976.50           2520         211.00       916.77
  257.30        2976.75           2523         204.00       886.25
  257.33        2977.00           2527         205.00       890.61
  257.36        2977.25           2530         196.00       851.38
  257.39        2977.50           2534         205.00       890.61
  257.42        2977.75           2537         204.00       886.25
  257.45        2978.00           2541         195.00       847.02
  257.48        2978.25           2544         198.00       860.09
  257.51        2978.50           2548         206.00       894.97
  257.54        2978.75           2552         197.00       855.74
  257.57        2979.00           2555         178.00       772.91
  257.60        2979.25           2559         186.00       807.78
  257.63        2979.50           2562         187.00       812.14
  257.66        2979.75           2566         179.00       777.27
  257.69        2980.00           2569         182.00       790.34
  257.72        2980.25           2573         188.00       816.50
  257.75        2980.50           2577         175.00       759.83
  257.78        2980.75           2580         171.00       742.39
  257.82        2981.00           2584         180.00       781.63
  257.85        2981.25           2587         171.00       742.39
  257.88        2981.50           2591         171.00       742.39
  257.91        2981.75           2594         170.00       738.03
  257.94        2982.00           2598         172.00       746.75
  257.97        2982.25           2601         172.00       746.75
  258.00        2982.50           2605         156.00       677.00
  258.03        2982.75           2609         175.00       759.83
  258.06        2983.00           2612         169.00       733.67
  258.09        2983.25           2616         174.00       755.47
  258.12        2983.50           2619         161.00       698.80
  258.15        2983.75           2623         145.00       629.05
  258.18        2984.00           2626         158.00       685.72
HS scan finished at 04:18:24
end
************************************************************
  HS Scan of (1) Internal mercury lamp
************************************************************
Integration time is 0.2294 seconds per sample
dh311017Reading 51.44 .94 3.27pr1000
************************************************************
Dead Time -------------------------  3.4E-08 
Number of Cycles Used -------------  4 
Starting Wavelength (Angstroms) ---  2950 
Final Wavelength (Angstoms) -------  2984 
Wavelength Increment (Angstroms) --  .25 
Filter Wheel #1 Position ---------- (1) Ground quartz diffuser (ND=2.32)
Filter Wheel #2 Position ---------- (1) Neutral Density 0.494



************************************************************
HS scan start time = 17:37:27
Dark Count =  1.7 


Time (GMT)  Wavelength (Ang)  Step Number  Raw Counts  Counts/Second

 1058.35        2950.00           2144          90.00       384.92
 1058.55        2950.25           2147          82.00       350.05
 1058.58        2950.50           2151          88.00       376.20
 1058.61        2950.75           2155          90.00       384.92
 1058.64        2951.00           2158          94.00       402.36
 1058.67        2951.25           2162          93.00       398.00
 1058.70        2951.50           2165         117.00       502.62
 1058.73        2951.75           2169         100.00       428.52
 1058.76        2952.00           2172         100.00       428.52
 1058.79        2952.25           2176          93.00       398.00
 1058.82        2952.50           2179         119.00       511.34
 1058.85        2952.75           2183          96.00       411.08
 1058.88        2953.00           2186          95.00       406.72
 1058.91        2953.25           2190         100.00       428.52
 1058.94        2953.50           2193          93.00       398.00
 1058.97        2953.75           2197          92.00       393.64
 1059.01        2954.00           2200          95.00       406.72
 1059.04        2954.25           2204          98.00       419.80
 1059.07        2954.50           2208         100.00       428.52
 1059.10        2954.75           2211         122.00       524.42
 1059.13        2955.00           2215          91.00       389.28
 1059.16        2955.25           2218         125.00       537.50
 1059.19        2955.50           2222         120.00       515.70
 1059.22        2955.75           2225         122.00       524.42
 1059.25        2956.00           2229         119.00       511.34
 1059.28        2956.25           2232         103.00       441.59
 1059.31        2956.50           2236         111.00       476.47
 1059.34        2956.75           2239         147.00       633.41
 1059.37        2957.00           2243         124.00       533.14
 1059.40        2957.25           2246         106.00       454.67
 1059.43        2957.50           2250         101.00       432.87
 1059.46        2957.75           2254         115.00       493.91
 1059.49        2958.00           2257         133.00       572.37
 1059.53        2958.25           2261         111.00       476.47
 1059.56        2958.50           2264         155.00       668.28
 1059.59        2958.75           2268         138.00       594.17
 1059.62        2959.00           2271         147.00       633.41
 1059.65        2959.25           2275         153.00       659.56
 1059.68        2959.50           2278         134.00       576.73
 1059.71        2959.75           2282         137.00       589.81
 1059.74        2960.00           2285         117.00       502.62
 1059.77        2960.25           2289         144.00       620.33
 1059.80        2960.50           2293         147.00       633.41
 1059.83        2960.75           2296         147.00       633.41
 1059.86        2961.00           2300         180.00       777.27
 1059.89        2961.25           2303         363.00      1575.06
 1059.92        2961.50           2307        1418.00      6175.23
 1059.95        2961.75           2310        2722.00     11863.11
 1059.98        2962.00           2314        5009.00     21844.03
 1060.01        2962.25           2317        6682.00     29149.63
 1060.05        2962.50           2321        8450.00     36874.02
 1060.08        2962.75           2324        9977.00     43548.74
 1060.11        2963.00           2328       12356.00     53953.72
 1060.14        2963.25           2331       14054.00     61384.74
 1060.17        2963.50           2335       16399.00     71653.43
 1060.20        2963.75           2339       18699.00     81732.04
 1060.23        2964.00           2342       20186.00     88251.78
 1060.26        2964.25           2346       22607.00     98872.81
 1060.29        2964.50           2349       24537.00    107345.30
 1060.32        2964.75           2353       27148.00    118815.10
 1060.35        2965.00           2356       28673.00    125518.40
 1060.38        2965.25           2360       30863.00    135150.10
 1060.41        2965.50           2363       32496.00    142336.30
 1060.44        2965.75           2367       34321.00    150371.50
 1060.47        2966.00           2370       36172.00    158525.60
 1060.50        2966.25           2374       37445.00    164136.20
 1060.53        2966.50           2378       38629.00    169356.40
 1060.57        2966.75           2381       38590.00    169184.50
 1060.60        2967.00           2385       38893.00    170520.60
 1060.63        2967.25           2388       38616.00    169299.10
 1060.66        2967.50           2392       38716.00    169740.10
 1060.69        2967.75           2395       38283.00    167830.70
 1060.72        2968.00           2399       36972.00    162051.30
 1060.75        2968.25           2402       35982.00    157688.40
 1060.78        2968.50           2406       33611.00    147244.90
 1060.81        2968.75           2409       31702.00    138841.80
 1060.84        2969.00           2413       29776.00    130368.70
 1060.87        2969.25           2417       27736.00    121399.40
 1060.90        2969.50           2420       26317.00    115163.70
 1060.93        2969.75           2424       23979.00    104895.20
 1060.96        2970.00           2427       22248.00     97297.37
 1060.99        2970.25           2431       19759.00     86379.31
 1061.02        2970.50           2434       17949.00     78444.78
 1061.06        2970.75           2438       15661.00     68420.98
 1061.09        2971.00           2441       14061.00     61415.39
 1061.12        2971.25           2445       11818.00     51600.04
 1061.15        2971.50           2449        9806.00     42801.12
 1061.18        2971.75           2452        8206.00     35807.74
 1061.21        2972.00           2456        6242.00     27227.90
 1061.24        2972.25           2459        4464.00     19464.93
 1061.27        2972.50           2463        2178.00      9489.98
 1061.30        2972.75           2466        1030.00      4483.25
 1061.33        2973.00           2470         374.00      1623.02
 1061.36        2973.25           2473         203.00       877.53
 1061.39        2973.50           2477         156.00       672.64
 1061.42        2973.75           2481         141.00       607.25
 1061.45        2974.00           2484         139.00       598.53
 1061.48        2974.25           2488         141.00       607.25
 1061.51        2974.50           2491         148.00       637.76
 1061.54        2974.75           2495         137.00       589.81
 1061.57        2975.00           2498         133.00       572.37
 1061.61        2975.25           2502         118.00       506.98
 1061.64        2975.50           2505         139.00       598.53
 1061.67        2975.75           2509         120.00       515.70
 1061.70        2976.00           2512         136.00       585.45
 1061.73        2976.25           2516         169.00       729.31
 1061.76        2976.50           2520         137.00       589.81
 1061.79        2976.75           2523         139.00       598.53
 1061.82        2977.00           2527         107.00       459.03
 1061.85        2977.25           2530         108.00       463.39
 1061.88        2977.50           2534         112.00       480.83
 1061.91        2977.75           2537         112.00       480.83
 1061.94        2978.00           2541         111.00       476.47
 1061.97        2978.25           2544         126.00       541.86
 1062.00        2978.50           2548         125.00       537.50
 1062.03        2978.75           2552         121.00       520.06
 1062.06        2979.00           2555         106.00       454.67
 1062.09        2979.25           2559         128.00       550.58
 1062.13        2979.50           2562         122.00       524.42
 1062.16        2979.75           2566         101.00       432.87
 1062.19        2980.00           2569         121.00       520.06
 1062.22        2980.25           2573         119.00       511.34
 1062.25        2980.50           2577         105.00       450.31
 1062.28        2980.75           2580         105.00       450.31
 1062.31        2981.00           2584          95.00       406.72
 1062.35        2981.25           2587          96.00       411.08
 1062.38        2981.50           2591          97.00       415.44
 1062.41        2981.75           2594          97.00       415.44
 1062.44        2982.00           2598         100.00       428.52
 1062.47        2982.25           2601          94.00       402.36
 1062.51        2982.50           2605         100.00       428.52
 1062.54        2982.75           2609          88.00       376.20
 1062.57        2983.00           2612         106.00       454.67
 1062.60        2983.25           2616          92.00       393.64
 1062.63        2983.50           2619          90.00       384.92
 1062.66        2983.75           2623          87.00       371.84
 1062.69        2984.00           2626          88.00       376.20
HS scan finished at 17:42:55
end
