************************************************************
  HS Scan of (1) Internal mercury lamp
************************************************************
Integration time is 0.2294 seconds per sample
dh281018Reading 51.44 .94 2.49pr1000
************************************************************
Dead Time -------------------------  3.4E-08 
Number of Cycles Used -------------  4 
Starting Wavelength (Angstroms) ---  2950 
Final Wavelength (Angstoms) -------  2984 
Wavelength Increment (Angstroms) --  .25 
Filter Wheel #1 Position ---------- (1) Ground quartz diffuser (ND=2.32)
Filter Wheel #2 Position ---------- (1) Neutral Density 0.494



************************************************************
HS scan start time = 04:10:30
Dark Count =  .2 


Time (GMT)  Wavelength (Ang)  Step Number  Raw Counts  Counts/Second

  251.40        2950.00           2144        1572.00      6853.38
  251.59        2950.25           2147        1529.00      6665.85
  251.62        2950.50           2151        1526.00      6652.77
  251.65        2950.75           2155        1569.00      6840.30
  251.68        2951.00           2158        1516.00      6609.16
  251.71        2951.25           2162        1568.00      6835.94
  251.74        2951.50           2165        1542.00      6722.55
  251.77        2951.75           2169        1585.00      6910.08
  251.80        2952.00           2172        1518.00      6617.88
  251.83        2952.25           2176        1549.00      6753.08
  251.86        2952.50           2179        1549.00      6753.08
  251.90        2952.75           2183        1588.00      6923.16
  251.93        2953.00           2186        1582.00      6897.00
  251.96        2953.25           2190        1572.00      6853.38
  251.99        2953.50           2193        1537.00      6700.74
  252.02        2953.75           2197        1585.00      6910.08
  252.05        2954.00           2200        1608.00      7010.39
  252.08        2954.25           2204        1608.00      7010.39
  252.11        2954.50           2208        1640.00      7149.95
  252.14        2954.75           2211        1663.00      7250.26
  252.17        2955.00           2215        1627.00      7093.25
  252.20        2955.25           2218        1617.00      7049.64
  252.23        2955.50           2222        1613.00      7032.20
  252.26        2955.75           2225        1660.00      7237.18
  252.29        2956.00           2229        1665.00      7258.98
  252.32        2956.25           2232        1655.00      7215.37
  252.35        2956.50           2236        1676.00      7306.96
  252.38        2956.75           2239        1681.00      7328.77
  252.42        2957.00           2243        1657.00      7224.09
  252.45        2957.25           2246        1692.00      7376.74
  252.48        2957.50           2250        1707.00      7442.16
  252.51        2957.75           2254        1721.00      7503.22
  252.54        2958.00           2257        1743.00      7599.17
  252.57        2958.25           2261        1708.00      7446.52
  252.60        2958.50           2264        1755.00      7651.51
  252.63        2958.75           2268        1751.00      7634.07
  252.66        2959.00           2271        1780.00      7760.55
  252.69        2959.25           2275        1820.00      7935.01
  252.72        2959.50           2278        1776.00      7743.10
  252.75        2959.75           2282        1860.00      8109.47
  252.78        2960.00           2285        1838.00      8013.52
  252.81        2960.25           2289        1843.00      8035.33
  252.84        2960.50           2293        1951.00      8506.38
  252.87        2960.75           2296        1928.00      8406.06
  252.90        2961.00           2300        1989.00      8672.13
  252.94        2961.25           2303        2102.00      9165.02
  252.97        2961.50           2307        3960.00     17271.69
  253.00        2961.75           2310        9239.00     40329.02
  253.03        2962.00           2314       22445.00     98168.44
  253.06        2962.25           2317       34621.00    151699.30
  253.09        2962.50           2321       52555.00    230902.40
  253.12        2962.75           2324       65915.00    290184.60
  253.15        2963.00           2328       84313.00    372217.10
  253.18        2963.25           2331       97409.00    430890.90
  253.21        2963.50           2335      116022.00    514690.50
  253.24        2963.75           2339      134593.00    598783.80
  253.27        2964.00           2342      149608.00    667131.90
  253.30        2964.25           2346      171602.00    767832.00
  253.33        2964.50           2349      187496.00    841040.60
  253.36        2964.75           2353      205667.00    925192.70
  253.39        2965.00           2356      218389.00    984402.30
  253.42        2965.25           2360      236519.00   1069203.00
  253.46        2965.50           2363      252023.00   1142118.00
  253.49        2965.75           2367      270192.00   1228039.00
  253.52        2966.00           2370      283891.00   1293162.00
  253.55        2966.25           2374      300259.00   1371361.00
  253.58        2966.50           2378      314587.00   1440166.00
  253.61        2966.75           2381      321038.00   1471253.00
  253.64        2967.00           2385      323770.00   1484439.00
  253.67        2967.25           2388      324261.00   1486810.00
  253.70        2967.50           2392      324332.00   1487152.00
  253.73        2967.75           2395      323611.00   1483671.00
  253.76        2968.00           2399      320365.00   1468007.00
  253.79        2968.25           2402      312004.00   1427738.00
  253.82        2968.50           2406      298688.00   1363837.00
  253.85        2968.75           2409      287024.00   1308097.00
  253.88        2969.00           2413      271078.00   1232242.00
  253.91        2969.25           2417      251602.00   1140133.00
  253.94        2969.50           2420      236716.00   1070127.00
  253.97        2969.75           2424      217216.00    978933.00
  254.01        2970.00           2427      203589.00    915544.40
  254.04        2970.25           2431      183431.00    822281.80
  254.07        2970.50           2434      168964.00    755717.00
  254.10        2970.75           2438      148831.00    663587.10
  254.13        2971.00           2441      135036.00    600795.80
  254.16        2971.25           2445      115849.00    513909.30
  254.19        2971.50           2449       97285.00    430334.20
  254.22        2971.75           2452       81647.00    360301.50
  254.25        2972.00           2456       62136.00    273391.70
  254.28        2972.25           2459       48640.00    213575.80
  254.31        2972.50           2463       30907.00    135350.30
  254.34        2972.75           2466       17656.00     77167.33
  254.37        2973.00           2470        5924.00     25845.72
  254.41        2973.25           2473        3038.00     13248.34
  254.44        2973.50           2477        2089.00      9108.31
  254.47        2973.75           2481        1951.00      8506.38
  254.50        2974.00           2484        1969.00      8584.90
  254.53        2974.25           2488        1852.00      8074.58
  254.56        2974.50           2491        1850.00      8065.86
  254.59        2974.75           2495        1780.00      7760.55
  254.62        2975.00           2498        1789.00      7799.80
  254.65        2975.25           2502        1803.00      7860.86
  254.68        2975.50           2505        1794.00      7821.61
  254.71        2975.75           2509        1751.00      7634.07
  254.74        2976.00           2512        1710.00      7455.25
  254.77        2976.25           2516        1717.00      7485.78
  254.80        2976.50           2520        1686.00      7350.57
  254.83        2976.75           2523        1666.00      7263.35
  254.86        2977.00           2527        1646.00      7176.12
  254.89        2977.25           2530        1672.00      7289.51
  254.93        2977.50           2534        1653.00      7206.65
  254.96        2977.75           2537        1608.00      7010.39
  254.99        2978.00           2541        1627.00      7093.25
  255.02        2978.25           2544        1607.00      7006.03
  255.05        2978.50           2548        1552.00      6766.16
  255.08        2978.75           2552        1605.00      6997.31
  255.11        2979.00           2555        1564.00      6818.49
  255.14        2979.25           2559        1543.00      6726.91
  255.17        2979.50           2562        1569.00      6840.30
  255.20        2979.75           2566        1570.00      6844.66
  255.23        2980.00           2569        1525.00      6648.41
  255.26        2980.25           2573        1545.00      6735.63
  255.29        2980.50           2577        1488.00      6487.05
  255.32        2980.75           2580        1513.00      6596.07
  255.35        2981.00           2584        1512.00      6591.71
  255.38        2981.25           2587        1522.00      6635.32
  255.41        2981.50           2591        1477.00      6439.07
  255.45        2981.75           2594        1484.00      6469.60
  255.48        2982.00           2598        1510.00      6582.99
  255.51        2982.25           2601        1436.00      6260.27
  255.54        2982.50           2605        1467.00      6395.46
  255.57        2982.75           2609        1409.00      6142.52
  255.60        2983.00           2612        1449.00      6316.96
  255.63        2983.25           2616        1417.00      6177.41
  255.66        2983.50           2619        1428.00      6225.38
  255.69        2983.75           2623        1402.00      6111.99
  255.72        2984.00           2626        1430.00      6234.10
HS scan finished at 04:15:56
end
************************************************************
  HS Scan of (1) Internal mercury lamp
************************************************************
Integration time is 0.2294 seconds per sample
dh281018Reading 51.44 .94 2.84pr1000
************************************************************
Dead Time -------------------------  3.4E-08 
Number of Cycles Used -------------  4 
Starting Wavelength (Angstroms) ---  2950 
Final Wavelength (Angstoms) -------  2984 
Wavelength Increment (Angstroms) --  .25 
Filter Wheel #1 Position ---------- (1) Ground quartz diffuser (ND=2.32)
Filter Wheel #2 Position ---------- (1) Neutral Density 0.494



************************************************************
HS scan start time = 17:37:28
Dark Count =  .7 


Time (GMT)  Wavelength (Ang)  Step Number  Raw Counts  Counts/Second

 1058.36        2950.00           2144        1225.00      5337.94
 1058.55        2950.25           2147        1206.00      5255.08
 1058.58        2950.50           2151        1211.00      5276.88
 1058.61        2950.75           2155        1242.00      5412.07
 1058.64        2951.00           2158        1221.00      5320.49
 1058.67        2951.25           2162        1231.00      5364.10
 1058.70        2951.50           2165        1225.00      5337.94
 1058.73        2951.75           2169        1282.00      5586.50
 1058.76        2952.00           2172        1260.00      5490.56
 1058.79        2952.25           2176        1283.00      5590.86
 1058.83        2952.50           2179        1280.00      5577.78
 1058.86        2952.75           2183        1242.00      5412.07
 1058.89        2953.00           2186        1266.00      5516.73
 1058.92        2953.25           2190        1284.00      5595.22
 1058.95        2953.50           2193        1288.00      5612.67
 1058.98        2953.75           2197        1290.00      5621.39
 1059.01        2954.00           2200        1255.00      5468.76
 1059.04        2954.25           2204        1313.00      5721.69
 1059.07        2954.50           2208        1251.00      5451.32
 1059.10        2954.75           2211        1330.00      5795.82
 1059.13        2955.00           2215        1286.00      5603.95
 1059.16        2955.25           2218        1284.00      5595.22
 1059.19        2955.50           2222        1322.00      5760.94
 1059.22        2955.75           2225        1300.00      5665.00
 1059.25        2956.00           2229        1320.00      5752.22
 1059.28        2956.25           2232        1315.00      5730.41
 1059.31        2956.50           2236        1350.00      5883.04
 1059.35        2956.75           2239        1367.00      5957.18
 1059.38        2957.00           2243        1339.00      5835.07
 1059.41        2957.25           2246        1333.00      5808.91
 1059.44        2957.50           2250        1333.00      5808.91
 1059.47        2957.75           2254        1376.00      5996.43
 1059.50        2958.00           2257        1426.00      6214.48
 1059.53        2958.25           2261        1454.00      6336.59
 1059.56        2958.50           2264        1402.00      6109.81
 1059.59        2958.75           2268        1425.00      6210.12
 1059.62        2959.00           2271        1460.00      6362.75
 1059.65        2959.25           2275        1409.00      6140.34
 1059.68        2959.50           2278        1504.00      6554.64
 1059.71        2959.75           2282        1481.00      6454.34
 1059.74        2960.00           2285        1508.00      6572.09
 1059.77        2960.25           2289        1562.00      6807.59
 1059.80        2960.50           2293        1531.00      6672.39
 1059.83        2960.75           2296        1574.00      6859.93
 1059.87        2961.00           2300        1613.00      7030.01
 1059.90        2961.25           2303        1847.00      8050.59
 1059.93        2961.50           2307        4510.00     19670.08
 1059.96        2961.75           2310       10619.00     46360.29
 1059.99        2962.00           2314       23188.00    101427.20
 1060.02        2962.25           2317       34378.00    150626.90
 1060.05        2962.50           2321       49169.00    215913.60
 1060.08        2962.75           2324       60911.00    267950.10
 1060.11        2963.00           2328       78253.00    345143.80
 1060.14        2963.25           2331       91817.00    405806.00
 1060.17        2963.50           2335      110392.00    489290.00
 1060.20        2963.75           2339      127206.00    565273.50
 1060.23        2964.00           2342      139735.00    622151.80
 1060.26        2964.25           2346      155361.00    693402.60
 1060.29        2964.50           2349      168406.00    753153.40
 1060.32        2964.75           2353      185563.00    832115.10
 1060.35        2965.00           2356      198056.00    889883.40
 1060.39        2965.25           2360      213990.00    963899.20
 1060.42        2965.50           2363      225854.00   1019256.00
 1060.45        2965.75           2367      241169.00   1091031.00
 1060.48        2966.00           2370      252576.00   1144723.00
 1060.51        2966.25           2374      267955.00   1217430.00
 1060.54        2966.50           2378      281478.00   1281667.00
 1060.57        2966.75           2381      286333.00   1304799.00
 1060.60        2967.00           2385      288454.00   1314917.00
 1060.63        2967.25           2388      288867.00   1316888.00
 1060.66        2967.50           2392      289430.00   1319575.00
 1060.69        2967.75           2395      289193.00   1318443.00
 1060.72        2968.00           2399      287594.00   1310814.00
 1060.75        2968.25           2402      282586.00   1286943.00
 1060.78        2968.50           2406      270404.00   1229042.00
 1060.81        2968.75           2409      258633.00   1173315.00
 1060.84        2969.00           2413      242971.00   1099499.00
 1060.87        2969.25           2417      226453.00   1022057.00
 1060.91        2969.50           2420      214482.00    966190.60
 1060.94        2969.75           2424      198128.00    890217.00
 1060.97        2970.00           2427      184247.00    826043.10
 1061.00        2970.25           2431      165374.00    739243.80
 1061.03        2970.50           2434      151903.00    677604.80
 1061.06        2970.75           2438      133372.00    593237.70
 1061.09        2971.00           2441      120526.00    535038.70
 1061.12        2971.25           2445      102477.00    453658.20
 1061.15        2971.50           2449       85346.00    376834.40
 1061.18        2971.75           2452       72734.00    320533.10
 1061.21        2972.00           2456       54623.00    240060.90
 1061.24        2972.25           2459       42178.00    185019.40
 1061.27        2972.50           2463       26078.00    114118.00
 1061.30        2972.75           2466       14972.00     65408.16
 1061.33        2973.00           2470        5572.00     24306.48
 1061.36        2973.25           2473        2900.00     12644.06
 1061.39        2973.50           2477        1737.00      7570.82
 1061.43        2973.75           2481        1616.00      7043.10
 1061.46        2974.00           2484        1590.00      6929.71
 1061.49        2974.25           2488        1535.00      6689.84
 1061.52        2974.50           2491        1482.00      6458.70
 1061.55        2974.75           2495        1492.00      6502.31
 1061.58        2975.00           2498        1477.00      6436.89
 1061.61        2975.25           2502        1435.00      6253.73
 1061.64        2975.50           2505        1453.00      6332.23
 1061.67        2975.75           2509        1427.00      6218.84
 1061.70        2976.00           2512        1439.00      6271.17
 1061.73        2976.25           2516        1400.00      6101.09
 1061.76        2976.50           2520        1404.00      6118.54
 1061.79        2976.75           2523        1342.00      5848.16
 1061.82        2977.00           2527        1354.00      5900.49
 1061.85        2977.25           2530        1335.00      5817.63
 1061.88        2977.50           2534        1336.00      5821.99
 1061.91        2977.75           2537        1334.00      5813.27
 1061.95        2978.00           2541        1306.00      5691.16
 1061.98        2978.25           2544        1297.00      5651.91
 1062.01        2978.50           2548        1286.00      5603.95
 1062.04        2978.75           2552        1281.00      5582.14
 1062.07        2979.00           2555        1268.00      5525.45
 1062.10        2979.25           2559        1221.00      5320.49
 1062.13        2979.50           2562        1255.00      5468.76
 1062.16        2979.75           2566        1254.00      5464.40
 1062.19        2980.00           2569        1259.00      5486.20
 1062.22        2980.25           2573        1257.00      5477.48
 1062.25        2980.50           2577        1237.00      5390.26
 1062.28        2980.75           2580        1183.00      5154.78
 1062.31        2981.00           2584        1197.00      5215.83
 1062.34        2981.25           2587        1187.00      5172.23
 1062.37        2981.50           2591        1204.00      5246.36
 1062.40        2981.75           2594        1210.00      5272.52
 1062.43        2982.00           2598        1203.00      5242.00
 1062.46        2982.25           2601        1180.00      5141.70
 1062.50        2982.50           2605        1148.00      5002.16
 1062.53        2982.75           2609        1186.00      5167.87
 1062.56        2983.00           2612        1204.00      5246.36
 1062.59        2983.25           2616        1154.00      5028.32
 1062.62        2983.50           2619        1174.00      5115.54
 1062.65        2983.75           2623        1162.00      5063.21
 1062.68        2984.00           2626        1153.00      5023.96
HS scan finished at 17:42:54
end
