************************************************************
  HS Scan of (1) Internal mercury lamp
************************************************************
Integration time is 0.2294 seconds per sample
dh011117Reading 51.44 .94 2.9pr1000
************************************************************
Dead Time -------------------------  3.4E-08 
Number of Cycles Used -------------  4 
Starting Wavelength (Angstroms) ---  2950 
Final Wavelength (Angstoms) -------  2984 
Wavelength Increment (Angstroms) --  .25 
Filter Wheel #1 Position ---------- (1) Ground quartz diffuser (ND=2.32)
Filter Wheel #2 Position ---------- (1) Neutral Density 0.494



************************************************************
HS scan start time = 04:14:36
Dark Count =  .8 


Time (GMT)  Wavelength (Ang)  Step Number  Raw Counts  Counts/Second

  255.49        2950.00           2144         149.00       646.05
  255.69        2950.25           2147         112.00       484.75
  255.72        2950.50           2151         131.00       567.58
  255.75        2950.75           2155         118.00       510.91
  255.78        2951.00           2158         121.00       523.98
  255.81        2951.25           2162         138.00       598.09
  255.84        2951.50           2165         158.00       685.28
  255.87        2951.75           2169         123.00       532.70
  255.90        2952.00           2172         162.00       702.72
  255.93        2952.25           2176         117.00       506.55
  255.96        2952.50           2179         145.00       628.61
  255.99        2952.75           2183         122.00       528.34
  256.02        2953.00           2186         146.00       632.97
  256.05        2953.25           2190         132.00       571.94
  256.08        2953.50           2193         144.00       624.25
  256.11        2953.75           2197         132.00       571.94
  256.14        2954.00           2200         116.00       502.19
  256.17        2954.25           2204         133.00       576.30
  256.21        2954.50           2208         139.00       602.45
  256.24        2954.75           2211         134.00       580.66
  256.27        2955.00           2215         150.00       650.41
  256.30        2955.25           2218         149.00       646.05
  256.33        2955.50           2222         144.00       624.25
  256.36        2955.75           2225         130.00       563.22
  256.39        2956.00           2229         147.00       637.33
  256.42        2956.25           2232         166.00       720.16
  256.45        2956.50           2236         153.00       663.48
  256.48        2956.75           2239         143.00       619.89
  256.51        2957.00           2243         143.00       619.89
  256.54        2957.25           2246         149.00       646.05
  256.57        2957.50           2250         144.00       624.25
  256.60        2957.75           2254         153.00       663.48
  256.63        2958.00           2257         142.00       615.53
  256.66        2958.25           2261         145.00       628.61
  256.69        2958.50           2264         142.00       615.53
  256.73        2958.75           2268         160.00       694.00
  256.76        2959.00           2271         179.00       776.83
  256.79        2959.25           2275         159.00       689.64
  256.82        2959.50           2278         163.00       707.08
  256.85        2959.75           2282         164.00       711.44
  256.88        2960.00           2285         165.00       715.80
  256.91        2960.25           2289         167.00       724.52
  256.94        2960.50           2293         176.00       763.75
  256.97        2960.75           2296         183.00       794.27
  257.00        2961.00           2300         236.00      1025.32
  257.03        2961.25           2303         396.00      1722.86
  257.06        2961.50           2307        1438.00      6266.37
  257.09        2961.75           2310        2823.00     12307.68
  257.12        2962.00           2314        5382.00     23476.45
  257.15        2962.25           2317        7583.00     33089.52
  257.18        2962.50           2321       10668.00     46574.13
  257.22        2962.75           2324       12675.00     55353.42
  257.25        2963.00           2328       15440.00     67457.07
  257.28        2963.25           2331       17432.00     76183.13
  257.31        2963.50           2335       20452.00     89422.29
  257.34        2963.75           2339       23441.00    102537.30
  257.37        2964.00           2342       25600.00    112017.80
  257.40        2964.25           2346       28589.00    125153.00
  257.43        2964.50           2349       30750.00    134656.90
  257.46        2964.75           2353       33592.00    147165.20
  257.49        2965.00           2356       35760.00    156714.20
  257.52        2965.25           2360       38392.00    168315.30
  257.55        2965.50           2363       40314.00    176792.70
  257.58        2965.75           2367       43235.00    189685.90
  257.61        2966.00           2370       45258.00    198621.90
  257.64        2966.25           2374       47422.00    208186.80
  257.67        2966.50           2378       48683.00    213763.30
  257.70        2966.75           2381       49221.00    216143.20
  257.74        2967.00           2385       49191.00    216010.50
  257.77        2967.25           2388       49196.00    216032.60
  257.80        2967.50           2392       49084.00    215537.20
  257.83        2967.75           2395       49002.00    215174.40
  257.86        2968.00           2399       47645.00    209172.80
  257.89        2968.25           2402       45886.00    201397.00
  257.92        2968.50           2406       43419.00    190498.40
  257.95        2968.75           2409       41239.00    180874.40
  257.98        2969.00           2413       38425.00    168460.80
  258.01        2969.25           2417       35451.00    155352.90
  258.04        2969.50           2420       33676.00    147535.10
  258.07        2969.75           2424       30828.00    135000.10
  258.10        2970.00           2427       28533.00    124906.90
  258.13        2970.25           2431       25648.00    112228.60
  258.16        2970.50           2434       23583.00    103160.70
  258.19        2970.75           2438       20432.00     89334.57
  258.22        2971.00           2441       18259.00     79807.37
  258.25        2971.25           2445       15212.00     66458.63
  258.29        2971.50           2449       12425.00     54259.56
  258.32        2971.75           2452       10567.00     46132.46
  258.35        2972.00           2456        8083.00     35274.19
  258.38        2972.25           2459        6107.00     26642.26
  258.41        2972.50           2463        3359.00     14646.35
  258.44        2972.75           2466        1652.00      7199.67
  258.47        2973.00           2470         451.00      1962.64
  258.50        2973.25           2473         243.00      1055.84
  258.53        2973.50           2477         191.00       829.14
  258.56        2973.75           2481         177.00       768.11
  258.59        2974.00           2484         182.00       789.91
  258.62        2974.25           2488         170.00       737.59
  258.65        2974.50           2491         170.00       737.59
  258.68        2974.75           2495         167.00       724.52
  258.71        2975.00           2498         162.00       702.72
  258.74        2975.25           2502         157.00       680.92
  258.77        2975.50           2505         153.00       663.48
  258.81        2975.75           2509         148.00       641.69
  258.84        2976.00           2512         151.00       654.77
  258.87        2976.25           2516         149.00       646.05
  258.90        2976.50           2520         149.00       646.05
  258.93        2976.75           2523         163.00       707.08
  258.96        2977.00           2527         137.00       593.73
  258.99        2977.25           2530         149.00       646.05
  259.02        2977.50           2534         164.00       711.44
  259.05        2977.75           2537         144.00       624.25
  259.08        2978.00           2541         152.00       659.13
  259.11        2978.25           2544         135.00       585.02
  259.14        2978.50           2548         148.00       641.69
  259.17        2978.75           2552         156.00       676.56
  259.20        2979.00           2555         128.00       554.50
  259.23        2979.25           2559         149.00       646.05
  259.26        2979.50           2562         129.00       558.86
  259.29        2979.75           2566         146.00       632.97
  259.33        2980.00           2569         163.00       707.08
  259.36        2980.25           2573         115.00       497.83
  259.39        2980.50           2577         159.00       689.64
  259.42        2980.75           2580         108.00       467.31
  259.45        2981.00           2584         121.00       523.98
  259.48        2981.25           2587         137.00       593.73
  259.51        2981.50           2591         148.00       641.69
  259.54        2981.75           2594         128.00       554.50
  259.57        2982.00           2598         117.00       506.55
  259.60        2982.25           2601         141.00       611.17
  259.63        2982.50           2605         121.00       523.98
  259.66        2982.75           2609         155.00       672.20
  259.69        2983.00           2612         130.00       563.22
  259.72        2983.25           2616         134.00       580.66
  259.75        2983.50           2619         112.00       484.75
  259.78        2983.75           2623         112.00       484.75
  259.81        2984.00           2626         108.00       467.31
HS scan finished at 04:20:02
end
************************************************************
  HS Scan of (1) Internal mercury lamp
************************************************************
Integration time is 0.2294 seconds per sample
dh011117Reading 51.44 .94 3.29pr1000
************************************************************
Dead Time -------------------------  3.4E-08 
Number of Cycles Used -------------  4 
Starting Wavelength (Angstroms) ---  2950 
Final Wavelength (Angstoms) -------  2984 
Wavelength Increment (Angstroms) --  .25 
Filter Wheel #1 Position ---------- (1) Ground quartz diffuser (ND=2.32)
Filter Wheel #2 Position ---------- (1) Neutral Density 0.494



************************************************************
HS scan start time = 17:37:26
Dark Count =  1.9 


Time (GMT)  Wavelength (Ang)  Step Number  Raw Counts  Counts/Second

 1058.33        2950.00           2144          57.00       240.19
 1058.52        2950.25           2147          54.00       227.12
 1058.55        2950.50           2151          62.00       261.99
 1058.58        2950.75           2155          42.00       174.80
 1058.61        2951.00           2158          55.00       231.48
 1058.64        2951.25           2162          52.00       218.40
 1058.67        2951.50           2165          57.00       240.19
 1058.70        2951.75           2169          64.00       270.71
 1058.73        2952.00           2172          60.00       253.27
 1058.77        2952.25           2176          54.00       227.12
 1058.80        2952.50           2179          52.00       218.40
 1058.83        2952.75           2183          48.00       200.96
 1058.86        2953.00           2186          59.00       248.91
 1058.89        2953.25           2190          63.00       266.35
 1058.92        2953.50           2193          59.00       248.91
 1058.95        2953.75           2197          50.00       209.68
 1058.98        2954.00           2200          59.00       248.91
 1059.01        2954.25           2204          62.00       261.99
 1059.04        2954.50           2208          55.00       231.48
 1059.07        2954.75           2211          62.00       261.99
 1059.10        2955.00           2215          56.00       235.83
 1059.13        2955.25           2218          55.00       231.48
 1059.16        2955.50           2222          58.00       244.55
 1059.19        2955.75           2225          54.00       227.12
 1059.22        2956.00           2229          59.00       248.91
 1059.25        2956.25           2232          65.00       275.07
 1059.29        2956.50           2236          61.00       257.63
 1059.32        2956.75           2239          63.00       266.35
 1059.35        2957.00           2243          62.00       261.99
 1059.38        2957.25           2246          58.00       244.55
 1059.41        2957.50           2250          65.00       275.07
 1059.44        2957.75           2254          62.00       261.99
 1059.47        2958.00           2257          67.00       283.79
 1059.50        2958.25           2261          71.00       301.22
 1059.53        2958.50           2264          66.00       279.43
 1059.56        2958.75           2268          70.00       296.86
 1059.59        2959.00           2271          62.00       261.99
 1059.62        2959.25           2275          65.00       275.07
 1059.65        2959.50           2278          69.00       292.51
 1059.68        2959.75           2282          67.00       283.79
 1059.71        2960.00           2285          62.00       261.99
 1059.74        2960.25           2289          73.00       309.94
 1059.77        2960.50           2293          71.00       301.22
 1059.81        2960.75           2296          78.00       331.74
 1059.84        2961.00           2300          82.00       349.18
 1059.87        2961.25           2303         161.00       693.56
 1059.90        2961.50           2307         579.00      2515.91
 1059.93        2961.75           2310        1227.00      5341.42
 1059.96        2962.00           2314        2121.00      9240.48
 1059.99        2962.25           2317        2768.00     12062.93
 1060.02        2962.50           2321        3752.00     16356.52
 1060.05        2962.75           2324        4607.00     20088.26
 1060.08        2963.00           2328        5731.00     24995.51
 1060.11        2963.25           2331        6456.00     28161.65
 1060.14        2963.50           2335        7454.00     32521.12
 1060.17        2963.75           2339        8489.00     37043.58
 1060.20        2964.00           2342        9420.00     41112.79
 1060.23        2964.25           2346       10462.00     45668.50
 1060.26        2964.50           2349       11222.00     48992.18
 1060.29        2964.75           2353       12310.00     53751.59
 1060.33        2965.00           2356       13101.00     57212.76
 1060.36        2965.25           2360       14117.00     61659.65
 1060.39        2965.50           2363       14873.00     64969.43
 1060.42        2965.75           2367       16067.00     70198.30
 1060.45        2966.00           2370       16887.00     73790.40
 1060.48        2966.25           2374       17546.00     76677.85
 1060.51        2966.50           2378       17891.00     78189.71
 1060.54        2966.75           2381       18023.00     78768.21
 1060.57        2967.00           2385       18107.00     79136.35
 1060.60        2967.25           2388       18166.00     79394.94
 1060.63        2967.50           2392       18169.00     79408.09
 1060.66        2967.75           2395       17956.00     78474.58
 1060.69        2968.00           2399       17258.00     75415.88
 1060.72        2968.25           2402       16674.00     72857.25
 1060.75        2968.50           2406       15773.00     68910.61
 1060.78        2968.75           2409       15008.00     65560.54
 1060.81        2969.00           2413       14069.00     61449.53
 1060.85        2969.25           2417       12926.00     56446.94
 1060.88        2969.50           2420       12212.00     53322.83
 1060.91        2969.75           2424       10878.00     47487.68
 1060.94        2970.00           2427        9974.00     43534.75
 1060.97        2970.25           2431        8974.00     39163.27
 1061.00        2970.50           2434        8134.00     35492.24
 1061.03        2970.75           2438        7153.00     31206.15
 1061.06        2971.00           2441        6437.00     28078.67
 1061.09        2971.25           2445        5512.00     24039.26
 1061.12        2971.50           2449        4746.00     20695.03
 1061.15        2971.75           2452        3884.00     16932.59
 1061.18        2972.00           2456        2695.00     11744.45
 1061.21        2972.25           2459        1958.00      8529.50
 1061.24        2972.50           2463        1081.00      4704.76
 1061.27        2972.75           2466         580.00      2520.27
 1061.30        2973.00           2470         186.00       802.55
 1061.33        2973.25           2473         135.00       580.22
 1061.36        2973.50           2477          75.00       318.66
 1061.40        2973.75           2481          85.00       362.25
 1061.43        2974.00           2484          75.00       318.66
 1061.46        2974.25           2488         101.00       432.00
 1061.49        2974.50           2491          69.00       292.51
 1061.52        2974.75           2495          75.00       318.66
 1061.55        2975.00           2498          71.00       301.22
 1061.58        2975.25           2502          69.00       292.51
 1061.61        2975.50           2505          62.00       261.99
 1061.64        2975.75           2509          65.00       275.07
 1061.67        2976.00           2512          63.00       266.35
 1061.70        2976.25           2516          67.00       283.79
 1061.73        2976.50           2520          65.00       275.07
 1061.76        2976.75           2523          60.00       253.27
 1061.79        2977.00           2527          65.00       275.07
 1061.82        2977.25           2530          59.00       248.91
 1061.85        2977.50           2534          62.00       261.99
 1061.89        2977.75           2537          61.00       257.63
 1061.92        2978.00           2541          60.00       253.27
 1061.95        2978.25           2544          60.00       253.27
 1061.98        2978.50           2548          56.00       235.83
 1062.01        2978.75           2552          55.00       231.48
 1062.04        2979.00           2555          54.00       227.12
 1062.07        2979.25           2559          58.00       244.55
 1062.10        2979.50           2562          51.00       214.04
 1062.13        2979.75           2566          55.00       231.48
 1062.16        2980.00           2569          52.00       218.40
 1062.19        2980.25           2573          61.00       257.63
 1062.22        2980.50           2577          56.00       235.83
 1062.25        2980.75           2580          53.00       222.76
 1062.28        2981.00           2584          53.00       222.76
 1062.31        2981.25           2587          54.00       227.12
 1062.34        2981.50           2591          54.00       227.12
 1062.37        2981.75           2594          53.00       222.76
 1062.40        2982.00           2598          54.00       227.12
 1062.44        2982.25           2601          52.00       218.40
 1062.47        2982.50           2605          46.00       192.24
 1062.50        2982.75           2609          54.00       227.12
 1062.53        2983.00           2612          46.00       192.24
 1062.56        2983.25           2616          53.00       222.76
 1062.59        2983.50           2619          44.00       183.52
 1062.62        2983.75           2623          48.00       200.96
 1062.65        2984.00           2626          44.00       183.52
HS scan finished at 17:42:52
end
