************************************************************
  HS Scan of (1) Internal mercury lamp
************************************************************
Integration time is 0.2294 seconds per sample
dh011118Reading 51.44 .94 3pr1000
************************************************************
Dead Time -------------------------  3.4E-08 
Number of Cycles Used -------------  4 
Starting Wavelength (Angstroms) ---  2950 
Final Wavelength (Angstoms) -------  2984 
Wavelength Increment (Angstroms) --  .25 
Filter Wheel #1 Position ---------- (1) Ground quartz diffuser (ND=2.32)
Filter Wheel #2 Position ---------- (1) Neutral Density 0.494



************************************************************
HS scan start time = 04:14:10
Dark Count =  1 


Time (GMT)  Wavelength (Ang)  Step Number  Raw Counts  Counts/Second

  255.07        2950.00           2144        1576.00      6867.34
  255.26        2950.25           2147        1520.00      6623.11
  255.29        2950.50           2151        1507.00      6566.42
  255.32        2950.75           2155        1550.00      6753.95
  255.35        2951.00           2158        1536.00      6692.89
  255.38        2951.25           2162        1600.00      6972.01
  255.41        2951.50           2165        1572.00      6849.90
  255.45        2951.75           2169        1604.00      6989.46
  255.48        2952.00           2172        1573.00      6854.26
  255.51        2952.25           2176        1567.00      6828.09
  255.54        2952.50           2179        1583.00      6897.87
  255.57        2952.75           2183        1597.00      6958.93
  255.60        2953.00           2186        1571.00      6845.53
  255.63        2953.25           2190        1603.00      6985.09
  255.66        2953.50           2193        1575.00      6862.98
  255.69        2953.75           2197        1578.00      6876.06
  255.72        2954.00           2200        1594.00      6945.84
  255.75        2954.25           2204        1601.00      6976.37
  255.78        2954.50           2208        1630.00      7102.85
  255.81        2954.75           2211        1617.00      7046.15
  255.84        2955.00           2215        1607.00      7002.54
  255.87        2955.25           2218        1638.00      7137.74
  255.90        2955.50           2222        1669.00      7272.94
  255.93        2955.75           2225        1604.00      6989.46
  255.97        2956.00           2229        1676.00      7303.47
  256.00        2956.25           2232        1703.00      7421.23
  256.03        2956.50           2236        1661.00      7238.05
  256.06        2956.75           2239        1668.00      7268.58
  256.09        2957.00           2243        1687.00      7351.45
  256.12        2957.25           2246        1726.00      7521.54
  256.15        2957.50           2250        1724.00      7512.82
  256.18        2957.75           2254        1748.00      7617.49
  256.21        2958.00           2257        1735.00      7560.79
  256.24        2958.25           2261        1731.00      7543.35
  256.27        2958.50           2264        1755.00      7648.02
  256.30        2958.75           2268        1814.00      7905.35
  256.33        2959.00           2271        1825.00      7953.33
  256.36        2959.25           2275        1827.00      7962.05
  256.39        2959.50           2278        1840.00      8018.75
  256.42        2959.75           2282        1897.00      8267.36
  256.45        2960.00           2285        1872.00      8158.32
  256.49        2960.25           2289        1982.00      8638.11
  256.52        2960.50           2293        1981.00      8633.75
  256.55        2960.75           2296        2020.00      8803.86
  256.58        2961.00           2300        2113.00      9209.51
  256.61        2961.25           2303        2704.00     11787.64
  256.64        2961.50           2307        7688.00     33547.40
  256.67        2961.75           2310       17819.00     77878.13
  256.70        2962.00           2314       36382.00    159454.10
  256.73        2962.25           2317       51337.00    225506.20
  256.76        2962.50           2321       72711.00    320429.30
  256.79        2962.75           2324       89503.00    395438.00
  256.82        2963.00           2328      112659.00    499510.30
  256.85        2963.25           2331      131984.00    586936.80
  256.88        2963.50           2335      154108.00    687674.90
  256.91        2963.75           2339      176280.00    789337.10
  256.94        2964.00           2342      194435.00    873114.50
  256.99        2964.25           2346      220427.00    993906.30
  257.02        2964.50           2349      238662.00   1079256.00
  257.05        2964.75           2353      260950.00   1184266.00
  257.08        2965.00           2356      277015.00   1260433.00
  257.11        2965.25           2360      298182.00   1361411.00
  257.14        2965.50           2363      315524.00   1444673.00
  257.17        2965.75           2367      337632.00   1551525.00
  257.20        2966.00           2370      352871.00   1625645.00
  257.23        2966.25           2374      370962.00   1714138.00
  257.27        2966.50           2378      381998.00   1768393.00
  257.30        2966.75           2381      385948.00   1787861.00
  257.33        2967.00           2385      387661.00   1796313.00
  257.36        2967.25           2388      386927.00   1792691.00
  257.39        2967.50           2392      387169.00   1793885.00
  257.42        2967.75           2395      386088.00   1788552.00
  257.45        2968.00           2399      379633.00   1756749.00
  257.48        2968.25           2402      367889.00   1699068.00
  257.51        2968.50           2406      346773.00   1595939.00
  257.54        2968.75           2409      332967.00   1528912.00
  257.57        2969.00           2413      314412.00   1439320.00
  257.60        2969.25           2417      292778.00   1335563.00
  257.63        2969.50           2420      275949.00   1255367.00
  257.66        2969.75           2424      254112.00   1151967.00
  257.69        2970.00           2427      237032.00   1071606.00
  257.72        2970.25           2431      213495.00    961592.70
  257.75        2970.50           2434      197199.00    885911.80
  257.78        2970.75           2438      172868.00    773646.10
  257.82        2971.00           2441      155820.00    695499.40
  257.85        2971.25           2445      134258.00    597259.00
  257.88        2971.50           2449      112371.00    498211.30
  257.91        2971.75           2452       95925.00    424226.80
  257.94        2972.00           2456       71307.00    314175.10
  257.97        2972.25           2459       53596.00    235509.50
  258.00        2972.50           2463       32000.00    140156.30
  258.03        2972.75           2466       18305.00     80008.10
  258.06        2973.00           2470        6507.00     28388.33
  258.09        2973.25           2473        3192.00     13916.78
  258.12        2973.50           2477        2208.00      9623.90
  258.15        2973.75           2481        2016.00      8786.41
  258.18        2974.00           2484        1977.00      8616.30
  258.21        2974.25           2488        1964.00      8559.60
  258.24        2974.50           2491        1941.00      8459.28
  258.27        2974.75           2495        1904.00      8297.89
  258.30        2975.00           2498        1870.00      8149.60
  258.34        2975.25           2502        1878.00      8184.49
  258.37        2975.50           2505        1818.00      7922.80
  258.40        2975.75           2509        1820.00      7931.52
  258.43        2976.00           2512        1784.00      7774.51
  258.46        2976.25           2516        1806.00      7870.46
  258.49        2976.50           2520        1753.00      7639.30
  258.52        2976.75           2523        1723.00      7508.46
  258.55        2977.00           2527        1721.00      7499.73
  258.58        2977.25           2530        1680.00      7320.92
  258.61        2977.50           2534        1674.00      7294.75
  258.64        2977.75           2537        1657.00      7220.60
  258.67        2978.00           2541        1639.00      7142.10
  258.71        2978.25           2544        1634.00      7120.29
  258.75        2978.50           2548        1589.00      6924.04
  258.78        2978.75           2552        1592.00      6937.12
  258.81        2979.00           2555        1652.00      7198.80
  258.84        2979.25           2559        1606.00      6998.18
  258.87        2979.50           2562        1558.00      6788.84
  258.91        2979.75           2566        1574.00      6858.62
  258.95        2980.00           2569        1571.00      6845.53
  258.98        2980.25           2573        1526.00      6649.28
  259.01        2980.50           2577        1550.00      6753.95
  259.04        2980.75           2580        1526.00      6649.28
  259.07        2981.00           2584        1524.00      6640.56
  259.10        2981.25           2587        1553.00      6767.03
  259.13        2981.50           2591        1577.00      6871.70
  259.16        2981.75           2594        1524.00      6640.56
  259.19        2982.00           2598        1501.00      6540.25
  259.22        2982.25           2601        1502.00      6544.61
  259.25        2982.50           2605        1478.00      6439.95
  259.28        2982.75           2609        1459.00      6357.08
  259.31        2983.00           2612        1467.00      6391.97
  259.34        2983.25           2616        1459.00      6357.08
  259.38        2983.50           2619        1464.00      6378.89
  259.41        2983.75           2623        1462.00      6370.17
  259.44        2984.00           2626        1480.00      6448.67
HS scan finished at 04:19:39
end
************************************************************
  HS Scan of (1) Internal mercury lamp
************************************************************
Integration time is 0.2294 seconds per sample
dh011118Reading 51.44 .94 3.01pr1000
************************************************************
Dead Time -------------------------  3.4E-08 
Number of Cycles Used -------------  4 
Starting Wavelength (Angstroms) ---  2950 
Final Wavelength (Angstoms) -------  2984 
Wavelength Increment (Angstroms) --  .25 
Filter Wheel #1 Position ---------- (1) Ground quartz diffuser (ND=2.32)
Filter Wheel #2 Position ---------- (1) Neutral Density 0.494



************************************************************
HS scan start time = 17:37:30
Dark Count =  .9 


Time (GMT)  Wavelength (Ang)  Step Number  Raw Counts  Counts/Second

 1058.39        2950.00           2144        1322.00      5760.06
 1058.59        2950.25           2147        1322.00      5760.06
 1058.62        2950.50           2151        1314.00      5725.18
 1058.65        2950.75           2155        1262.00      5498.41
 1058.68        2951.00           2158        1290.00      5620.52
 1058.71        2951.25           2162        1296.00      5646.68
 1058.74        2951.50           2165        1249.00      5441.72
 1058.77        2951.75           2169        1310.00      5707.73
 1058.80        2952.00           2172        1287.00      5607.43
 1058.83        2952.25           2176        1306.00      5690.29
 1058.86        2952.50           2179        1309.00      5703.37
 1058.89        2952.75           2183        1302.00      5672.85
 1058.92        2953.00           2186        1333.00      5808.03
 1058.95        2953.25           2190        1314.00      5725.18
 1058.99        2953.50           2193        1309.00      5703.37
 1059.02        2953.75           2197        1335.00      5816.76
 1059.05        2954.00           2200        1322.00      5760.06
 1059.08        2954.25           2204        1332.00      5803.67
 1059.11        2954.50           2208        1336.00      5821.12
 1059.14        2954.75           2211        1353.00      5895.25
 1059.17        2955.00           2215        1365.00      5947.58
 1059.20        2955.25           2218        1387.00      6043.53
 1059.23        2955.50           2222        1355.00      5903.98
 1059.26        2955.75           2225        1394.00      6074.05
 1059.29        2956.00           2229        1410.00      6143.83
 1059.32        2956.25           2232        1368.00      5960.67
 1059.35        2956.50           2236        1382.00      6021.72
 1059.38        2956.75           2239        1399.00      6095.86
 1059.41        2957.00           2243        1440.00      6274.66
 1059.44        2957.25           2246        1418.00      6178.72
 1059.47        2957.50           2250        1468.00      6396.77
 1059.51        2957.75           2254        1460.00      6361.88
 1059.54        2958.00           2257        1438.00      6265.94
 1059.57        2958.25           2261        1475.00      6427.30
 1059.60        2958.50           2264        1458.00      6353.16
 1059.63        2958.75           2268        1483.00      6462.19
 1059.66        2959.00           2271        1528.00      6658.44
 1059.69        2959.25           2275        1550.00      6754.39
 1059.72        2959.50           2278        1498.00      6527.60
 1059.75        2959.75           2282        1580.00      6885.22
 1059.78        2960.00           2285        1601.00      6976.81
 1059.81        2960.25           2289        1592.00      6937.56
 1059.84        2960.50           2293        1619.00      7055.31
 1059.87        2960.75           2296        1617.00      7046.59
 1059.90        2961.00           2300        1726.00      7521.98
 1059.93        2961.25           2303        2015.00      8782.48
 1059.96        2961.50           2307        5059.00     22065.81
 1059.99        2961.75           2310       12476.00     54482.26
 1060.03        2962.00           2314       26090.00    114169.90
 1060.06        2962.25           2317       37616.00    164893.60
 1060.09        2962.50           2321       55375.00    243392.50
 1060.12        2962.75           2324       70132.00    308943.50
 1060.15        2963.00           2328       90517.00    399980.30
 1060.18        2963.25           2331      104558.00    463017.20
 1060.21        2963.50           2335      122859.00    545590.30
 1060.24        2963.75           2339      140373.00    625053.10
 1060.27        2964.00           2342      156093.00    696748.00
 1060.30        2964.25           2346      176824.00    791840.90
 1060.33        2964.50           2349      191216.00    858225.30
 1060.36        2964.75           2353      209053.00    940924.60
 1060.39        2965.00           2356      221731.00    999993.40
 1060.42        2965.25           2360      237561.00   1074089.00
 1060.45        2965.50           2363      251293.00   1138673.00
 1060.49        2965.75           2367      268191.00   1218547.00
 1060.52        2966.00           2370      282218.00   1285189.00
 1060.55        2966.25           2374      298605.00   1363436.00
 1060.58        2966.50           2378      312596.00   1430582.00
 1060.61        2966.75           2381      316320.00   1448507.00
 1060.64        2967.00           2385      318446.00   1458751.00
 1060.67        2967.25           2388      319058.00   1461701.00
 1060.70        2967.50           2392      319127.00   1462034.00
 1060.73        2967.75           2395      318279.00   1457946.00
 1060.77        2968.00           2399      316263.00   1448233.00
 1060.80        2968.25           2402      308375.00   1410291.00
 1060.83        2968.50           2406      293063.00   1336926.00
 1060.86        2968.75           2409      281290.00   1280771.00
 1060.89        2969.00           2413      265937.00   1207868.00
 1060.92        2969.25           2417      249430.00   1129894.00
 1060.95        2969.50           2420      234994.00   1062048.00
 1060.98        2969.75           2424      214587.00    966678.70
 1061.01        2970.00           2427      200757.00    902402.40
 1061.04        2970.25           2431      181797.00    814745.00
 1061.07        2970.50           2434      167826.00    750490.60
 1061.10        2970.75           2438      148628.00    662658.00
 1061.13        2971.00           2441      134770.00    599584.50
 1061.16        2971.25           2445      115668.00    513089.00
 1061.19        2971.50           2449       93258.00    412264.60
 1061.22        2971.75           2452       77662.00    342505.50
 1061.26        2972.00           2456       59032.00    259609.70
 1061.29        2972.25           2459       45229.00    198493.30
 1061.32        2972.50           2463       27925.00    122233.60
 1061.35        2972.75           2466       16179.00     70693.25
 1061.38        2973.00           2470        5857.00     25550.09
 1061.41        2973.25           2473        2856.00     12451.22
 1061.44        2973.50           2477        1800.00      7844.73
 1061.47        2973.75           2481        1704.00      7426.02
 1061.50        2974.00           2484        1656.00      7216.68
 1061.53        2974.25           2488        1643.00      7159.98
 1061.56        2974.50           2491        1599.00      6968.09
 1061.59        2974.75           2495        1613.00      7029.14
 1061.62        2975.00           2498        1567.00      6828.53
 1061.65        2975.25           2502        1533.00      6680.24
 1061.68        2975.50           2505        1504.00      6553.77
 1061.71        2975.75           2509        1488.00      6483.99
 1061.74        2976.00           2512        1476.00      6431.66
 1061.78        2976.25           2516        1453.00      6331.35
 1061.81        2976.50           2520        1433.00      6244.13
 1061.84        2976.75           2523        1450.00      6318.27
 1061.87        2977.00           2527        1398.00      6091.50
 1061.90        2977.25           2530        1427.00      6217.97
 1061.93        2977.50           2534        1375.00      5991.19
 1061.96        2977.75           2537        1342.00      5847.28
 1061.99        2978.00           2541        1358.00      5917.06
 1062.02        2978.25           2544        1370.00      5969.39
 1062.05        2978.50           2548        1345.00      5860.37
 1062.08        2978.75           2552        1326.00      5777.51
 1062.11        2979.00           2555        1338.00      5829.84
 1062.14        2979.25           2559        1297.00      5651.04
 1062.17        2979.50           2562        1300.00      5664.13
 1062.20        2979.75           2566        1297.00      5651.04
 1062.23        2980.00           2569        1303.00      5677.21
 1062.26        2980.25           2573        1268.00      5524.58
 1062.29        2980.50           2577        1280.00      5576.91
 1062.33        2980.75           2580        1285.00      5598.71
 1062.36        2981.00           2584        1247.00      5433.00
 1062.39        2981.25           2587        1272.00      5542.02
 1062.42        2981.50           2591        1244.00      5419.92
 1062.45        2981.75           2594        1252.00      5454.80
 1062.48        2982.00           2598        1221.00      5319.62
 1062.51        2982.25           2601        1262.00      5498.41
 1062.54        2982.50           2605        1216.00      5297.82
 1062.57        2982.75           2609        1238.00      5393.75
 1062.60        2983.00           2612        1253.00      5459.17
 1062.63        2983.25           2616        1215.00      5293.46
 1062.66        2983.50           2619        1211.00      5276.01
 1062.69        2983.75           2623        1222.00      5323.98
 1062.72        2984.00           2626        1257.00      5476.61
HS scan finished at 17:42:57
end
