************************************************************
  HS Scan of (1) Internal mercury lamp
************************************************************
Integration time is 0.2294 seconds per sample
dh281017Reading 51.44 .94 2.66pr1000
************************************************************
Dead Time -------------------------  3.4E-08 
Number of Cycles Used -------------  4 
Starting Wavelength (Angstroms) ---  2950 
Final Wavelength (Angstoms) -------  2984 
Wavelength Increment (Angstroms) --  .25 
Filter Wheel #1 Position ---------- (1) Ground quartz diffuser (ND=2.32)
Filter Wheel #2 Position ---------- (1) Neutral Density 0.494



************************************************************
HS scan start time = 04:07:54
Dark Count =  .3 


Time (GMT)  Wavelength (Ang)  Step Number  Raw Counts  Counts/Second

  248.79        2950.00           2144          99.00       430.26
  248.98        2950.25           2147          93.00       404.10
  249.01        2950.50           2151          95.00       412.82
  249.04        2950.75           2155          97.00       421.54
  249.08        2951.00           2158          96.00       417.18
  249.11        2951.25           2162          89.00       386.67
  249.14        2951.50           2165         112.00       486.93
  249.17        2951.75           2169         118.00       513.09
  249.20        2952.00           2172         122.00       530.52
  249.23        2952.25           2176         101.00       438.98
  249.26        2952.50           2179         100.00       434.62
  249.29        2952.75           2183         103.00       447.70
  249.32        2953.00           2186         100.00       434.62
  249.35        2953.25           2190         104.00       452.06
  249.38        2953.50           2193          96.00       417.18
  249.41        2953.75           2197         101.00       438.98
  249.44        2954.00           2200         120.00       521.81
  249.47        2954.25           2204         102.00       443.34
  249.50        2954.50           2208         137.00       595.91
  249.53        2954.75           2211         115.00       500.01
  249.56        2955.00           2215         108.00       469.49
  249.60        2955.25           2218         106.00       460.77
  249.63        2955.50           2222         110.00       478.21
  249.66        2955.75           2225         103.00       447.70
  249.69        2956.00           2229         104.00       452.06
  249.72        2956.25           2232         126.00       547.96
  249.75        2956.50           2236         112.00       486.93
  249.78        2956.75           2239         132.00       574.12
  249.81        2957.00           2243         113.00       491.29
  249.84        2957.25           2246         122.00       530.52
  249.87        2957.50           2250         137.00       595.91
  249.90        2957.75           2254         121.00       526.16
  249.93        2958.00           2257         120.00       521.81
  249.96        2958.25           2261         150.00       652.59
  249.99        2958.50           2264         134.00       582.84
  250.02        2958.75           2268         138.00       600.27
  250.05        2959.00           2271         115.00       500.01
  250.08        2959.25           2275         121.00       526.16
  250.12        2959.50           2278         121.00       526.16
  250.15        2959.75           2282         133.00       578.48
  250.18        2960.00           2285         150.00       652.59
  250.21        2960.25           2289         135.00       587.20
  250.24        2960.50           2293         136.00       591.56
  250.27        2960.75           2296         142.00       617.71
  250.30        2961.00           2300         172.00       748.49
  250.33        2961.25           2303         291.00      1267.27
  250.36        2961.50           2307        1076.00      4689.94
  250.39        2961.75           2310        2164.00      9435.02
  250.42        2962.00           2314        3741.00     16315.50
  250.45        2962.25           2317        5043.00     21998.58
  250.48        2962.50           2321        6843.00     29858.98
  250.51        2962.75           2324        8216.00     35857.55
  250.54        2963.00           2328       10071.00     43965.85
  250.57        2963.25           2331       11572.00     50530.07
  250.60        2963.50           2335       13578.00     59307.35
  250.64        2963.75           2339       15859.00     69294.28
  250.67        2964.00           2342       17564.00     76763.74
  250.70        2964.25           2346       19370.00     84679.81
  250.73        2964.50           2349       20420.00     89284.14
  250.76        2964.75           2353       22493.00     98378.65
  250.79        2965.00           2356       23856.00    104361.40
  250.82        2965.25           2360       26216.00    114726.10
  250.85        2965.50           2363       27241.00    119230.00
  250.88        2965.75           2367       29153.00    127635.10
  250.91        2966.00           2370       30363.00    132956.70
  250.94        2966.25           2374       31834.00    139428.80
  250.97        2966.50           2378       33346.00    146084.30
  251.00        2966.75           2381       34143.00    149593.70
  251.03        2967.00           2385       34368.00    150584.60
  251.06        2967.25           2388       34057.00    149215.00
  251.09        2967.50           2392       34165.00    149690.60
  251.12        2967.75           2395       34007.00    148994.80
  251.16        2968.00           2399       33203.00    145454.70
  251.19        2968.25           2402       32419.00    142003.50
  251.22        2968.50           2406       30517.00    133634.10
  251.25        2968.75           2409       28901.00    126527.00
  251.28        2969.00           2413       26740.00    117028.40
  251.31        2969.25           2417       24623.00    107729.10
  251.34        2969.50           2420       23154.00    101279.70
  251.37        2969.75           2424       21172.00     92582.60
  251.40        2970.00           2427       19743.00     86315.28
  251.43        2970.25           2431       17591.00     76882.05
  251.46        2970.50           2434       15992.00     69876.80
  251.49        2970.75           2438       13821.00     60370.96
  251.52        2971.00           2441       12292.00     53679.84
  251.55        2971.25           2445       10646.00     46480.11
  251.58        2971.50           2449        8646.00     37736.71
  251.61        2971.75           2452        7179.00     31326.73
  251.64        2972.00           2456        5218.00     22762.60
  251.68        2972.25           2459        3829.00     16699.54
  251.71        2972.50           2463        1988.00      8667.33
  251.74        2972.75           2466         979.00      4266.97
  251.77        2973.00           2470         295.00      1284.71
  251.80        2973.25           2473         182.00       792.09
  251.83        2973.50           2477         156.00       678.74
  251.86        2973.75           2481         148.00       643.87
  251.89        2974.00           2484         149.00       648.23
  251.92        2974.25           2488         139.00       604.63
  251.95        2974.50           2491         149.00       648.23
  251.98        2974.75           2495         142.00       617.71
  252.01        2975.00           2498         138.00       600.27
  252.04        2975.25           2502         138.00       600.27
  252.07        2975.50           2505         136.00       591.56
  252.10        2975.75           2509         145.00       630.79
  252.13        2976.00           2512         120.00       521.81
  252.16        2976.25           2516         151.00       656.95
  252.20        2976.50           2520         112.00       486.93
  252.23        2976.75           2523         136.00       591.56
  252.26        2977.00           2527         130.00       565.40
  252.29        2977.25           2530         118.00       513.09
  252.32        2977.50           2534         109.00       473.85
  252.35        2977.75           2537         124.00       539.24
  252.38        2978.00           2541         110.00       478.21
  252.41        2978.25           2544         111.00       482.57
  252.44        2978.50           2548         104.00       452.06
  252.47        2978.75           2552         126.00       547.96
  252.50        2979.00           2555         122.00       530.52
  252.53        2979.25           2559          98.00       425.90
  252.56        2979.50           2562         120.00       521.81
  252.59        2979.75           2566          97.00       421.54
  252.62        2980.00           2569         114.00       495.65
  252.65        2980.25           2573         125.00       543.60
  252.68        2980.50           2577         109.00       473.85
  252.72        2980.75           2580         102.00       443.34
  252.75        2981.00           2584         102.00       443.34
  252.78        2981.25           2587          92.00       399.74
  252.81        2981.50           2591         101.00       438.98
  252.84        2981.75           2594         104.00       452.06
  252.87        2982.00           2598          93.00       404.10
  252.90        2982.25           2601          92.00       399.74
  252.93        2982.50           2605          95.00       412.82
  252.96        2982.75           2609          97.00       421.54
  252.99        2983.00           2612          98.00       425.90
  253.02        2983.25           2616          97.00       421.54
  253.05        2983.50           2619          93.00       404.10
  253.08        2983.75           2623          99.00       430.26
  253.11        2984.00           2626          87.00       377.95
HS scan finished at 04:13:20
end
************************************************************
  HS Scan of (1) Internal mercury lamp
************************************************************
Integration time is 0.2294 seconds per sample
dh281017Reading 51.44 .94 3.33pr1000
************************************************************
Dead Time -------------------------  3.4E-08 
Number of Cycles Used -------------  4 
Starting Wavelength (Angstroms) ---  2950 
Final Wavelength (Angstoms) -------  2984 
Wavelength Increment (Angstroms) --  .25 
Filter Wheel #1 Position ---------- (1) Ground quartz diffuser (ND=2.32)
Filter Wheel #2 Position ---------- (1) Neutral Density 0.494



************************************************************
HS scan start time = 17:37:30
Dark Count =  1.8 


Time (GMT)  Wavelength (Ang)  Step Number  Raw Counts  Counts/Second

 1058.40        2950.00           2144          70.00       297.30
 1058.59        2950.25           2147          73.00       310.38
 1058.62        2950.50           2151          61.00       258.07
 1058.65        2950.75           2155          70.00       297.30
 1058.68        2951.00           2158          70.00       297.30
 1058.71        2951.25           2162          81.00       345.25
 1058.74        2951.50           2165          72.00       306.02
 1058.77        2951.75           2169          66.00       279.86
 1058.80        2952.00           2172          76.00       323.46
 1058.83        2952.25           2176          80.00       340.89
 1058.87        2952.50           2179          79.00       336.53
 1058.90        2952.75           2183          77.00       327.82
 1058.93        2953.00           2186          67.00       284.22
 1058.96        2953.25           2190          74.00       314.74
 1058.99        2953.50           2193          71.00       301.66
 1059.02        2953.75           2197          88.00       375.77
 1059.05        2954.00           2200          79.00       336.53
 1059.08        2954.25           2204          75.00       319.10
 1059.11        2954.50           2208          75.00       319.10
 1059.14        2954.75           2211          72.00       306.02
 1059.17        2955.00           2215          76.00       323.46
 1059.20        2955.25           2218          74.00       314.74
 1059.23        2955.50           2222          74.00       314.74
 1059.26        2955.75           2225          79.00       336.53
 1059.29        2956.00           2229          82.00       349.61
 1059.32        2956.25           2232          79.00       336.53
 1059.35        2956.50           2236          79.00       336.53
 1059.39        2956.75           2239          76.00       323.46
 1059.42        2957.00           2243          84.00       358.33
 1059.45        2957.25           2246          86.00       367.05
 1059.48        2957.50           2250          87.00       371.41
 1059.51        2957.75           2254         110.00       471.67
 1059.54        2958.00           2257          85.00       362.69
 1059.57        2958.25           2261          82.00       349.61
 1059.60        2958.50           2264          87.00       371.41
 1059.63        2958.75           2268          79.00       336.53
 1059.66        2959.00           2271          88.00       375.77
 1059.69        2959.25           2275          95.00       406.28
 1059.72        2959.50           2278          94.00       401.92
 1059.75        2959.75           2282          93.00       397.56
 1059.78        2960.00           2285          95.00       406.28
 1059.81        2960.25           2289         106.00       454.24
 1059.84        2960.50           2293         106.00       454.24
 1059.87        2960.75           2296         101.00       432.44
 1059.90        2961.00           2300         154.00       663.48
 1059.94        2961.25           2303         282.00      1221.50
 1059.97        2961.50           2307        1070.00      4657.23
 1060.00        2961.75           2310        1955.00      8516.85
 1060.03        2962.00           2314        3381.00     14737.99
 1060.06        2962.25           2317        4396.00     19167.68
 1060.09        2962.50           2321        5908.00     25768.87
 1060.12        2962.75           2324        7074.00     30861.49
 1060.15        2963.00           2328        8778.00     38307.06
 1060.18        2963.25           2331        9997.00     43635.75
 1060.21        2963.50           2335       11690.00     51039.68
 1060.24        2963.75           2339       13308.00     58119.10
 1060.27        2964.00           2342       14433.00     63043.45
 1060.30        2964.25           2346       15971.00     69778.25
 1060.33        2964.50           2349       17222.00     75258.58
 1060.36        2964.75           2353       18857.00     82424.21
 1060.39        2965.00           2356       20164.00     88154.84
 1060.43        2965.25           2360       21528.00     94137.79
 1060.46        2965.50           2363       22416.00     98034.15
 1060.49        2965.75           2367       24180.00    105777.30
 1060.52        2966.00           2370       24875.00    108829.20
 1060.55        2966.25           2374       26209.00    114688.70
 1060.58        2966.50           2378       27130.00    118735.60
 1060.61        2966.75           2381       27399.00    119917.80
 1060.64        2967.00           2385       27325.00    119592.50
 1060.67        2967.25           2388       27472.00    120238.60
 1060.70        2967.50           2392       27516.00    120432.00
 1060.73        2967.75           2395       27435.00    120076.00
 1060.76        2968.00           2399       26708.00    116881.20
 1060.79        2968.25           2402       25708.00    112487.80
 1060.82        2968.50           2406       24244.00    106058.30
 1060.85        2968.75           2409       23153.00    101268.80
 1060.88        2969.00           2413       21540.00     94190.43
 1060.91        2969.25           2417       20017.00     87510.21
 1060.95        2969.50           2420       18811.00     82222.56
 1060.98        2969.75           2424       17324.00     75705.52
 1061.01        2970.00           2427       15937.00     69629.35
 1061.04        2970.25           2431       14240.00     62198.53
 1061.07        2970.50           2434       12848.00     56106.05
 1061.10        2970.75           2438       11200.00     48896.39
 1061.13        2971.00           2441        9957.00     43460.87
 1061.16        2971.25           2445        8553.00     37323.71
 1061.19        2971.50           2449        6876.00     29996.58
 1061.22        2971.75           2452        5511.00     24035.33
 1061.25        2972.00           2456        3890.00     16959.21
 1061.28        2972.25           2459        2731.00     11901.94
 1061.31        2972.50           2463        1399.00      6091.93
 1061.34        2972.75           2466         712.00      3096.23
 1061.37        2973.00           2470         246.00      1064.55
 1061.40        2973.25           2473         157.00       676.56
 1061.43        2973.50           2477         131.00       563.22
 1061.47        2973.75           2481         110.00       471.67
 1061.50        2974.00           2484         120.00       515.27
 1061.53        2974.25           2488         120.00       515.27
 1061.56        2974.50           2491         110.00       471.67
 1061.59        2974.75           2495         102.00       436.80
 1061.62        2975.00           2498          90.00       384.49
 1061.65        2975.25           2502          99.00       423.72
 1061.68        2975.50           2505          91.00       388.85
 1061.71        2975.75           2509          95.00       406.28
 1061.74        2976.00           2512          96.00       410.64
 1061.77        2976.25           2516          91.00       388.85
 1061.80        2976.50           2520         103.00       441.16
 1061.83        2976.75           2523          88.00       375.77
 1061.86        2977.00           2527          88.00       375.77
 1061.89        2977.25           2530          87.00       371.41
 1061.92        2977.50           2534          81.00       345.25
 1061.95        2977.75           2537          85.00       362.69
 1061.99        2978.00           2541          83.00       353.97
 1062.02        2978.25           2544          81.00       345.25
 1062.05        2978.50           2548          90.00       384.49
 1062.08        2978.75           2552          81.00       345.25
 1062.11        2979.00           2555          88.00       375.77
 1062.14        2979.25           2559          84.00       358.33
 1062.17        2979.50           2562          84.00       358.33
 1062.20        2979.75           2566          81.00       345.25
 1062.23        2980.00           2569          81.00       345.25
 1062.26        2980.25           2573          76.00       323.46
 1062.29        2980.50           2577          79.00       336.53
 1062.32        2980.75           2580          75.00       319.10
 1062.35        2981.00           2584          79.00       336.53
 1062.38        2981.25           2587          75.00       319.10
 1062.41        2981.50           2591          78.00       332.17
 1062.44        2981.75           2594          75.00       319.10
 1062.47        2982.00           2598          74.00       314.74
 1062.50        2982.25           2601          72.00       306.02
 1062.54        2982.50           2605          67.00       284.22
 1062.57        2982.75           2609          72.00       306.02
 1062.60        2983.00           2612          72.00       306.02
 1062.63        2983.25           2616          75.00       319.10
 1062.66        2983.50           2619          74.00       314.74
 1062.69        2983.75           2623          73.00       310.38
 1062.72        2984.00           2626          73.00       310.38
HS scan finished at 17:42:57
end
