************************************************************
  HS Scan of (1) Internal mercury lamp
************************************************************
Integration time is 0.2294 seconds per sample
dh271017Reading 51.44 .94 3.05pr1000
************************************************************
Dead Time -------------------------  3.4E-08 
Number of Cycles Used -------------  4 
Starting Wavelength (Angstroms) ---  2950 
Final Wavelength (Angstoms) -------  2984 
Wavelength Increment (Angstroms) --  .25 
Filter Wheel #1 Position ---------- (1) Ground quartz diffuser (ND=2.32)
Filter Wheel #2 Position ---------- (1) Neutral Density 0.494



************************************************************
HS scan start time = 04:06:11
Dark Count =  1.4 


Time (GMT)  Wavelength (Ang)  Step Number  Raw Counts  Counts/Second

  247.09        2950.00           2144         166.00       717.54
  247.28        2950.25           2147         172.00       743.70
  247.31        2950.50           2151         169.00       730.62
  247.34        2950.75           2155         180.00       778.57
  247.37        2951.00           2158         173.00       748.06
  247.40        2951.25           2162         171.00       739.34
  247.43        2951.50           2165         181.00       782.93
  247.47        2951.75           2169         170.00       734.98
  247.50        2952.00           2172         173.00       748.06
  247.53        2952.25           2176         175.00       756.78
  247.56        2952.50           2179         167.00       721.90
  247.59        2952.75           2183         171.00       739.34
  247.62        2953.00           2186         174.00       752.42
  247.65        2953.25           2190         182.00       787.29
  247.68        2953.50           2193         176.00       761.14
  247.71        2953.75           2197         172.00       743.70
  247.74        2954.00           2200         176.00       761.14
  247.77        2954.25           2204         174.00       752.42
  247.80        2954.50           2208         173.00       748.06
  247.83        2954.75           2211         194.00       839.61
  247.86        2955.00           2215         173.00       748.06
  247.89        2955.25           2218         185.00       800.37
  247.92        2955.50           2222         172.00       743.70
  247.95        2955.75           2225         178.00       769.85
  247.99        2956.00           2229         183.00       791.65
  248.02        2956.25           2232         194.00       839.61
  248.05        2956.50           2236         196.00       848.32
  248.08        2956.75           2239         185.00       800.37
  248.11        2957.00           2243         185.00       800.37
  248.14        2957.25           2246         191.00       826.53
  248.17        2957.50           2250         195.00       843.96
  248.20        2957.75           2254         217.00       939.87
  248.23        2958.00           2257         203.00       878.84
  248.26        2958.25           2261         213.00       922.44
  248.29        2958.50           2264         207.00       896.28
  248.32        2958.75           2268         219.00       948.59
  248.35        2959.00           2271         215.00       931.15
  248.38        2959.25           2275         212.00       918.08
  248.41        2959.50           2278         200.00       865.76
  248.44        2959.75           2282         225.00       974.75
  248.47        2960.00           2285         219.00       948.59
  248.51        2960.25           2289         235.00      1018.34
  248.54        2960.50           2293         263.00      1140.41
  248.57        2960.75           2296         247.00      1070.66
  248.60        2961.00           2300         295.00      1279.92
  248.63        2961.25           2303         578.00      2513.73
  248.66        2961.50           2307        2463.00     10734.52
  248.69        2961.75           2310        4655.00     20299.97
  248.72        2962.00           2314        7896.00     34454.47
  248.75        2962.25           2317       10456.00     45644.45
  248.78        2962.50           2321       13760.00     60099.15
  248.82        2962.75           2324       16400.00     71659.12
  248.85        2963.00           2328       20521.00     89722.28
  248.88        2963.25           2331       23472.00    102670.80
  248.91        2963.50           2335       27592.00    120767.80
  248.94        2963.75           2339       31112.00    136247.00
  248.97        2964.00           2342       33974.00    148844.70
  249.00        2964.25           2346       37616.00    164891.40
  249.03        2964.50           2349       40482.00    177531.30
  249.06        2964.75           2353       43979.00    192969.00
  249.09        2965.00           2356       46894.00    205849.80
  249.12        2965.25           2360       50481.00    221715.70
  249.15        2965.50           2363       53148.00    233523.40
  249.18        2965.75           2367       56463.00    248213.20
  249.21        2966.00           2370       58839.00    258751.20
  249.24        2966.25           2374       61678.00    271352.50
  249.27        2966.50           2378       63643.00    280080.80
  249.30        2966.75           2381       64376.00    283338.10
  249.34        2967.00           2385       64514.00    283951.40
  249.37        2967.25           2388       64560.00    284155.80
  249.40        2967.50           2392       64308.00    283035.90
  249.43        2967.75           2395       64098.00    282102.60
  249.46        2968.00           2399       62604.00    275465.00
  249.49        2968.25           2402       60023.00    264005.20
  249.52        2968.50           2406       56691.00    249224.10
  249.55        2968.75           2409       54043.00    237488.00
  249.58        2969.00           2413       50215.00    220538.50
  249.61        2969.25           2417       46662.00    204824.20
  249.64        2969.50           2420       44158.00    193759.60
  249.67        2969.75           2424       40264.00    176569.50
  249.70        2970.00           2427       37121.00    162709.30
  249.73        2970.25           2431       33195.00    145414.70
  249.76        2970.50           2434       29959.00    131174.80
  249.79        2970.75           2438       26104.00    114229.20
  249.82        2971.00           2441       23281.00    101832.30
  249.86        2971.25           2445       19625.00     85793.05
  249.89        2971.50           2449       15866.00     69320.12
  249.92        2971.75           2452       13003.00     56786.08
  249.95        2972.00           2456        9395.00     41005.69
  249.98        2972.25           2459        6837.00     29827.97
  250.01        2972.50           2463        3526.00     15372.46
  250.04        2972.75           2466        1705.00      7428.21
  250.07        2973.00           2470         530.00      2304.45
  250.10        2973.25           2473         311.00      1349.67
  250.13        2973.50           2477         274.00      1188.37
  250.16        2973.75           2481         250.00      1083.74
  250.19        2974.00           2484         260.00      1127.33
  250.22        2974.25           2488         214.00       926.79
  250.25        2974.50           2491         235.00      1018.34
  250.28        2974.75           2495         213.00       922.44
  250.31        2975.00           2498         217.00       939.87
  250.34        2975.25           2502         198.00       857.04
  250.38        2975.50           2505         208.00       900.64
  250.41        2975.75           2509         202.00       874.48
  250.44        2976.00           2512         196.00       848.32
  250.47        2976.25           2516         193.00       835.25
  250.50        2976.50           2520         192.00       830.89
  250.53        2976.75           2523         186.00       804.73
  250.56        2977.00           2527         177.00       765.50
  250.59        2977.25           2530         188.00       813.45
  250.62        2977.50           2534         179.00       774.21
  250.66        2977.75           2537         180.00       778.57
  250.69        2978.00           2541         177.00       765.50
  250.72        2978.25           2544         186.00       804.73
  250.75        2978.50           2548         173.00       748.06
  250.78        2978.75           2552         159.00       687.03
  250.81        2979.00           2555         170.00       734.98
  250.84        2979.25           2559         162.00       700.10
  250.87        2979.50           2562         162.00       700.10
  250.90        2979.75           2566         186.00       804.73
  250.93        2980.00           2569         157.00       678.31
  250.96        2980.25           2573         171.00       739.34
  250.99        2980.50           2577         178.00       769.85
  251.02        2980.75           2580         161.00       695.74
  251.06        2981.00           2584         158.00       682.67
  251.09        2981.25           2587         161.00       695.74
  251.12        2981.50           2591         167.00       721.90
  251.15        2981.75           2594         151.00       652.15
  251.18        2982.00           2598         176.00       761.14
  251.21        2982.25           2601         157.00       678.31
  251.24        2982.50           2605         148.00       639.07
  251.27        2982.75           2609         153.00       660.87
  251.30        2983.00           2612         152.00       656.51
  251.33        2983.25           2616         152.00       656.51
  251.36        2983.50           2619         140.00       604.20
  251.39        2983.75           2623         162.00       700.10
  251.42        2984.00           2626         148.00       639.07
HS scan finished at 04:11:39
end
************************************************************
  HS Scan of (1) Internal mercury lamp
************************************************************
Integration time is 0.2294 seconds per sample
dh271017Reading 51.44 .94 3.19pr1000
************************************************************
Dead Time -------------------------  3.4E-08 
Number of Cycles Used -------------  4 
Starting Wavelength (Angstroms) ---  2950 
Final Wavelength (Angstoms) -------  2984 
Wavelength Increment (Angstroms) --  .25 
Filter Wheel #1 Position ---------- (1) Ground quartz diffuser (ND=2.32)
Filter Wheel #2 Position ---------- (1) Neutral Density 0.494



************************************************************
HS scan start time = 17:37:29
Dark Count =  1.4 


Time (GMT)  Wavelength (Ang)  Step Number  Raw Counts  Counts/Second

 1058.38        2950.00           2144          89.00       381.87
 1058.57        2950.25           2147          89.00       381.87
 1058.60        2950.50           2151          88.00       377.51
 1058.63        2950.75           2155          89.00       381.87
 1058.66        2951.00           2158          86.00       368.79
 1058.69        2951.25           2162          83.00       355.71
 1058.72        2951.50           2165         108.00       464.70
 1058.75        2951.75           2169          89.00       381.87
 1058.79        2952.00           2172          90.00       386.23
 1058.82        2952.25           2176          96.00       412.39
 1058.85        2952.50           2179          91.00       390.59
 1058.88        2952.75           2183          96.00       412.39
 1058.91        2953.00           2186          91.00       390.59
 1058.94        2953.25           2190          90.00       386.23
 1058.97        2953.50           2193          96.00       412.39
 1059.00        2953.75           2197          97.00       416.75
 1059.03        2954.00           2200          91.00       390.59
 1059.06        2954.25           2204          94.00       403.67
 1059.09        2954.50           2208          96.00       412.39
 1059.12        2954.75           2211          96.00       412.39
 1059.15        2955.00           2215          92.00       394.95
 1059.18        2955.25           2218          91.00       390.59
 1059.21        2955.50           2222          92.00       394.95
 1059.24        2955.75           2225         119.00       512.65
 1059.27        2956.00           2229          97.00       416.75
 1059.31        2956.25           2232         100.00       429.82
 1059.34        2956.50           2236          91.00       390.59
 1059.37        2956.75           2239         102.00       438.54
 1059.40        2957.00           2243          99.00       425.46
 1059.43        2957.25           2246          99.00       425.46
 1059.46        2957.50           2250         104.00       447.26
 1059.49        2957.75           2254          96.00       412.39
 1059.52        2958.00           2257         111.00       477.78
 1059.55        2958.25           2261         121.00       521.37
 1059.58        2958.50           2264         110.00       473.42
 1059.61        2958.75           2268         111.00       477.78
 1059.64        2959.00           2271         104.00       447.26
 1059.67        2959.25           2275         114.00       490.85
 1059.70        2959.50           2278         112.00       482.14
 1059.73        2959.75           2282         129.00       556.24
 1059.76        2960.00           2285         124.00       534.45
 1059.79        2960.25           2289         156.00       673.95
 1059.83        2960.50           2293         137.00       591.12
 1059.86        2960.75           2296         164.00       708.82
 1059.89        2961.00           2300         153.00       660.87
 1059.92        2961.25           2303         343.00      1489.18
 1059.95        2961.50           2307        1306.00      5688.11
 1059.98        2961.75           2310        2410.00     10503.32
 1060.01        2962.00           2314        4165.00     18161.17
 1060.04        2962.25           2317        5438.00     23718.34
 1060.07        2962.50           2321        7121.00     31068.55
 1060.10        2962.75           2324        8417.00     36731.11
 1060.13        2963.00           2328       10265.00     44809.28
 1060.16        2963.25           2331       11884.00     51890.08
 1060.19        2963.50           2335       13859.00     60532.47
 1060.22        2963.75           2339       15560.00     67979.96
 1060.25        2964.00           2342       16901.00     73853.93
 1060.28        2964.25           2346       18661.00     81566.78
 1060.31        2964.50           2349       20213.00     88371.50
 1060.35        2964.75           2353       22273.00     97408.38
 1060.38        2965.00           2356       23582.00    103153.60
 1060.41        2965.25           2360       25021.00    109472.10
 1060.44        2965.50           2363       26185.00    114585.00
 1060.47        2965.75           2367       28067.00    122855.60
 1060.50        2966.00           2370       29316.00    128347.00
 1060.53        2966.25           2374       31077.00    136093.00
 1060.56        2966.50           2378       32296.00    141457.30
 1060.59        2966.75           2381       32352.00    141703.80
 1060.62        2967.00           2385       32423.00    142016.30
 1060.65        2967.25           2388       32442.00    142099.90
 1060.68        2967.50           2392       32312.00    141527.70
 1060.71        2967.75           2395       32125.00    140704.60
 1060.74        2968.00           2399       31450.00    137734.20
 1060.77        2968.25           2402       30352.00    132903.50
 1060.80        2968.50           2406       28624.00    125304.30
 1060.83        2968.75           2409       27401.00    119928.30
 1060.87        2969.00           2413       25399.00    111132.30
 1060.90        2969.25           2417       23723.00    103772.70
 1060.93        2969.50           2420       22406.00     97992.02
 1060.96        2969.75           2424       20460.00     89454.74
 1060.99        2970.00           2427       18818.00     82255.00
 1061.02        2970.25           2431       16583.00     72460.78
 1061.05        2970.50           2434       15423.00     67380.00
 1061.08        2970.75           2438       13434.00     58672.29
 1061.12        2971.00           2441       11769.00     51387.00
 1061.16        2971.25           2445        9930.00     43344.57
 1061.19        2971.50           2449        8079.00     35254.09
 1061.22        2971.75           2452        6531.00     28491.41
 1061.25        2972.00           2456        4658.00     20313.07
 1061.28        2972.25           2459        3335.00     14539.01
 1061.31        2972.50           2463        1728.00      7528.52
 1061.34        2972.75           2466         870.00      3786.89
 1061.37        2973.00           2470         282.00      1223.24
 1061.40        2973.25           2473         180.00       778.57
 1061.43        2973.50           2477         145.00       625.99
 1061.46        2973.75           2481         145.00       625.99
 1061.49        2974.00           2484         142.00       612.92
 1061.52        2974.25           2488         120.00       517.01
 1061.55        2974.50           2491         118.00       508.29
 1061.58        2974.75           2495         150.00       647.79
 1061.61        2975.00           2498         116.00       499.57
 1061.65        2975.25           2502         109.00       469.06
 1061.68        2975.50           2505         113.00       486.49
 1061.71        2975.75           2509         110.00       473.42
 1061.74        2976.00           2512         110.00       473.42
 1061.77        2976.25           2516         121.00       521.37
 1061.80        2976.50           2520         123.00       530.09
 1061.83        2976.75           2523         134.00       578.04
 1061.86        2977.00           2527         108.00       464.70
 1061.89        2977.25           2530         113.00       486.49
 1061.92        2977.50           2534         100.00       429.82
 1061.95        2977.75           2537         111.00       477.78
 1061.98        2978.00           2541          99.00       425.46
 1062.01        2978.25           2544          96.00       412.39
 1062.04        2978.50           2548          91.00       390.59
 1062.07        2978.75           2552          95.00       408.03
 1062.10        2979.00           2555          93.00       399.31
 1062.13        2979.25           2559         101.00       434.18
 1062.17        2979.50           2562          92.00       394.95
 1062.20        2979.75           2566          87.00       373.15
 1062.23        2980.00           2569          94.00       403.67
 1062.26        2980.25           2573          83.00       355.71
 1062.29        2980.50           2577          95.00       408.03
 1062.32        2980.75           2580          91.00       390.59
 1062.35        2981.00           2584          89.00       381.87
 1062.38        2981.25           2587          80.00       342.64
 1062.42        2981.50           2591          86.00       368.79
 1062.46        2981.75           2594          89.00       381.87
 1062.49        2982.00           2598          92.00       394.95
 1062.52        2982.25           2601          92.00       394.95
 1062.55        2982.50           2605          84.00       360.07
 1062.58        2982.75           2609          96.00       412.39
 1062.61        2983.00           2612          95.00       408.03
 1062.64        2983.25           2616          86.00       368.79
 1062.67        2983.50           2619          80.00       342.64
 1062.70        2983.75           2623          85.00       364.43
 1062.73        2984.00           2626          89.00       381.87
HS scan finished at 17:42:57
end
