************************************************************
  HS Scan of (1) Internal mercury lamp
************************************************************
Integration time is 0.2294 seconds per sample
dh051118Reading 51.44 .94 2.9pr1000
************************************************************
Dead Time -------------------------  3.4E-08 
Number of Cycles Used -------------  4 
Starting Wavelength (Angstroms) ---  2950 
Final Wavelength (Angstoms) -------  2984 
Wavelength Increment (Angstroms) --  .25 
Filter Wheel #1 Position ---------- (1) Ground quartz diffuser (ND=2.32)
Filter Wheel #2 Position ---------- (1) Neutral Density 0.494



************************************************************
HS scan start time = 04:20:36
Dark Count =  .5 


Time (GMT)  Wavelength (Ang)  Step Number  Raw Counts  Counts/Second

  261.50        2950.00           2144        1567.00      6830.27
  261.70        2950.25           2147        1571.00      6847.71
  261.73        2950.50           2151        1603.00      6987.27
  261.76        2950.75           2155        1599.00      6969.83
  261.79        2951.00           2158        1595.00      6952.38
  261.82        2951.25           2162        1558.00      6791.02
  261.85        2951.50           2165        1592.00      6939.30
  261.88        2951.75           2169        1568.00      6834.63
  261.91        2952.00           2172        1595.00      6952.38
  261.94        2952.25           2176        1578.00      6878.24
  261.97        2952.50           2179        1597.00      6961.11
  262.00        2952.75           2183        1614.00      7035.25
  262.03        2953.00           2186        1568.00      6834.63
  262.06        2953.25           2190        1598.00      6965.47
  262.09        2953.50           2193        1623.00      7074.50
  262.12        2953.75           2197        1634.00      7122.47
  262.15        2954.00           2200        1625.00      7083.22
  262.18        2954.25           2204        1648.00      7183.53
  262.22        2954.50           2208        1638.00      7139.92
  262.25        2954.75           2211        1650.00      7192.26
  262.28        2955.00           2215        1672.00      7288.21
  262.31        2955.25           2218        1660.00      7235.87
  262.34        2955.50           2222        1735.00      7562.97
  262.37        2955.75           2225        1666.00      7262.04
  262.40        2956.00           2229        1707.00      7440.85
  262.43        2956.25           2232        1713.00      7467.02
  262.46        2956.50           2236        1734.00      7558.61
  262.49        2956.75           2239        1741.00      7589.14
  262.52        2957.00           2243        1727.00      7528.08
  262.55        2957.25           2246        1744.00      7602.23
  262.58        2957.50           2250        1780.00      7759.24
  262.61        2957.75           2254        1811.00      7894.45
  262.64        2958.00           2257        1758.00      7663.29
  262.67        2958.25           2261        1853.00      8077.63
  262.70        2958.50           2264        1812.00      7898.81
  262.74        2958.75           2268        1835.00      7999.12
  262.77        2959.00           2271        1874.00      8169.23
  262.80        2959.25           2275        1889.00      8234.65
  262.83        2959.50           2278        1861.00      8112.53
  262.86        2959.75           2282        1943.00      8470.18
  262.89        2960.00           2285        1981.00      8635.93
  262.92        2960.25           2289        1973.00      8601.03
  262.95        2960.50           2293        2023.00      8819.12
  262.98        2960.75           2296        2025.00      8827.85
  263.01        2961.00           2300        2216.00      9660.98
  263.04        2961.25           2303        2816.00     12278.45
  263.07        2961.50           2307        9703.00     42356.07
  263.10        2961.75           2310       20119.00     87963.21
  263.13        2962.00           2314       37395.00    163921.10
  263.16        2962.25           2317       52342.00    229957.90
  263.19        2962.50           2321       74307.00    327544.20
  263.22        2962.75           2324       90483.00    399829.70
  263.26        2963.00           2328      112296.00    497875.30
  263.29        2963.25           2331      127870.00    568283.30
  263.32        2963.50           2335      150016.00    668992.30
  263.35        2963.75           2339      173981.00    778765.00
  263.38        2964.00           2342      192388.00    863646.60
  263.41        2964.25           2346      214684.00    967132.50
  263.44        2964.50           2349      228969.00   1033827.00
  263.47        2964.75           2353      250169.00   1133378.00
  263.50        2965.00           2356      267250.00   1214090.00
  263.53        2965.25           2360      289360.00   1319241.00
  263.56        2965.50           2363      304987.00   1394028.00
  263.59        2965.75           2367      325572.00   1493141.00
  263.62        2966.00           2370      339970.00   1562874.00
  263.65        2966.25           2374      359233.00   1656705.00
  263.68        2966.50           2378      373754.00   1727847.00
  263.71        2966.75           2381      377747.00   1747472.00
  263.74        2967.00           2385      379796.00   1757553.00
  263.78        2967.25           2388      380040.00   1758754.00
  263.81        2967.50           2392      379486.00   1756028.00
  263.84        2967.75           2395      379042.00   1753843.00
  263.87        2968.00           2399      372924.00   1723771.00
  263.90        2968.25           2402      361977.00   1670121.00
  263.93        2968.50           2406      343740.00   1581189.00
  263.96        2968.75           2409      328551.00   1507541.00
  263.99        2969.00           2413      306206.00   1399878.00
  264.02        2969.25           2417      283091.00   1289349.00
  264.05        2969.50           2420      265720.00   1206842.00
  264.08        2969.75           2424      246218.00   1114773.00
  264.11        2970.00           2427      229743.00   1037449.00
  264.14        2970.25           2431      206801.00    930459.20
  264.17        2970.50           2434      188706.00    846627.70
  264.20        2970.75           2438      164082.00    733321.60
  264.23        2971.00           2441      146739.00    654046.10
  264.26        2971.25           2445      125628.00    558126.50
  264.30        2971.50           2449      102395.00    453290.50
  264.33        2971.75           2452       85451.00    377305.00
  264.36        2972.00           2456       65387.00    287835.80
  264.39        2972.25           2459       48660.00    213662.90
  264.42        2972.50           2463       25516.00    111650.20
  264.45        2972.75           2466       12026.00     52515.22
  264.48        2973.00           2470        4172.00     18195.65
  264.51        2973.25           2473        2549.00     11113.61
  264.54        2973.50           2477        2148.00      9364.36
  264.57        2973.75           2481        2075.00      9045.94
  264.60        2974.00           2484        1955.00      8522.52
  264.63        2974.25           2488        1984.00      8649.01
  264.66        2974.50           2491        1931.00      8417.84
  264.69        2974.75           2495        1936.00      8439.65
  264.72        2975.00           2498        1900.00      8282.63
  264.75        2975.25           2502        1809.00      7885.72
  264.78        2975.50           2505        1874.00      8169.23
  264.81        2975.75           2509        1837.00      8007.85
  264.85        2976.00           2512        1783.00      7772.32
  264.88        2976.25           2516        1802.00      7855.19
  264.91        2976.50           2520        1726.00      7523.72
  264.94        2976.75           2523        1771.00      7719.99
  264.97        2977.00           2527        1705.00      7432.13
  265.00        2977.25           2530        1728.00      7532.44
  265.03        2977.50           2534        1684.00      7340.54
  265.06        2977.75           2537        1684.00      7340.54
  265.09        2978.00           2541        1649.00      7187.89
  265.12        2978.25           2544        1664.00      7253.31
  265.15        2978.50           2548        1634.00      7122.47
  265.18        2978.75           2552        1577.00      6873.88
  265.21        2979.00           2555        1607.00      7004.72
  265.24        2979.25           2559        1591.00      6934.94
  265.27        2979.50           2562        1561.00      6804.10
  265.30        2979.75           2566        1588.00      6921.86
  265.33        2980.00           2569        1539.00      6708.16
  265.37        2980.25           2573        1593.00      6943.66
  265.40        2980.50           2577        1551.00      6760.49
  265.43        2980.75           2580        1529.00      6664.54
  265.46        2981.00           2584        1531.00      6673.27
  265.49        2981.25           2587        1539.00      6708.16
  265.52        2981.50           2591        1524.00      6642.74
  265.55        2981.75           2594        1531.00      6673.27
  265.58        2982.00           2598        1516.00      6607.85
  265.61        2982.25           2601        1514.00      6599.13
  265.64        2982.50           2605        1514.00      6599.13
  265.67        2982.75           2609        1510.00      6581.68
  265.70        2983.00           2612        1493.00      6507.54
  265.73        2983.25           2616        1498.00      6529.35
  265.76        2983.50           2619        1510.00      6581.68
  265.79        2983.75           2623        1501.00      6542.43
  265.82        2984.00           2626        1494.00      6511.90
HS scan finished at 04:26:03
end
************************************************************
  HS Scan of (1) Internal mercury lamp
************************************************************
Integration time is 0.2294 seconds per sample
dh051118Reading 51.44 .94 3.41pr1000
************************************************************
Dead Time -------------------------  3.4E-08 
Number of Cycles Used -------------  4 
Starting Wavelength (Angstroms) ---  2950 
Final Wavelength (Angstoms) -------  2984 
Wavelength Increment (Angstroms) --  .25 
Filter Wheel #1 Position ---------- (1) Ground quartz diffuser (ND=2.32)
Filter Wheel #2 Position ---------- (1) Neutral Density 0.494



************************************************************
HS scan start time = 17:37:20
Dark Count =  2.3 


Time (GMT)  Wavelength (Ang)  Step Number  Raw Counts  Counts/Second

 1058.23        2950.00           2144        1095.00      4764.07
 1058.43        2950.25           2147        1096.00      4768.43
 1058.46        2950.50           2151        1091.00      4746.63
 1058.49        2950.75           2155        1058.00      4602.73
 1058.52        2951.00           2158        1107.00      4816.39
 1058.55        2951.25           2162        1070.00      4655.05
 1058.58        2951.50           2165        1089.00      4737.90
 1058.61        2951.75           2169        1110.00      4829.48
 1058.64        2952.00           2172        1091.00      4746.63
 1058.67        2952.25           2176        1135.00      4938.49
 1058.70        2952.50           2179        1107.00      4816.39
 1058.73        2952.75           2183        1120.00      4873.08
 1058.76        2953.00           2186        1109.00      4825.12
 1058.79        2953.25           2190        1146.00      4986.46
 1058.82        2953.50           2193        1152.00      5012.62
 1058.85        2953.75           2197        1117.00      4860.00
 1058.89        2954.00           2200        1123.00      4886.17
 1058.92        2954.25           2204        1160.00      5047.51
 1058.95        2954.50           2208        1155.00      5025.71
 1058.98        2954.75           2211        1146.00      4986.46
 1059.01        2955.00           2215        1154.00      5021.35
 1059.04        2955.25           2218        1166.00      5073.67
 1059.07        2955.50           2222        1173.00      5104.20
 1059.10        2955.75           2225        1168.00      5082.40
 1059.13        2956.00           2229        1187.00      5165.25
 1059.16        2956.25           2232        1149.00      4999.54
 1059.19        2956.50           2236        1172.00      5099.84
 1059.22        2956.75           2239        1211.00      5269.91
 1059.25        2957.00           2243        1167.00      5078.03
 1059.28        2957.25           2246        1222.00      5317.88
 1059.32        2957.50           2250        1244.00      5413.81
 1059.35        2957.75           2254        1219.00      5304.79
 1059.38        2958.00           2257        1234.00      5370.20
 1059.41        2958.25           2261        1259.00      5479.22
 1059.44        2958.50           2264        1242.00      5405.09
 1059.47        2958.75           2268        1291.00      5618.77
 1059.50        2959.00           2271        1337.00      5819.37
 1059.53        2959.25           2275        1308.00      5692.91
 1059.56        2959.50           2278        1356.00      5902.23
 1059.59        2959.75           2282        1337.00      5819.37
 1059.62        2960.00           2285        1432.00      6233.67
 1059.65        2960.25           2289        1394.00      6067.95
 1059.68        2960.50           2293        1438.00      6259.83
 1059.71        2960.75           2296        1425.00      6203.14
 1059.74        2961.00           2300        1512.00      6582.55
 1059.77        2961.25           2303        1655.00      7206.21
 1059.80        2961.50           2307        2673.00     11646.72
 1059.84        2961.75           2310        5944.00     25923.89
 1059.87        2962.00           2314       18316.00     80050.63
 1059.90        2962.25           2317       31620.00    138478.30
 1059.93        2962.50           2321       49397.00    216915.20
 1059.96        2962.75           2324       61767.00    271743.70
 1059.99        2963.00           2328       79099.00    348912.90
 1060.02        2963.25           2331       93343.00    412639.40
 1060.05        2963.50           2335      112720.00    499779.50
 1060.08        2963.75           2339      130466.00    580044.40
 1060.11        2964.00           2342      142639.00    635359.60
 1060.14        2964.25           2346      161626.00    722060.60
 1060.17        2964.50           2349      176167.00    788811.30
 1060.20        2964.75           2353      194765.00    874635.80
 1060.23        2965.00           2356      208103.00    936501.60
 1060.26        2965.25           2360      224509.00   1012962.00
 1060.29        2965.50           2363      237302.00   1072867.00
 1060.32        2965.75           2367      255348.00   1157794.00
 1060.36        2966.00           2370      270144.00   1227801.00
 1060.39        2966.25           2374      288500.00   1315128.00
 1060.42        2966.50           2378      302317.00   1381214.00
 1060.45        2966.75           2381      307046.00   1403902.00
 1060.48        2967.00           2385      309305.00   1414753.00
 1060.51        2967.25           2388      309563.00   1415993.00
 1060.54        2967.50           2392      309555.00   1415954.00
 1060.57        2967.75           2395      309385.00   1415137.00
 1060.60        2968.00           2399      306375.00   1400681.00
 1060.63        2968.25           2402      298295.00   1361945.00
 1060.66        2968.50           2406      283968.00   1293518.00
 1060.69        2968.75           2409      271664.00   1235012.00
 1060.72        2969.00           2413      255731.00   1159601.00
 1060.75        2969.25           2417      240295.00   1086918.00
 1060.78        2969.50           2420      227360.00   1026291.00
 1060.81        2969.75           2424      209685.00    943857.00
 1060.84        2970.00           2427      194439.00    873127.00
 1060.88        2970.25           2431      174877.00    782877.10
 1060.91        2970.50           2434      161169.00    719967.60
 1060.94        2970.75           2438      143716.00    640263.80
 1060.97        2971.00           2441      129783.00    576947.00
 1061.00        2971.25           2445      110416.00    489390.90
 1061.03        2971.50           2449       91535.00    404535.20
 1061.06        2971.75           2452       77594.00    342195.90
 1061.09        2972.00           2456       59489.00    261631.30
 1061.12        2972.25           2459       45600.00    200126.50
 1061.15        2972.50           2463       27818.00    121757.20
 1061.18        2972.75           2466       16149.00     70555.72
 1061.21        2973.00           2470        5699.00     24854.04
 1061.24        2973.25           2473        2600.00     11328.25
 1061.27        2973.50           2477        1657.00      7214.93
 1061.30        2973.75           2481        1506.00      6556.39
 1061.33        2974.00           2484        1464.00      6373.22
 1061.36        2974.25           2488        1429.00      6220.58
 1061.40        2974.50           2491        1404.00      6111.56
 1061.43        2974.75           2495        1358.00      5910.95
 1061.46        2975.00           2498        1390.00      6050.50
 1061.49        2975.25           2502        1370.00      5963.28
 1061.52        2975.50           2505        1328.00      5780.13
 1061.55        2975.75           2509        1334.00      5806.29
 1061.58        2976.00           2512        1290.00      5614.41
 1061.61        2976.25           2516        1316.00      5727.79
 1061.64        2976.50           2520        1283.00      5583.89
 1061.67        2976.75           2523        1244.00      5413.81
 1061.70        2977.00           2527        1258.00      5474.86
 1061.73        2977.25           2530        1215.00      5287.35
 1061.76        2977.50           2534        1238.00      5387.65
 1061.79        2977.75           2537        1219.00      5304.79
 1061.82        2978.00           2541        1169.00      5086.76
 1061.85        2978.25           2544        1198.00      5213.22
 1061.88        2978.50           2548        1180.00      5134.72
 1061.92        2978.75           2552        1190.00      5178.33
 1061.95        2979.00           2555        1174.00      5108.56
 1061.98        2979.25           2559        1126.00      4899.25
 1062.01        2979.50           2562        1141.00      4964.66
 1062.04        2979.75           2566        1130.00      4916.69
 1062.07        2980.00           2569        1124.00      4890.53
 1062.10        2980.25           2573        1132.00      4925.41
 1062.13        2980.50           2577        1103.00      4798.95
 1062.16        2980.75           2580        1093.00      4755.35
 1062.19        2981.00           2584        1077.00      4685.58
 1062.22        2981.25           2587        1094.00      4759.71
 1062.25        2981.50           2591        1103.00      4798.95
 1062.28        2981.75           2594        1077.00      4685.58
 1062.31        2982.00           2598        1077.00      4685.58
 1062.34        2982.25           2601        1074.00      4672.49
 1062.37        2982.50           2605        1070.00      4655.05
 1062.40        2982.75           2609        1072.00      4663.77
 1062.44        2983.00           2612        1030.00      4480.63
 1062.47        2983.25           2616        1039.00      4519.87
 1062.50        2983.50           2619        1066.00      4637.61
 1062.53        2983.75           2623        1053.00      4580.92
 1062.56        2984.00           2626        1067.00      4641.97
HS scan finished at 17:42:47
end
