************************************************************
  HS Scan of (1) Internal mercury lamp
************************************************************
Integration time is 0.2294 seconds per sample
dh031117Reading 51.44 .94 2.88pr1000
************************************************************
Dead Time -------------------------  3.4E-08 
Number of Cycles Used -------------  4 
Starting Wavelength (Angstroms) ---  2950 
Final Wavelength (Angstoms) -------  2984 
Wavelength Increment (Angstroms) --  .25 
Filter Wheel #1 Position ---------- (1) Ground quartz diffuser (ND=2.32)
Filter Wheel #2 Position ---------- (1) Neutral Density 0.494



************************************************************
HS scan start time = 04:17:51
Dark Count =  .8 


Time (GMT)  Wavelength (Ang)  Step Number  Raw Counts  Counts/Second

  258.74        2950.00           2144         159.00       689.64
  258.94        2950.25           2147         143.00       619.89
  258.97        2950.50           2151         155.00       672.20
  259.00        2950.75           2155         134.00       580.66
  259.03        2951.00           2158         133.00       576.30
  259.06        2951.25           2162         157.00       680.92
  259.09        2951.50           2165         148.00       641.69
  259.12        2951.75           2169         155.00       672.20
  259.15        2952.00           2172         145.00       628.61
  259.18        2952.25           2176         151.00       654.77
  259.21        2952.50           2179         149.00       646.05
  259.24        2952.75           2183         150.00       650.41
  259.27        2953.00           2186         171.00       741.95
  259.31        2953.25           2190         149.00       646.05
  259.34        2953.50           2193         159.00       689.64
  259.37        2953.75           2197         153.00       663.48
  259.40        2954.00           2200         155.00       672.20
  259.43        2954.25           2204         154.00       667.84
  259.46        2954.50           2208         136.00       589.38
  259.49        2954.75           2211         165.00       715.80
  259.52        2955.00           2215         159.00       689.64
  259.55        2955.25           2218         154.00       667.84
  259.58        2955.50           2222         157.00       680.92
  259.61        2955.75           2225         150.00       650.41
  259.64        2956.00           2229         161.00       698.36
  259.67        2956.25           2232         162.00       702.72
  259.70        2956.50           2236         175.00       759.39
  259.73        2956.75           2239         166.00       720.16
  259.76        2957.00           2243         169.00       733.24
  259.79        2957.25           2246         179.00       776.83
  259.83        2957.50           2250         177.00       768.11
  259.86        2957.75           2254         168.00       728.88
  259.89        2958.00           2257         165.00       715.80
  259.92        2958.25           2261         185.00       802.99
  259.95        2958.50           2264         177.00       768.11
  259.98        2958.75           2268         182.00       789.91
  260.01        2959.00           2271         183.00       794.27
  260.04        2959.25           2275         190.00       824.78
  260.07        2959.50           2278         180.00       781.19
  260.10        2959.75           2282         190.00       824.78
  260.13        2960.00           2285         198.00       859.66
  260.16        2960.25           2289         196.00       850.94
  260.19        2960.50           2293         200.00       868.38
  260.22        2960.75           2296         219.00       951.21
  260.25        2961.00           2300         282.00      1225.86
  260.28        2961.25           2303         515.00      2241.67
  260.31        2961.50           2307        2033.00      8861.43
  260.34        2961.75           2310        3934.00     17155.60
  260.38        2962.00           2314        6956.00     30350.40
  260.41        2962.25           2317        9267.00     40448.79
  260.44        2962.50           2321       12694.00     55436.57
  260.47        2962.75           2324       15269.00     66708.25
  260.50        2963.00           2328       18804.00     82196.26
  260.53        2963.25           2331       21369.00     93444.62
  260.56        2963.50           2335       24715.00    108130.90
  260.59        2963.75           2339       28328.00    124005.60
  260.62        2964.00           2342       31213.00    136694.00
  260.65        2964.25           2346       34841.00    152665.70
  260.68        2964.50           2349       37736.00    165423.00
  260.71        2964.75           2353       41174.00    180587.50
  260.74        2965.00           2356       43558.00    191112.20
  260.77        2965.25           2360       46650.00    204773.90
  260.80        2965.50           2363       49441.00    217116.50
  260.83        2965.75           2367       52940.00    232604.80
  260.86        2966.00           2370       55748.00    245046.20
  260.90        2966.25           2374       58490.00    257205.50
  260.93        2966.50           2378       60574.00    266453.60
  260.96        2966.75           2381       60846.00    267661.10
  261.00        2967.00           2385       61023.00    268446.90
  261.03        2967.25           2388       61259.00    269494.70
  261.06        2967.50           2392       60702.00    267021.80
  261.09        2967.75           2395       60957.00    268153.90
  261.12        2968.00           2399       59416.00    261314.00
  261.16        2968.25           2402       57006.00    250623.50
  261.19        2968.50           2406       54073.00    237623.50
  261.22        2968.75           2409       51882.00    227919.80
  261.25        2969.00           2413       48412.00    212564.70
  261.28        2969.25           2417       45092.00    197888.40
  261.31        2969.50           2420       42237.00    185279.50
  261.34        2969.75           2424       38343.00    168099.20
  261.37        2970.00           2427       35535.00    155722.90
  261.40        2970.25           2431       32154.00    140834.90
  261.43        2970.50           2434       29421.00    128811.40
  261.46        2970.75           2438       26076.00    114108.80
  261.49        2971.00           2441       23296.00    101900.80
  261.52        2971.25           2445       19238.00     84098.88
  261.55        2971.50           2449       15234.00     66554.98
  261.58        2971.75           2452       12514.00     54648.96
  261.61        2972.00           2456        8975.00     39172.45
  261.64        2972.25           2459        6580.00     28708.05
  261.68        2972.50           2463        3691.00     16095.12
  261.71        2972.75           2466        1968.00      8577.92
  261.74        2973.00           2470         644.00      2804.10
  261.77        2973.25           2473         326.00      1417.68
  261.80        2973.50           2477         244.00      1060.20
  261.83        2973.75           2481         234.00      1016.60
  261.86        2974.00           2484         248.00      1077.63
  261.89        2974.25           2488         213.00       925.05
  261.92        2974.50           2491         215.00       933.77
  261.95        2974.75           2495         227.00       986.08
  261.98        2975.00           2498         200.00       868.38
  262.01        2975.25           2502         205.00       890.18
  262.04        2975.50           2505         183.00       794.27
  262.07        2975.75           2509         178.00       772.47
  262.10        2976.00           2512         188.00       816.06
  262.13        2976.25           2516         180.00       781.19
  262.16        2976.50           2520         174.00       755.03
  262.20        2976.75           2523         177.00       768.11
  262.23        2977.00           2527         177.00       768.11
  262.26        2977.25           2530         158.00       685.28
  262.29        2977.50           2534         164.00       711.44
  262.32        2977.75           2537         177.00       768.11
  262.35        2978.00           2541         173.00       750.67
  262.38        2978.25           2544         165.00       715.80
  262.41        2978.50           2548         170.00       737.59
  262.44        2978.75           2552         163.00       707.08
  262.47        2979.00           2555         161.00       698.36
  262.50        2979.25           2559         152.00       659.13
  262.53        2979.50           2562         153.00       663.48
  262.56        2979.75           2566         160.00       694.00
  262.59        2980.00           2569         161.00       698.36
  262.62        2980.25           2573         152.00       659.13
  262.65        2980.50           2577         152.00       659.13
  262.68        2980.75           2580         165.00       715.80
  262.72        2981.00           2584         165.00       715.80
  262.75        2981.25           2587         147.00       637.33
  262.78        2981.50           2591         147.00       637.33
  262.81        2981.75           2594         149.00       646.05
  262.84        2982.00           2598         137.00       593.73
  262.87        2982.25           2601         142.00       615.53
  262.90        2982.50           2605         141.00       611.17
  262.93        2982.75           2609         147.00       637.33
  262.96        2983.00           2612         168.00       728.88
  262.99        2983.25           2616         138.00       598.09
  263.02        2983.50           2619         140.00       606.81
  263.05        2983.75           2623         136.00       589.38
  263.08        2984.00           2626         155.00       672.20
HS scan finished at 04:23:18
end
************************************************************
  HS Scan of (1) Internal mercury lamp
************************************************************
Integration time is 0.2294 seconds per sample
dh031117Reading 51.44 .94 3.31pr1000
************************************************************
Dead Time -------------------------  3.4E-08 
Number of Cycles Used -------------  4 
Starting Wavelength (Angstroms) ---  2950 
Final Wavelength (Angstoms) -------  2984 
Wavelength Increment (Angstroms) --  .25 
Filter Wheel #1 Position ---------- (1) Ground quartz diffuser (ND=2.32)
Filter Wheel #2 Position ---------- (1) Neutral Density 0.494



************************************************************
HS scan start time = 17:37:28
Dark Count =  1.6 


Time (GMT)  Wavelength (Ang)  Step Number  Raw Counts  Counts/Second

 1058.36        2950.00           2144          90.00       385.36
 1058.56        2950.25           2147          96.00       411.51
 1058.59        2950.50           2151          95.00       407.15
 1058.62        2950.75           2155         103.00       442.03
 1058.65        2951.00           2158         107.00       459.47
 1058.68        2951.25           2162         100.00       428.95
 1058.71        2951.50           2165         118.00       507.42
 1058.74        2951.75           2169          96.00       411.51
 1058.77        2952.00           2172         106.00       455.11
 1058.80        2952.25           2176         112.00       481.26
 1058.83        2952.50           2179         114.00       489.98
 1058.86        2952.75           2183         122.00       524.86
 1058.89        2953.00           2186         106.00       455.11
 1058.92        2953.25           2190         127.00       546.65
 1058.95        2953.50           2193         106.00       455.11
 1058.99        2953.75           2197         113.00       485.62
 1059.02        2954.00           2200         126.00       542.29
 1059.05        2954.25           2204         160.00       690.51
 1059.08        2954.50           2208         155.00       668.72
 1059.11        2954.75           2211         148.00       638.20
 1059.14        2955.00           2215         134.00       577.17
 1059.17        2955.25           2218         109.00       468.19
 1059.20        2955.50           2222         130.00       559.73
 1059.23        2955.75           2225         129.00       555.37
 1059.26        2956.00           2229         118.00       507.42
 1059.29        2956.25           2232         131.00       564.09
 1059.32        2956.50           2236         157.00       677.43
 1059.35        2956.75           2239         118.00       507.42
 1059.38        2957.00           2243         148.00       638.20
 1059.41        2957.25           2246         146.00       629.48
 1059.44        2957.50           2250         164.00       707.95
 1059.47        2957.75           2254         145.00       625.12
 1059.51        2958.00           2257         127.00       546.65
 1059.54        2958.25           2261         141.00       607.68
 1059.57        2958.50           2264         130.00       559.73
 1059.60        2958.75           2268         152.00       655.64
 1059.63        2959.00           2271         120.00       516.14
 1059.66        2959.25           2275         132.00       568.45
 1059.69        2959.50           2278         147.00       633.84
 1059.72        2959.75           2282         139.00       598.97
 1059.75        2960.00           2285         149.00       642.56
 1059.78        2960.25           2289         148.00       638.20
 1059.81        2960.50           2293         179.00       773.34
 1059.84        2960.75           2296         159.00       686.15
 1059.87        2961.00           2300         207.00       895.41
 1059.90        2961.25           2303         378.00      1640.89
 1059.93        2961.50           2307        1477.00      6432.97
 1059.96        2961.75           2310        3031.00     13211.69
 1059.99        2962.00           2314        5487.00     23931.41
 1060.02        2962.25           2317        7272.00     31727.32
 1060.06        2962.50           2321        9556.00     41708.63
 1060.09        2962.75           2324       11486.00     50148.21
 1060.12        2963.00           2328       14104.00     61604.06
 1060.15        2963.25           2331       16636.00     72692.09
 1060.18        2963.50           2335       19350.00     84586.42
 1060.21        2963.75           2339       21938.00     95937.53
 1060.24        2964.00           2342       23908.00    104584.00
 1060.27        2964.25           2346       26608.00    116442.70
 1060.30        2964.50           2349       28442.00    124503.30
 1060.33        2964.75           2353       31209.00    136672.90
 1060.36        2965.00           2356       33358.00    146131.40
 1060.39        2965.25           2360       36025.00    157878.30
 1060.42        2965.50           2363       37747.00    165468.00
 1060.45        2965.75           2367       40573.00    177931.90
 1060.48        2966.00           2370       42012.00    184282.70
 1060.51        2966.25           2374       44301.00    194390.40
 1060.54        2966.50           2378       45383.00    199170.70
 1060.58        2966.75           2381       45596.00    200111.90
 1060.61        2967.00           2385       45498.00    199678.90
 1060.65        2967.25           2388       45662.00    200403.60
 1060.68        2967.50           2392       45562.00    199961.70
 1060.71        2967.75           2395       45106.00    197946.70
 1060.74        2968.00           2399       43752.00    191965.50
 1060.77        2968.25           2402       42352.00    185783.60
 1060.80        2968.50           2406       39391.00    172717.50
 1060.84        2968.75           2409       37804.00    165719.30
 1060.87        2969.00           2413       35252.00    154472.60
 1060.90        2969.25           2417       32658.00    143049.80
 1060.93        2969.50           2420       30959.00    135572.90
 1060.96        2969.75           2424       28486.00    124696.70
 1060.99        2970.00           2427       26621.00    116499.80
 1061.02        2970.25           2431       23499.00    102788.40
 1061.05        2970.50           2434       21362.00     93410.41
 1061.08        2970.75           2438       18657.00     81548.38
 1061.11        2971.00           2441       16751.00     73195.88
 1061.14        2971.25           2445       14208.00     62059.32
 1061.17        2971.50           2449       11951.00     52182.30
 1061.20        2971.75           2452        9924.00     43317.46
 1061.23        2972.00           2456        7538.00     32889.42
 1061.26        2972.25           2459        5583.00     24350.58
 1061.29        2972.50           2463        3125.00     13621.83
 1061.32        2972.75           2466        1584.00      6899.61
 1061.36        2973.00           2470         404.00      1754.25
 1061.39        2973.25           2473         223.00       965.16
 1061.42        2973.50           2477         174.00       751.54
 1061.45        2973.75           2481         167.00       721.03
 1061.48        2974.00           2484         159.00       686.15
 1061.51        2974.25           2488         153.00       660.00
 1061.54        2974.50           2491         157.00       677.43
 1061.57        2974.75           2495         148.00       638.20
 1061.60        2975.00           2498         147.00       633.84
 1061.63        2975.25           2502         131.00       564.09
 1061.66        2975.50           2505         130.00       559.73
 1061.69        2975.75           2509         153.00       660.00
 1061.72        2976.00           2512         140.00       603.33
 1061.75        2976.25           2516         130.00       559.73
 1061.78        2976.50           2520         151.00       651.28
 1061.81        2976.75           2523         125.00       537.93
 1061.84        2977.00           2527         123.00       529.22
 1061.88        2977.25           2530         122.00       524.86
 1061.91        2977.50           2534         118.00       507.42
 1061.94        2977.75           2537         151.00       651.28
 1061.97        2978.00           2541         131.00       564.09
 1062.00        2978.25           2544         135.00       581.53
 1062.03        2978.50           2548         105.00       450.75
 1062.06        2978.75           2552         124.00       533.58
 1062.09        2979.00           2555         127.00       546.65
 1062.12        2979.25           2559         103.00       442.03
 1062.15        2979.50           2562         113.00       485.62
 1062.18        2979.75           2566         105.00       450.75
 1062.21        2980.00           2569         110.00       472.54
 1062.24        2980.25           2573         109.00       468.19
 1062.27        2980.50           2577         111.00       476.90
 1062.30        2980.75           2580         114.00       489.98
 1062.33        2981.00           2584         120.00       516.14
 1062.36        2981.25           2587          98.00       420.23
 1062.40        2981.50           2591         118.00       507.42
 1062.43        2981.75           2594         101.00       433.31
 1062.46        2982.00           2598         135.00       581.53
 1062.49        2982.25           2601         103.00       442.03
 1062.52        2982.50           2605         103.00       442.03
 1062.55        2982.75           2609          96.00       411.51
 1062.58        2983.00           2612          98.00       420.23
 1062.61        2983.25           2616          94.00       402.80
 1062.64        2983.50           2619         108.00       463.83
 1062.67        2983.75           2623         106.00       455.11
 1062.70        2984.00           2626          90.00       385.36
HS scan finished at 17:42:56
end
