************************************************************
  HS Scan of (1) Internal mercury lamp
************************************************************
Integration time is 0.2294 seconds per sample
dh291018Reading 51.44 .94 2.41pr1000
************************************************************
Dead Time -------------------------  3.4E-08 
Number of Cycles Used -------------  4 
Starting Wavelength (Angstroms) ---  2950 
Final Wavelength (Angstoms) -------  2984 
Wavelength Increment (Angstroms) --  .25 
Filter Wheel #1 Position ---------- (1) Ground quartz diffuser (ND=2.32)
Filter Wheel #2 Position ---------- (1) Neutral Density 0.494



************************************************************
HS scan start time = 04:12:09
Dark Count =  .3 


Time (GMT)  Wavelength (Ang)  Step Number  Raw Counts  Counts/Second

  253.05        2950.00           2144        1564.00      6818.06
  253.25        2950.25           2147        1554.00      6774.45
  253.28        2950.50           2151        1551.00      6761.36
  253.31        2950.75           2155        1563.00      6813.70
  253.34        2951.00           2158        1527.00      6656.69
  253.37        2951.25           2162        1618.00      7053.57
  253.40        2951.50           2165        1563.00      6813.70
  253.43        2951.75           2169        1565.00      6822.42
  253.46        2952.00           2172        1594.00      6948.90
  253.49        2952.25           2176        1581.00      6892.20
  253.52        2952.50           2179        1573.00      6857.31
  253.55        2952.75           2183        1606.00      7001.23
  253.58        2953.00           2186        1566.00      6826.78
  253.61        2953.25           2190        1589.00      6927.09
  253.64        2953.50           2193        1596.00      6957.62
  253.67        2953.75           2197        1576.00      6870.39
  253.70        2954.00           2200        1607.00      7005.59
  253.73        2954.25           2204        1565.00      6822.42
  253.77        2954.50           2208        1580.00      6887.84
  253.80        2954.75           2211        1614.00      7036.12
  253.83        2955.00           2215        1624.00      7079.73
  253.86        2955.25           2218        1601.00      6979.42
  253.89        2955.50           2222        1645.00      7171.32
  253.92        2955.75           2225        1668.00      7271.63
  253.95        2956.00           2229        1668.00      7271.63
  253.98        2956.25           2232        1677.00      7310.88
  254.01        2956.50           2236        1709.00      7450.45
  254.04        2956.75           2239        1640.00      7149.51
  254.07        2957.00           2243        1686.00      7350.14
  254.10        2957.25           2246        1710.00      7454.81
  254.13        2957.50           2250        1678.00      7315.25
  254.16        2957.75           2254        1711.00      7459.17
  254.19        2958.00           2257        1691.00      7371.94
  254.22        2958.25           2261        1725.00      7520.23
  254.25        2958.50           2264        1739.00      7581.29
  254.29        2958.75           2268        1776.00      7742.67
  254.32        2959.00           2271        1780.00      7760.11
  254.35        2959.25           2275        1813.00      7904.04
  254.38        2959.50           2278        1809.00      7886.60
  254.41        2959.75           2282        1837.00      8008.72
  254.44        2960.00           2285        1835.00      8000.00
  254.47        2960.25           2289        1853.00      8078.50
  254.50        2960.50           2293        1929.00      8409.99
  254.53        2960.75           2296        1917.00      8357.65
  254.56        2961.00           2300        1994.00      8693.50
  254.59        2961.25           2303        2259.00      9849.42
  254.62        2961.50           2307        5395.00     23535.39
  254.65        2961.75           2310       12223.00     53377.96
  254.68        2962.00           2314       26435.00    115688.20
  254.71        2962.25           2317       38339.00    168083.80
  254.74        2962.50           2321       54412.00    239127.70
  254.77        2962.75           2324       67455.00    297033.10
  254.81        2963.00           2328       85691.00    378379.40
  254.84        2963.25           2331      100021.00    442621.30
  254.87        2963.50           2335      118631.00    526474.80
  254.90        2963.75           2339      136067.00    605478.80
  254.93        2964.00           2342      151111.00    673990.80
  254.96        2964.25           2346      171668.00    768134.90
  254.99        2964.50           2349      185943.00    833870.60
  255.02        2964.75           2353      203235.00    913900.90
  255.05        2965.00           2356      211030.00    950122.80
  255.08        2965.25           2360      232735.00   1051462.00
  255.11        2965.50           2363      246779.00   1117414.00
  255.14        2965.75           2367      263679.00   1197179.00
  255.17        2966.00           2370      276440.00   1257704.00
  255.20        2966.25           2374      291795.00   1330870.00
  255.23        2966.50           2378      305142.00   1394772.00
  255.26        2966.75           2381      310559.00   1420789.00
  255.29        2967.00           2385      312778.00   1431460.00
  255.33        2967.25           2388      313142.00   1433212.00
  255.36        2967.50           2392      312388.00   1429584.00
  255.39        2967.75           2395      312261.00   1428973.00
  255.42        2968.00           2399      308187.00   1409391.00
  255.45        2968.25           2402      300339.00   1371744.00
  255.48        2968.50           2406      285617.00   1301387.00
  255.51        2968.75           2409      273396.00   1243243.00
  255.54        2969.00           2413      256393.00   1162736.00
  255.57        2969.25           2417      238400.00   1078029.00
  255.60        2969.50           2420      224393.00   1012430.00
  255.63        2969.75           2424      205309.00    923529.60
  255.66        2970.00           2427      191123.00    857798.20
  255.69        2970.25           2431      172923.00    773902.10
  255.72        2970.50           2434      159838.00    713883.00
  255.75        2970.75           2438      139590.00    621494.10
  255.78        2971.00           2441      124211.00    551711.70
  255.81        2971.25           2445      105777.00    468505.40
  255.84        2971.50           2449       87722.00    387467.30
  255.88        2971.75           2452       75050.00    330857.60
  255.91        2972.00           2456       57257.00    251738.80
  255.94        2972.25           2459       44025.00    193177.00
  255.97        2972.50           2463       25080.00    109736.10
  256.00        2972.75           2466       13020.00     56865.29
  256.03        2973.00           2470        4748.00     20710.74
  256.06        2973.25           2473        2702.00     11781.96
  256.09        2973.50           2477        1999.00      8715.31
  256.12        2973.75           2481        1892.00      8248.61
  256.15        2974.00           2484        1887.00      8226.80
  256.18        2974.25           2488        1863.00      8122.12
  256.21        2974.50           2491        1806.00      7873.51
  256.24        2974.75           2495        1824.00      7952.02
  256.28        2975.00           2498        1734.00      7559.48
  256.31        2975.25           2502        1722.00      7507.15
  256.34        2975.50           2505        1714.00      7472.26
  256.37        2975.75           2509        1740.00      7585.65
  256.40        2976.00           2512        1704.00      7428.64
  256.43        2976.25           2516        1669.00      7275.99
  256.46        2976.50           2520        1665.00      7258.55
  256.49        2976.75           2523        1641.00      7153.88
  256.52        2977.00           2527        1607.00      7005.59
  256.55        2977.25           2530        1592.00      6940.17
  256.58        2977.50           2534        1613.00      7031.76
  256.61        2977.75           2537        1603.00      6988.15
  256.64        2978.00           2541        1581.00      6892.20
  256.67        2978.25           2544        1592.00      6940.17
  256.70        2978.50           2548        1538.00      6704.67
  256.73        2978.75           2552        1538.00      6704.67
  256.76        2979.00           2555        1562.00      6809.34
  256.80        2979.25           2559        1536.00      6695.95
  256.83        2979.50           2562        1527.00      6656.69
  256.86        2979.75           2566        1474.00      6425.55
  256.89        2980.00           2569        1483.00      6464.80
  256.92        2980.25           2573        1477.00      6438.64
  256.95        2980.50           2577        1515.00      6604.36
  256.98        2980.75           2580        1490.00      6495.33
  257.01        2981.00           2584        1500.00      6538.94
  257.04        2981.25           2587        1462.00      6373.22
  257.07        2981.50           2591        1461.00      6368.86
  257.10        2981.75           2594        1476.00      6434.28
  257.13        2982.00           2598        1457.00      6351.42
  257.16        2982.25           2601        1459.00      6360.14
  257.19        2982.50           2605        1478.00      6443.00
  257.22        2982.75           2609        1414.00      6163.89
  257.25        2983.00           2612        1443.00      6290.36
  257.28        2983.25           2616        1438.00      6268.55
  257.32        2983.50           2619        1421.00      6194.42
  257.35        2983.75           2623        1442.00      6286.00
  257.38        2984.00           2626        1404.00      6120.28
HS scan finished at 04:17:36
end
************************************************************
  HS Scan of (1) Internal mercury lamp
************************************************************
Integration time is 0.2294 seconds per sample
dh291018Reading 51.44 .94 2.92pr1000
************************************************************
Dead Time -------------------------  3.4E-08 
Number of Cycles Used -------------  4 
Starting Wavelength (Angstroms) ---  2950 
Final Wavelength (Angstoms) -------  2984 
Wavelength Increment (Angstroms) --  .25 
Filter Wheel #1 Position ---------- (1) Ground quartz diffuser (ND=2.32)
Filter Wheel #2 Position ---------- (1) Neutral Density 0.494



************************************************************
HS scan start time = 17:37:31
Dark Count =  .8 


Time (GMT)  Wavelength (Ang)  Step Number  Raw Counts  Counts/Second

 1058.41        2950.00           2144        1259.00      5485.77
 1058.60        2950.25           2147        1207.00      5259.01
 1058.64        2950.50           2151        1261.00      5494.49
 1058.67        2950.75           2155        1242.00      5411.63
 1058.70        2951.00           2158        1268.00      5525.01
 1058.73        2951.25           2162        1239.00      5398.55
 1058.76        2951.50           2165        1298.00      5655.84
 1058.79        2951.75           2169        1262.00      5498.85
 1058.82        2952.00           2172        1286.00      5603.51
 1058.85        2952.25           2176        1263.00      5503.21
 1058.88        2952.50           2179        1262.00      5498.85
 1058.91        2952.75           2183        1240.00      5402.91
 1058.94        2953.00           2186        1256.00      5472.68
 1058.97        2953.25           2190        1284.00      5594.79
 1059.00        2953.50           2193        1269.00      5529.37
 1059.03        2953.75           2197        1263.00      5503.21
 1059.06        2954.00           2200        1315.00      5729.97
 1059.09        2954.25           2204        1316.00      5734.34
 1059.12        2954.50           2208        1304.00      5682.00
 1059.16        2954.75           2211        1302.00      5673.28
 1059.19        2955.00           2215        1335.00      5817.19
 1059.22        2955.25           2218        1315.00      5729.97
 1059.25        2955.50           2222        1344.00      5856.44
 1059.28        2955.75           2225        1305.00      5686.36
 1059.31        2956.00           2229        1330.00      5795.39
 1059.34        2956.25           2232        1365.00      5948.02
 1059.37        2956.50           2236        1339.00      5834.64
 1059.40        2956.75           2239        1351.00      5886.97
 1059.43        2957.00           2243        1383.00      6026.52
 1059.46        2957.25           2246        1389.00      6052.68
 1059.49        2957.50           2250        1381.00      6017.80
 1059.52        2957.75           2254        1391.00      6061.41
 1059.55        2958.00           2257        1411.00      6148.63
 1059.58        2958.25           2261        1432.00      6240.21
 1059.61        2958.50           2264        1433.00      6244.57
 1059.64        2958.75           2268        1474.00      6423.37
 1059.68        2959.00           2271        1450.00      6318.71
 1059.71        2959.25           2275        1476.00      6432.10
 1059.74        2959.50           2278        1512.00      6589.10
 1059.77        2959.75           2282        1503.00      6549.85
 1059.80        2960.00           2285        1564.00      6815.88
 1059.83        2960.25           2289        1532.00      6676.32
 1059.86        2960.50           2293        1601.00      6977.24
 1059.89        2960.75           2296        1562.00      6807.16
 1059.92        2961.00           2300        1626.00      7086.28
 1059.95        2961.25           2303        1888.00      8228.98
 1059.98        2961.50           2307        4505.00     19647.82
 1060.01        2961.75           2310       11255.00     49141.33
 1060.04        2962.00           2314       24283.00    106233.90
 1060.07        2962.25           2317       34526.00    151278.30
 1060.10        2962.50           2321       50500.00    221802.40
 1060.13        2962.75           2324       62607.00    275481.00
 1060.16        2963.00           2328       80085.00    353322.00
 1060.20        2963.25           2331       94014.00    415655.00
 1060.23        2963.50           2335      114060.00    505831.70
 1060.26        2963.75           2339      132851.00    590872.30
 1060.29        2964.00           2342      146331.00    652184.90
 1060.32        2964.25           2346      162550.00    726300.00
 1060.35        2964.50           2349      174720.00    782161.90
 1060.38        2964.75           2353      191870.00    861249.80
 1060.41        2965.00           2356      205645.00    925087.80
 1060.44        2965.25           2360      223933.00   1010278.00
 1060.47        2965.50           2363      236814.00   1070584.00
 1060.50        2965.75           2367      252158.00   1142752.00
 1060.53        2966.00           2370      263853.00   1198000.00
 1060.56        2966.25           2374      278845.00   1269136.00
 1060.59        2966.50           2378      291775.00   1330772.00
 1060.62        2966.75           2381      298068.00   1360866.00
 1060.65        2967.00           2385      300670.00   1373327.00
 1060.68        2967.25           2388      300479.00   1372412.00
 1060.72        2967.50           2392      301018.00   1374995.00
 1060.75        2967.75           2395      300544.00   1372724.00
 1060.78        2968.00           2399      299374.00   1367119.00
 1060.81        2968.25           2402      294160.00   1342170.00
 1060.84        2968.50           2406      281225.00   1280462.00
 1060.87        2968.75           2409      270255.00   1228334.00
 1060.90        2969.00           2413      254367.00   1153171.00
 1060.93        2969.25           2417      236781.00   1070429.00
 1060.96        2969.50           2420      224213.00   1011586.00
 1060.99        2969.75           2424      206026.00    926857.50
 1061.02        2970.00           2427      191195.00    858128.80
 1061.05        2970.25           2431      171453.00    767144.80
 1061.08        2970.50           2434      158061.00    705749.00
 1061.11        2970.75           2438      138981.00    618722.10
 1061.14        2971.00           2441      124982.00    555199.90
 1061.17        2971.25           2445      106906.00    473585.50
 1061.20        2971.50           2449       89820.00    396858.60
 1061.24        2971.75           2452       76884.00    339034.80
 1061.27        2972.00           2456       58403.00    256819.50
 1061.30        2972.25           2459       44837.00    196761.80
 1061.33        2972.50           2463       28052.00    122792.30
 1061.36        2972.75           2466       16524.00     72204.94
 1061.39        2973.00           2470        5905.00     25760.13
 1061.42        2973.25           2473        2955.00     12883.58
 1061.45        2973.50           2477        1827.00      7962.92
 1061.48        2973.75           2481        1584.00      6903.10
 1061.51        2974.00           2484        1620.00      7060.11
 1061.54        2974.25           2488        1551.00      6759.18
 1061.57        2974.50           2491        1584.00      6903.10
 1061.60        2974.75           2495        1538.00      6702.49
 1061.63        2975.00           2498        1491.00      6497.51
 1061.66        2975.25           2502        1506.00      6562.93
 1061.69        2975.50           2505        1485.00      6471.35
 1061.72        2975.75           2509        1510.00      6580.37
 1061.76        2976.00           2512        1440.00      6275.10
 1061.79        2976.25           2516        1413.00      6157.35
 1061.82        2976.50           2520        1395.00      6078.85
 1061.86        2976.75           2523        1366.00      5952.38
 1061.89        2977.00           2527        1324.00      5769.22
 1061.92        2977.25           2530        1388.00      6048.32
 1061.95        2977.50           2534        1357.00      5913.13
 1061.98        2977.75           2537        1339.00      5834.64
 1062.01        2978.00           2541        1322.00      5760.50
 1062.05        2978.25           2544        1306.00      5690.73
 1062.08        2978.50           2548        1282.00      5586.07
 1062.11        2978.75           2552        1278.00      5568.62
 1062.14        2979.00           2555        1295.00      5642.76
 1062.17        2979.25           2559        1293.00      5634.03
 1062.20        2979.50           2562        1312.00      5716.89
 1062.23        2979.75           2566        1265.00      5511.93
 1062.26        2980.00           2569        1253.00      5459.60
 1062.29        2980.25           2573        1218.00      5306.97
 1062.32        2980.50           2577        1249.00      5442.16
 1062.35        2980.75           2580        1237.00      5389.83
 1062.38        2981.00           2584        1236.00      5385.47
 1062.41        2981.25           2587        1214.00      5289.53
 1062.44        2981.50           2591        1233.00      5372.39
 1062.47        2981.75           2594        1217.00      5302.61
 1062.50        2982.00           2598        1247.00      5433.44
 1062.53        2982.25           2601        1207.00      5259.01
 1062.57        2982.50           2605        1193.00      5197.95
 1062.60        2982.75           2609        1203.00      5241.56
 1062.63        2983.00           2612        1183.00      5154.35
 1062.66        2983.25           2616        1203.00      5241.56
 1062.69        2983.50           2619        1181.00      5145.63
 1062.72        2983.75           2623        1202.00      5237.20
 1062.75        2984.00           2626        1167.00      5084.58
HS scan finished at 17:42:58
end
