************************************************************
  HS Scan of (1) Internal mercury lamp
************************************************************
Integration time is 0.2294 seconds per sample
dh051117Reading 51.44 .94 2.54pr1000
************************************************************
Dead Time -------------------------  3.4E-08 
Number of Cycles Used -------------  4 
Starting Wavelength (Angstroms) ---  2950 
Final Wavelength (Angstoms) -------  2984 
Wavelength Increment (Angstroms) --  .25 
Filter Wheel #1 Position ---------- (1) Ground quartz diffuser (ND=2.32)
Filter Wheel #2 Position ---------- (1) Neutral Density 0.494



************************************************************
HS scan start time = 04:21:09
Dark Count =  .3 


Time (GMT)  Wavelength (Ang)  Step Number  Raw Counts  Counts/Second

  262.05        2950.00           2144         158.00       687.46
  262.24        2950.25           2147         166.00       722.34
  262.27        2950.50           2151         165.00       717.98
  262.31        2950.75           2155         174.00       757.21
  262.34        2951.00           2158         172.00       748.49
  262.37        2951.25           2162         168.00       731.06
  262.40        2951.50           2165         159.00       691.82
  262.43        2951.75           2169         157.00       683.10
  262.46        2952.00           2172         160.00       696.18
  262.49        2952.25           2176         168.00       731.06
  262.52        2952.50           2179         166.00       722.34
  262.55        2952.75           2183         169.00       735.42
  262.58        2953.00           2186         165.00       717.98
  262.61        2953.25           2190         160.00       696.18
  262.64        2953.50           2193         171.00       744.13
  262.67        2953.75           2197         174.00       757.21
  262.70        2954.00           2200         162.00       704.90
  262.73        2954.25           2204         178.00       774.65
  262.76        2954.50           2208         178.00       774.65
  262.79        2954.75           2211         177.00       770.29
  262.83        2955.00           2215         176.00       765.93
  262.86        2955.25           2218         189.00       822.60
  262.89        2955.50           2222         183.00       796.45
  262.92        2955.75           2225         169.00       735.42
  262.95        2956.00           2229         178.00       774.65
  262.98        2956.25           2232         183.00       796.45
  263.01        2956.50           2236         190.00       826.96
  263.04        2956.75           2239         195.00       848.76
  263.07        2957.00           2243         213.00       927.23
  263.10        2957.25           2246         185.00       805.17
  263.13        2957.50           2250         205.00       892.35
  263.16        2957.75           2254         201.00       874.92
  263.19        2958.00           2257         186.00       809.53
  263.22        2958.25           2261         210.00       914.15
  263.25        2958.50           2264         209.00       909.79
  263.28        2958.75           2268         214.00       931.59
  263.31        2959.00           2271         227.00       988.26
  263.35        2959.25           2275         217.00       944.67
  263.38        2959.50           2278         227.00       988.26
  263.41        2959.75           2282         219.00       953.39
  263.44        2960.00           2285         226.00       983.90
  263.47        2960.25           2289         245.00      1066.73
  263.50        2960.50           2293         257.00      1119.05
  263.53        2960.75           2296         254.00      1105.97
  263.56        2961.00           2300         357.00      1555.01
  263.59        2961.25           2303         739.00      3220.49
  263.62        2961.50           2307        2662.00     11607.46
  263.65        2961.75           2310        4752.00     20728.21
  263.68        2962.00           2314        7953.00     34708.33
  263.71        2962.25           2317       10682.00     46637.54
  263.74        2962.50           2321       14196.00     62012.48
  263.77        2962.75           2324       17122.00     74827.00
  263.80        2963.00           2328       21257.00     92955.49
  263.83        2963.25           2331       24147.00    105639.00
  263.87        2963.50           2335       27568.00    120667.10
  263.90        2963.75           2339       31252.00    136867.80
  263.93        2964.00           2342       34183.00    149769.90
  263.96        2964.25           2346       38443.00    168542.40
  263.99        2964.50           2349       41298.00    181137.00
  264.02        2964.75           2353       44941.00    197223.50
  264.05        2965.00           2356       47221.00    207300.40
  264.08        2965.25           2360       51080.00    224371.70
  264.11        2965.50           2363       53792.00    236380.80
  264.14        2965.75           2367       57175.00    251375.10
  264.17        2966.00           2370       59627.00    262252.60
  264.20        2966.25           2374       62814.00    276402.70
  264.23        2966.50           2378       64611.00    284387.40
  264.26        2966.75           2381       64939.00    285845.30
  264.29        2967.00           2385       65044.00    286312.00
  264.32        2967.25           2388       64948.00    285885.30
  264.35        2967.50           2392       65124.00    286667.60
  264.38        2967.75           2395       64795.00    285205.20
  264.42        2968.00           2399       62710.00    275940.80
  264.45        2968.25           2402       60417.00    265758.90
  264.48        2968.50           2406       56848.00    249925.10
  264.51        2968.75           2409       54306.00    238658.00
  264.54        2969.00           2413       50112.00    220087.60
  264.57        2969.25           2417       46571.00    204426.90
  264.60        2969.50           2420       44008.00    193101.90
  264.63        2969.75           2424       40000.00    175409.60
  264.66        2970.00           2427       37227.00    163181.40
  264.69        2970.25           2431       33164.00    145283.00
  264.73        2970.50           2434       30029.00    131487.60
  264.76        2970.75           2438       26074.00    114102.20
  264.79        2971.00           2441       23320.00    102008.40
  264.82        2971.25           2445       19350.00     84592.12
  264.85        2971.50           2449       15313.00     66903.10
  264.88        2971.75           2452       12440.00     54327.38
  264.91        2972.00           2456        8748.00     38182.49
  264.94        2972.25           2459        6111.00     26661.91
  264.98        2972.50           2463        3191.00     13915.48
  265.01        2972.75           2466        1513.00      6595.64
  265.04        2973.00           2470         508.00      2213.33
  265.07        2973.25           2473         304.00      1323.95
  265.10        2973.50           2477         260.00      1132.13
  265.13        2973.75           2481         253.00      1101.61
  265.16        2974.00           2484         228.00       992.62
  265.19        2974.25           2488         225.00       979.54
  265.22        2974.50           2491         238.00      1036.22
  265.25        2974.75           2495         213.00       927.23
  265.28        2975.00           2498         218.00       949.03
  265.31        2975.25           2502         221.00       962.11
  265.34        2975.50           2505         208.00       905.43
  265.37        2975.75           2509         194.00       844.40
  265.40        2976.00           2512         186.00       809.53
  265.43        2976.25           2516         199.00       866.20
  265.46        2976.50           2520         203.00       883.64
  265.49        2976.75           2523         200.00       870.56
  265.53        2977.00           2527         198.00       861.84
  265.56        2977.25           2530         184.00       800.81
  265.59        2977.50           2534         196.00       853.12
  265.62        2977.75           2537         181.00       787.73
  265.65        2978.00           2541         187.00       813.88
  265.68        2978.25           2544         188.00       818.24
  265.71        2978.50           2548         174.00       757.21
  265.74        2978.75           2552         180.00       783.37
  265.77        2979.00           2555         172.00       748.49
  265.81        2979.25           2559         185.00       805.17
  265.85        2979.50           2562         169.00       735.42
  265.88        2979.75           2566         174.00       757.21
  265.91        2980.00           2569         185.00       805.17
  265.94        2980.25           2573         174.00       757.21
  265.97        2980.50           2577         168.00       731.06
  266.00        2980.75           2580         176.00       765.93
  266.03        2981.00           2584         171.00       744.13
  266.06        2981.25           2587         174.00       757.21
  266.09        2981.50           2591         169.00       735.42
  266.12        2981.75           2594         162.00       704.90
  266.15        2982.00           2598         163.00       709.26
  266.18        2982.25           2601         158.00       687.46
  266.21        2982.50           2605         157.00       683.10
  266.24        2982.75           2609         154.00       670.02
  266.28        2983.00           2612         158.00       687.46
  266.31        2983.25           2616         156.00       678.74
  266.34        2983.50           2619         156.00       678.74
  266.37        2983.75           2623         153.00       665.66
  266.40        2984.00           2626         155.00       674.38
HS scan finished at 04:26:37
end
************************************************************
  HS Scan of (1) Internal mercury lamp
************************************************************
Integration time is 0.2294 seconds per sample
dh051117Reading 51.44 .94 2.84pr1000
************************************************************
Dead Time -------------------------  3.4E-08 
Number of Cycles Used -------------  4 
Starting Wavelength (Angstroms) ---  2950 
Final Wavelength (Angstoms) -------  2984 
Wavelength Increment (Angstroms) --  .25 
Filter Wheel #1 Position ---------- (1) Ground quartz diffuser (ND=2.32)
Filter Wheel #2 Position ---------- (1) Neutral Density 0.494



************************************************************
HS scan start time = 17:37:18
Dark Count =  .8 


Time (GMT)  Wavelength (Ang)  Step Number  Raw Counts  Counts/Second

 1058.20        2950.00           2144         138.00       598.09
 1058.40        2950.25           2147         108.00       467.31
 1058.43        2950.50           2151         134.00       580.66
 1058.46        2950.75           2155         106.00       458.59
 1058.49        2951.00           2158         147.00       637.33
 1058.52        2951.25           2162         107.00       462.95
 1058.55        2951.50           2165         121.00       523.98
 1058.58        2951.75           2169         134.00       580.66
 1058.61        2952.00           2172         107.00       462.95
 1058.64        2952.25           2176         118.00       510.91
 1058.67        2952.50           2179         102.00       441.16
 1058.70        2952.75           2183         126.00       545.78
 1058.73        2953.00           2186         136.00       589.38
 1058.76        2953.25           2190         109.00       471.67
 1058.79        2953.50           2193         151.00       654.77
 1058.82        2953.75           2197         136.00       589.38
 1058.85        2954.00           2200         135.00       585.02
 1058.88        2954.25           2204         152.00       659.13
 1058.92        2954.50           2208         120.00       519.63
 1058.95        2954.75           2211         131.00       567.58
 1058.98        2955.00           2215         135.00       585.02
 1059.01        2955.25           2218         133.00       576.30
 1059.04        2955.50           2222         155.00       672.20
 1059.07        2955.75           2225         133.00       576.30
 1059.10        2956.00           2229         141.00       611.17
 1059.13        2956.25           2232         124.00       537.06
 1059.16        2956.50           2236         146.00       632.97
 1059.19        2956.75           2239         149.00       646.05
 1059.22        2957.00           2243         134.00       580.66
 1059.25        2957.25           2246         159.00       689.64
 1059.28        2957.50           2250         137.00       593.73
 1059.31        2957.75           2254         134.00       580.66
 1059.34        2958.00           2257         150.00       650.41
 1059.37        2958.25           2261         142.00       615.53
 1059.40        2958.50           2264         139.00       602.45
 1059.44        2958.75           2268         141.00       611.17
 1059.47        2959.00           2271         159.00       689.64
 1059.50        2959.25           2275         149.00       646.05
 1059.53        2959.50           2278         168.00       728.88
 1059.56        2959.75           2282         153.00       663.48
 1059.59        2960.00           2285         155.00       672.20
 1059.62        2960.25           2289         157.00       680.92
 1059.65        2960.50           2293         166.00       720.16
 1059.68        2960.75           2296         194.00       842.22
 1059.71        2961.00           2300         220.00       955.57
 1059.74        2961.25           2303         479.00      2084.72
 1059.77        2961.50           2307        1797.00      7832.08
 1059.80        2961.75           2310        3266.00     14240.55
 1059.83        2962.00           2314        5442.00     23738.42
 1059.86        2962.25           2317        7309.00     31892.46
 1059.89        2962.50           2321        9874.00     43102.35
 1059.92        2962.75           2324       11775.00     51415.87
 1059.96        2963.00           2328       14132.00     61730.13
 1059.99        2963.25           2331       16029.00     70036.68
 1060.02        2963.50           2335       18783.00     82104.21
 1060.05        2963.75           2339       21694.00     94870.48
 1060.08        2964.00           2342       23666.00    103525.10
 1060.11        2964.25           2346       26181.00    114570.10
 1060.14        2964.50           2349       28170.00    123311.00
 1060.17        2964.75           2353       31078.00    136100.00
 1060.20        2965.00           2356       32860.00    143942.50
 1060.23        2965.25           2360       35172.00    154123.70
 1060.26        2965.50           2363       37193.00    163029.30
 1060.29        2965.75           2367       39735.00    174238.40
 1060.32        2966.00           2370       41525.00    182136.60
 1060.35        2966.25           2374       44065.00    193351.50
 1060.38        2966.50           2378       45614.00    200195.00
 1060.41        2966.75           2381       45711.00    200623.70
 1060.44        2967.00           2385       45749.00    200791.60
 1060.48        2967.25           2388       45979.00    201808.00
 1060.51        2967.50           2392       45798.00    201008.10
 1060.54        2967.75           2395       45457.00    199501.20
 1060.57        2968.00           2399       44648.00    195926.80
 1060.60        2968.25           2402       43049.00    188864.50
 1060.63        2968.50           2406       40460.00    177436.90
 1060.66        2968.75           2409       38437.00    168513.70
 1060.69        2969.00           2413       35830.00    157022.70
 1060.72        2969.25           2417       33243.00    145628.60
 1060.75        2969.50           2420       31440.00    137692.80
 1060.78        2969.75           2424       28411.00    124370.50
 1060.81        2970.00           2427       26277.00    114991.90
 1060.84        2970.25           2431       23363.00    102194.90
 1060.87        2970.50           2434       21162.00     92536.54
 1060.90        2970.75           2438       18623.00     81402.84
 1060.93        2971.00           2441       16686.00     72914.63
 1060.97        2971.25           2445       14222.00     62124.11
 1061.00        2971.50           2449       11619.00     50733.47
 1061.03        2971.75           2452        9641.00     42083.71
 1061.06        2972.00           2456        6916.00     30175.67
 1061.09        2972.25           2459        4923.00     21472.52
 1061.12        2972.50           2463        2519.00     10981.43
 1061.15        2972.75           2466        1139.00      4962.48
 1061.18        2973.00           2470         366.00      1592.07
 1061.21        2973.25           2473         237.00      1029.68
 1061.24        2973.50           2477         180.00       781.19
 1061.27        2973.75           2481         175.00       759.39
 1061.30        2974.00           2484         170.00       737.59
 1061.33        2974.25           2488         169.00       733.24
 1061.36        2974.50           2491         174.00       755.03
 1061.39        2974.75           2495         156.00       676.56
 1061.42        2975.00           2498         165.00       715.80
 1061.45        2975.25           2502         164.00       711.44
 1061.49        2975.50           2505         157.00       680.92
 1061.52        2975.75           2509         161.00       698.36
 1061.55        2976.00           2512         139.00       602.45
 1061.58        2976.25           2516         156.00       676.56
 1061.61        2976.50           2520         155.00       672.20
 1061.64        2976.75           2523         153.00       663.48
 1061.67        2977.00           2527         151.00       654.77
 1061.70        2977.25           2530         145.00       628.61
 1061.73        2977.50           2534         167.00       724.52
 1061.76        2977.75           2537         132.00       571.94
 1061.79        2978.00           2541         122.00       528.34
 1061.82        2978.25           2544         157.00       680.92
 1061.85        2978.50           2548         159.00       689.64
 1061.88        2978.75           2552         124.00       537.06
 1061.91        2979.00           2555         141.00       611.17
 1061.94        2979.25           2559         122.00       528.34
 1061.97        2979.50           2562         131.00       567.58
 1062.00        2979.75           2566         134.00       580.66
 1062.04        2980.00           2569         122.00       528.34
 1062.07        2980.25           2573         117.00       506.55
 1062.10        2980.50           2577         130.00       563.22
 1062.13        2980.75           2580         125.00       541.42
 1062.16        2981.00           2584         101.00       436.80
 1062.19        2981.25           2587         108.00       467.31
 1062.22        2981.50           2591         115.00       497.83
 1062.25        2981.75           2594         105.00       454.24
 1062.28        2982.00           2598         102.00       441.16
 1062.31        2982.25           2601         105.00       454.24
 1062.34        2982.50           2605         120.00       519.63
 1062.37        2982.75           2609         133.00       576.30
 1062.40        2983.00           2612         112.00       484.75
 1062.43        2983.25           2616         105.00       454.24
 1062.46        2983.50           2619         125.00       541.42
 1062.49        2983.75           2623         126.00       545.78
 1062.52        2984.00           2626         102.00       441.16
HS scan finished at 17:42:45
end
