************************************************************
  HS Scan of (1) Internal mercury lamp
************************************************************
Integration time is 0.2294 seconds per sample
dh041117Reading 51.44 .94 3.11pr1000
************************************************************
Dead Time -------------------------  3.4E-08 
Number of Cycles Used -------------  4 
Starting Wavelength (Angstroms) ---  2950 
Final Wavelength (Angstoms) -------  2984 
Wavelength Increment (Angstroms) --  .25 
Filter Wheel #1 Position ---------- (1) Ground quartz diffuser (ND=2.32)
Filter Wheel #2 Position ---------- (1) Neutral Density 0.494



************************************************************
HS scan start time = 04:19:25
Dark Count =  1.3 


Time (GMT)  Wavelength (Ang)  Step Number  Raw Counts  Counts/Second

  260.31        2950.00           2144         165.00       713.62
  260.50        2950.25           2147         146.00       630.79
  260.53        2950.50           2151         157.00       678.74
  260.56        2950.75           2155         142.00       613.35
  260.59        2951.00           2158         146.00       630.79
  260.62        2951.25           2162         152.00       656.95
  260.65        2951.50           2165         141.00       608.99
  260.68        2951.75           2169         162.00       700.54
  260.72        2952.00           2172         175.00       757.21
  260.75        2952.25           2176         164.00       709.26
  260.78        2952.50           2179         162.00       700.54
  260.81        2952.75           2183         141.00       608.99
  260.84        2953.00           2186         141.00       608.99
  260.87        2953.25           2190         154.00       665.66
  260.90        2953.50           2193         163.00       704.90
  260.93        2953.75           2197         150.00       648.23
  260.97        2954.00           2200         152.00       656.95
  261.00        2954.25           2204         150.00       648.23
  261.03        2954.50           2208         158.00       683.10
  261.06        2954.75           2211         154.00       665.66
  261.09        2955.00           2215         156.00       674.38
  261.12        2955.25           2218         150.00       648.23
  261.15        2955.50           2222         151.00       652.59
  261.18        2955.75           2225         161.00       696.18
  261.22        2956.00           2229         147.00       635.15
  261.25        2956.25           2232         158.00       683.10
  261.28        2956.50           2236         157.00       678.74
  261.31        2956.75           2239         156.00       674.38
  261.34        2957.00           2243         171.00       739.77
  261.37        2957.25           2246         156.00       674.38
  261.40        2957.50           2250         166.00       717.98
  261.43        2957.75           2254         173.00       748.49
  261.46        2958.00           2257         164.00       709.26
  261.49        2958.25           2261         184.00       796.45
  261.52        2958.50           2264         176.00       761.57
  261.55        2958.75           2268         177.00       765.93
  261.58        2959.00           2271         171.00       739.77
  261.61        2959.25           2275         182.00       787.73
  261.64        2959.50           2278         187.00       809.53
  261.67        2959.75           2282         186.00       805.17
  261.70        2960.00           2285         206.00       892.35
  261.74        2960.25           2289         202.00       874.92
  261.77        2960.50           2293         219.00       949.03
  261.80        2960.75           2296         221.00       957.75
  261.83        2961.00           2300         262.00      1136.49
  261.86        2961.25           2303         545.00      2370.29
  261.89        2961.50           2307        2122.00      9247.46
  261.92        2961.75           2310        4071.00     17751.34
  261.95        2962.00           2314        7100.00     30977.25
  261.98        2962.25           2317        9367.00     40883.74
  262.01        2962.50           2321       12909.00     56375.18
  262.04        2962.75           2324       15445.00     67476.78
  262.07        2963.00           2328       19335.00     84521.96
  262.10        2963.25           2331       22164.00     96930.51
  262.13        2963.50           2335       25709.00    112494.40
  262.16        2963.75           2339       28484.00    124689.20
  262.19        2964.00           2342       31434.00    137664.20
  262.22        2964.25           2346       35421.00    155218.50
  262.26        2964.50           2349       37935.00    166298.10
  262.29        2964.75           2353       41416.00    181653.40
  262.32        2965.00           2356       44148.00    193715.90
  262.35        2965.25           2360       47322.00    207742.50
  262.38        2965.50           2363       49737.00    218423.90
  262.41        2965.75           2367       53542.00    235269.00
  262.44        2966.00           2370       55793.00    245243.50
  262.47        2966.25           2374       58733.00    258281.30
  262.50        2966.50           2378       60448.00    265892.10
  262.53        2966.75           2381       60900.00    267898.60
  262.56        2967.00           2385       61026.00    268458.00
  262.59        2967.25           2388       60707.00    267041.80
  262.62        2967.50           2392       60875.00    267787.60
  262.65        2967.75           2395       60690.00    266966.30
  262.68        2968.00           2399       59219.00    260437.70
  262.71        2968.25           2402       57124.00    251144.50
  262.75        2968.50           2406       53613.00    235583.50
  262.78        2968.75           2409       51157.00    224708.10
  262.81        2969.00           2413       47897.00    210285.00
  262.84        2969.25           2417       44930.00    197170.50
  262.87        2969.50           2420       42178.00    185016.80
  262.90        2969.75           2424       38145.00    167224.00
  262.93        2970.00           2427       35549.00    155782.40
  262.96        2970.25           2431       32028.00    140278.20
  262.99        2970.50           2434       29341.00    128457.40
  263.02        2970.75           2438       25517.00    111651.00
  263.05        2971.00           2441       22915.00    100226.30
  263.08        2971.25           2445       19030.00     83184.81
  263.11        2971.50           2449       15033.00     65672.63
  263.14        2971.75           2452       12338.00     53876.72
  263.17        2972.00           2456        8759.00     38226.20
  263.20        2972.25           2459        6338.00     27648.91
  263.23        2972.50           2463        3433.00     14967.07
  263.27        2972.75           2466        1709.00      7446.09
  263.30        2973.00           2470         539.00      2344.13
  263.33        2973.25           2473         299.00      1297.79
  263.36        2973.50           2477         239.00      1036.22
  263.39        2973.75           2481         220.00       953.39
  263.42        2974.00           2484         210.00       909.79
  263.45        2974.25           2488         196.00       848.76
  263.48        2974.50           2491         206.00       892.35
  263.51        2974.75           2495         187.00       809.53
  263.54        2975.00           2498         197.00       853.12
  263.57        2975.25           2502         190.00       822.60
  263.60        2975.50           2505         185.00       800.81
  263.63        2975.75           2509         174.00       752.85
  263.66        2976.00           2512         185.00       800.81
  263.69        2976.25           2516         178.00       770.29
  263.72        2976.50           2520         171.00       739.77
  263.75        2976.75           2523         168.00       726.70
  263.78        2977.00           2527         159.00       687.46
  263.82        2977.25           2530         169.00       731.06
  263.85        2977.50           2534         166.00       717.98
  263.88        2977.75           2537         156.00       674.38
  263.91        2978.00           2541         161.00       696.18
  263.94        2978.25           2544         157.00       678.74
  263.97        2978.50           2548         153.00       661.31
  264.00        2978.75           2552         157.00       678.74
  264.03        2979.00           2555         164.00       709.26
  264.06        2979.25           2559         161.00       696.18
  264.09        2979.50           2562         164.00       709.26
  264.12        2979.75           2566         151.00       652.59
  264.15        2980.00           2569         161.00       696.18
  264.18        2980.25           2573         150.00       648.23
  264.21        2980.50           2577         160.00       691.82
  264.24        2980.75           2580         160.00       691.82
  264.27        2981.00           2584         142.00       613.35
  264.30        2981.25           2587         140.00       604.63
  264.34        2981.50           2591         148.00       639.51
  264.37        2981.75           2594         146.00       630.79
  264.40        2982.00           2598         137.00       591.56
  264.43        2982.25           2601         152.00       656.95
  264.46        2982.50           2605         129.00       556.68
  264.49        2982.75           2609         168.00       726.70
  264.52        2983.00           2612         140.00       604.63
  264.55        2983.25           2616         137.00       591.56
  264.58        2983.50           2619         146.00       630.79
  264.61        2983.75           2623         131.00       565.40
  264.64        2984.00           2626         141.00       608.99
HS scan finished at 04:24:52
end
************************************************************
  HS Scan of (1) Internal mercury lamp
************************************************************
Integration time is 0.2294 seconds per sample
dh041117Reading 51.44 .94 3.05pr1000
************************************************************
Dead Time -------------------------  3.4E-08 
Number of Cycles Used -------------  4 
Starting Wavelength (Angstroms) ---  2950 
Final Wavelength (Angstoms) -------  2984 
Wavelength Increment (Angstroms) --  .25 
Filter Wheel #1 Position ---------- (1) Ground quartz diffuser (ND=2.32)
Filter Wheel #2 Position ---------- (1) Neutral Density 0.494



************************************************************
HS scan start time = 17:37:21
Dark Count =  .8 


Time (GMT)  Wavelength (Ang)  Step Number  Raw Counts  Counts/Second

 1058.25        2950.00           2144         129.00       558.86
 1058.44        2950.25           2147         122.00       528.34
 1058.48        2950.50           2151         139.00       602.45
 1058.51        2950.75           2155         145.00       628.61
 1058.54        2951.00           2158         124.00       537.06
 1058.57        2951.25           2162         125.00       541.42
 1058.60        2951.50           2165         142.00       615.53
 1058.63        2951.75           2169         154.00       667.84
 1058.66        2952.00           2172         141.00       611.17
 1058.69        2952.25           2176         134.00       580.66
 1058.72        2952.50           2179         122.00       528.34
 1058.75        2952.75           2183         160.00       694.00
 1058.78        2953.00           2186         129.00       558.86
 1058.81        2953.25           2190         155.00       672.20
 1058.84        2953.50           2193         133.00       576.30
 1058.87        2953.75           2197         145.00       628.61
 1058.90        2954.00           2200         122.00       528.34
 1058.93        2954.25           2204         128.00       554.50
 1058.96        2954.50           2208         135.00       585.02
 1059.00        2954.75           2211         143.00       619.89
 1059.03        2955.00           2215         156.00       676.56
 1059.06        2955.25           2218         133.00       576.30
 1059.09        2955.50           2222         141.00       611.17
 1059.12        2955.75           2225         161.00       698.36
 1059.15        2956.00           2229         117.00       506.55
 1059.18        2956.25           2232         149.00       646.05
 1059.21        2956.50           2236         136.00       589.38
 1059.24        2956.75           2239         145.00       628.61
 1059.27        2957.00           2243         168.00       728.88
 1059.30        2957.25           2246         146.00       632.97
 1059.33        2957.50           2250         134.00       580.66
 1059.36        2957.75           2254         151.00       654.77
 1059.39        2958.00           2257         147.00       637.33
 1059.42        2958.25           2261         147.00       637.33
 1059.45        2958.50           2264         159.00       689.64
 1059.48        2958.75           2268         141.00       611.17
 1059.52        2959.00           2271         146.00       632.97
 1059.55        2959.25           2275         157.00       680.92
 1059.58        2959.50           2278         158.00       685.28
 1059.61        2959.75           2282         169.00       733.24
 1059.64        2960.00           2285         167.00       724.52
 1059.67        2960.25           2289         168.00       728.88
 1059.70        2960.50           2293         178.00       772.47
 1059.74        2960.75           2296         175.00       759.39
 1059.77        2961.00           2300         242.00      1051.48
 1059.80        2961.25           2303         494.00      2150.11
 1059.83        2961.50           2307        1731.00      7544.22
 1059.86        2961.75           2310        3263.00     14227.46
 1059.89        2962.00           2314        5778.00     25205.55
 1059.92        2962.25           2317        7884.00     34404.65
 1059.95        2962.50           2321       11027.00     48144.14
 1059.98        2962.75           2324       13224.00     57755.85
 1060.01        2963.00           2328       16124.00     70452.78
 1060.04        2963.25           2331       18285.00     79921.33
 1060.07        2963.50           2335       21066.00     92115.42
 1060.10        2963.75           2339       24481.00    107103.40
 1060.13        2964.00           2342       26983.00    118094.00
 1060.16        2964.25           2346       29895.00    130896.00
 1060.19        2964.50           2349       32140.00    140773.30
 1060.22        2964.75           2353       34855.00    152727.40
 1060.26        2965.00           2356       37111.00    162667.90
 1060.29        2965.25           2360       39668.00    173942.90
 1060.32        2965.50           2363       41847.00    183557.90
 1060.35        2965.75           2367       44735.00    196311.20
 1060.38        2966.00           2370       46959.00    206139.80
 1060.41        2966.25           2374       49405.00    216957.20
 1060.44        2966.50           2378       50696.00    222669.80
 1060.47        2966.75           2381       50853.00    223364.70
 1060.50        2967.00           2385       50808.00    223165.50
 1060.53        2967.25           2388       50929.00    223701.10
 1060.56        2967.50           2392       50944.00    223767.50
 1060.59        2967.75           2395       50747.00    222895.60
 1060.62        2968.00           2399       49386.00    216873.20
 1060.65        2968.25           2402       47649.00    209190.50
 1060.68        2968.50           2406       44771.00    196470.20
 1060.71        2968.75           2409       42922.00    188303.70
 1060.74        2969.00           2413       40164.00    176130.90
 1060.78        2969.25           2417       37025.00    162288.80
 1060.81        2969.50           2420       34824.00    152590.80
 1060.84        2969.75           2424       32031.00    140293.60
 1060.87        2970.00           2427       29933.00    131063.10
 1060.90        2970.25           2431       26868.00    117588.60
 1060.93        2970.50           2434       24763.00    108341.70
 1060.96        2970.75           2438       21772.00     95212.69
 1060.99        2971.00           2441       19260.00     84195.34
 1061.02        2971.25           2445       15889.00     69423.49
 1061.05        2971.50           2449       12807.00     55931.02
 1061.08        2971.75           2452       10547.00     46045.01
 1061.11        2972.00           2456        7722.00     33696.83
 1061.14        2972.25           2459        5671.00     24738.33
 1061.17        2972.50           2463        3008.00     13114.83
 1061.20        2972.75           2466        1446.00      6301.26
 1061.23        2973.00           2470         443.00      1927.76
 1061.26        2973.25           2473         255.00      1108.15
 1061.30        2973.50           2477         193.00       837.86
 1061.33        2973.75           2481         180.00       781.19
 1061.36        2974.00           2484         185.00       802.99
 1061.39        2974.25           2488         177.00       768.11
 1061.42        2974.50           2491         190.00       824.78
 1061.45        2974.75           2495         175.00       759.39
 1061.48        2975.00           2498         160.00       694.00
 1061.51        2975.25           2502         167.00       724.52
 1061.54        2975.50           2505         153.00       663.48
 1061.57        2975.75           2509         164.00       711.44
 1061.60        2976.00           2512         161.00       698.36
 1061.63        2976.25           2516         155.00       672.20
 1061.66        2976.50           2520         160.00       694.00
 1061.69        2976.75           2523         151.00       654.77
 1061.72        2977.00           2527         149.00       646.05
 1061.75        2977.25           2530         143.00       619.89
 1061.79        2977.50           2534         142.00       615.53
 1061.82        2977.75           2537         143.00       619.89
 1061.85        2978.00           2541         153.00       663.48
 1061.88        2978.25           2544         167.00       724.52
 1061.91        2978.50           2548         115.00       497.83
 1061.94        2978.75           2552         158.00       685.28
 1061.97        2979.00           2555         144.00       624.25
 1062.00        2979.25           2559         140.00       606.81
 1062.03        2979.50           2562         126.00       545.78
 1062.06        2979.75           2566         124.00       537.06
 1062.09        2980.00           2569         153.00       663.48
 1062.12        2980.25           2573         152.00       659.13
 1062.15        2980.50           2577         157.00       680.92
 1062.18        2980.75           2580         147.00       637.33
 1062.21        2981.00           2584         147.00       637.33
 1062.24        2981.25           2587         139.00       602.45
 1062.27        2981.50           2591         119.00       515.27
 1062.31        2981.75           2594         136.00       589.38
 1062.34        2982.00           2598         119.00       515.27
 1062.37        2982.25           2601         133.00       576.30
 1062.40        2982.50           2605         134.00       580.66
 1062.43        2982.75           2609         133.00       576.30
 1062.46        2983.00           2612         135.00       585.02
 1062.49        2983.25           2616         112.00       484.75
 1062.52        2983.50           2619         124.00       537.06
 1062.55        2983.75           2623         137.00       593.73
 1062.58        2984.00           2626         113.00       489.11
HS scan finished at 17:42:48
end
