************************************************************
  HS Scan of (1) Internal mercury lamp
************************************************************
Integration time is 0.2294 seconds per sample
dh081118Reading 51.44 .94 2.58pr1000
************************************************************
Dead Time -------------------------  3.4E-08 
Number of Cycles Used -------------  4 
Starting Wavelength (Angstroms) ---  2950 
Final Wavelength (Angstoms) -------  2984 
Wavelength Increment (Angstroms) --  .25 
Filter Wheel #1 Position ---------- (1) Ground quartz diffuser (ND=2.32)
Filter Wheel #2 Position ---------- (1) Neutral Density 0.494



************************************************************
HS scan start time = 04:25:18
Dark Count =  .2 


Time (GMT)  Wavelength (Ang)  Step Number  Raw Counts  Counts/Second

  266.20        2950.00           2144        1631.00      7110.70
  266.39        2950.25           2147        1610.00      7019.11
  266.42        2950.50           2151        1606.00      7001.67
  266.45        2950.75           2155        1595.00      6953.69
  266.48        2951.00           2158        1611.00      7023.47
  266.51        2951.25           2162        1622.00      7071.45
  266.54        2951.50           2165        1637.00      7136.87
  266.57        2951.75           2169        1594.00      6949.33
  266.60        2952.00           2172        1658.00      7228.46
  266.64        2952.25           2176        1655.00      7215.37
  266.67        2952.50           2179        1639.00      7145.59
  266.70        2952.75           2183        1679.00      7320.04
  266.73        2953.00           2186        1654.00      7211.01
  266.76        2953.25           2190        1645.00      7171.76
  266.79        2953.50           2193        1661.00      7241.54
  266.82        2953.75           2197        1678.00      7315.68
  266.85        2954.00           2200        1666.00      7263.35
  266.88        2954.25           2204        1662.00      7245.90
  266.91        2954.50           2208        1665.00      7258.98
  266.94        2954.75           2211        1665.00      7258.98
  266.97        2955.00           2215        1696.00      7394.19
  267.00        2955.25           2218        1690.00      7368.02
  267.03        2955.50           2222        1704.00      7429.08
  267.06        2955.75           2225        1713.00      7468.33
  267.09        2956.00           2229        1789.00      7799.80
  267.12        2956.25           2232        1725.00      7520.67
  267.15        2956.50           2236        1740.00      7586.09
  267.19        2956.75           2239        1779.00      7756.19
  267.22        2957.00           2243        1756.00      7655.87
  267.25        2957.25           2246        1765.00      7695.13
  267.28        2957.50           2250        1743.00      7599.17
  267.31        2957.75           2254        1854.00      8083.30
  267.34        2958.00           2257        1814.00      7908.84
  267.37        2958.25           2261        1813.00      7904.48
  267.40        2958.50           2264        1844.00      8039.69
  267.43        2958.75           2268        1872.00      8161.81
  267.46        2959.00           2271        1893.00      8253.41
  267.49        2959.25           2275        1909.00      8323.19
  267.52        2959.50           2278        1903.00      8297.02
  267.55        2959.75           2282        1947.00      8488.94
  267.58        2960.00           2285        1943.00      8471.49
  267.61        2960.25           2289        1946.00      8484.58
  267.64        2960.50           2293        1985.00      8654.68
  267.68        2960.75           2296        2046.00      8920.75
  267.71        2961.00           2300        2114.00      9217.36
  267.74        2961.25           2303        2452.00     10691.77
  267.77        2961.50           2307        5889.00     25692.88
  267.80        2961.75           2310       14066.00     61443.84
  267.83        2962.00           2314       30900.00    135319.50
  267.86        2962.25           2317       44699.00    196154.80
  267.89        2962.50           2321       61730.00    271588.80
  267.92        2962.75           2324       74926.00    330305.10
  267.95        2963.00           2328       96247.00    425675.30
  267.98        2963.25           2331      113723.00    504313.80
  268.01        2963.50           2335      136627.00    608023.80
  268.04        2963.75           2339      157204.00    701831.60
  268.07        2964.00           2342      172538.00    772133.10
  268.10        2964.25           2346      192636.00    864794.90
  268.13        2964.50           2349      209722.00    944038.80
  268.16        2964.75           2353      232587.00   1050769.00
  268.19        2965.00           2356      248789.00   1126878.00
  268.23        2965.25           2360      267138.00   1213561.00
  268.26        2965.50           2363      281738.00   1282907.00
  268.29        2965.75           2367      300950.00   1374672.00
  268.32        2966.00           2370      315361.00   1443893.00
  268.35        2966.25           2374      331587.00   1522233.00
  268.38        2966.50           2378      343966.00   1582290.00
  268.41        2966.75           2381      349154.00   1607534.00
  268.44        2967.00           2385      350033.00   1611816.00
  268.47        2967.25           2388      350509.00   1614135.00
  268.50        2967.50           2392      350922.00   1616148.00
  268.53        2967.75           2395      349494.00   1609190.00
  268.56        2968.00           2399      345823.00   1591321.00
  268.59        2968.25           2402      335309.00   1540264.00
  268.62        2968.50           2406      318000.00   1456605.00
  268.65        2968.75           2409      303630.00   1387520.00
  268.68        2969.00           2413      285923.00   1302846.00
  268.71        2969.25           2417      267675.00   1216105.00
  268.75        2969.50           2420      254010.00   1151490.00
  268.78        2969.75           2424      235695.00   1065338.00
  268.81        2970.00           2427      219417.00    989197.40
  268.84        2970.25           2431      195617.00    878589.50
  268.87        2970.50           2434      179663.00    804915.20
  268.90        2970.75           2438      159636.00    712958.90
  268.93        2971.00           2441      144744.00    644955.80
  268.96        2971.25           2445      124457.00    552825.70
  268.99        2971.50           2449      105002.00    465018.10
  269.02        2971.75           2452       90515.00    399974.50
  269.05        2972.00           2456       71018.00    312891.60
  269.08        2972.25           2459       54204.00    238206.50
  269.11        2972.50           2463       31760.00    139103.60
  269.14        2972.75           2466       18520.00     80954.00
  269.17        2973.00           2470        7027.00     30663.16
  269.20        2973.25           2473        3590.00     15656.98
  269.23        2973.50           2477        2321.00     10120.31
  269.27        2973.75           2481        2082.00      9077.78
  269.30        2974.00           2484        2011.00      8768.09
  269.33        2974.25           2488        1984.00      8650.32
  269.36        2974.50           2491        1985.00      8654.68
  269.39        2974.75           2495        1955.00      8523.83
  269.42        2975.00           2498        1882.00      8205.43
  269.45        2975.25           2502        1912.00      8336.28
  269.48        2975.50           2505        1813.00      7904.48
  269.51        2975.75           2509        1814.00      7908.84
  269.54        2976.00           2512        1801.00      7852.14
  269.57        2976.25           2516        1775.00      7738.74
  269.60        2976.50           2520        1740.00      7586.09
  269.63        2976.75           2523        1771.00      7721.29
  269.66        2977.00           2527        1745.00      7607.90
  269.69        2977.25           2530        1716.00      7481.42
  269.72        2977.50           2534        1691.00      7372.38
  269.75        2977.75           2537        1723.00      7511.95
  269.79        2978.00           2541        1680.00      7324.40
  269.82        2978.25           2544        1651.00      7197.93
  269.85        2978.50           2548        1661.00      7241.54
  269.88        2978.75           2552        1616.00      7045.28
  269.91        2979.00           2555        1625.00      7084.53
  269.94        2979.25           2559        1627.00      7093.25
  269.97        2979.50           2562        1667.00      7267.71
  270.00        2979.75           2566        1600.00      6975.50
  270.03        2980.00           2569        1613.00      7032.20
  270.06        2980.25           2573        1603.00      6988.58
  270.09        2980.50           2577        1584.00      6905.72
  270.12        2980.75           2580        1567.00      6831.58
  270.15        2981.00           2584        1596.00      6958.05
  270.18        2981.25           2587        1542.00      6722.55
  270.21        2981.50           2591        1514.00      6600.44
  270.24        2981.75           2594        1522.00      6635.32
  270.27        2982.00           2598        1573.00      6857.75
  270.31        2982.25           2601        1562.00      6809.77
  270.34        2982.50           2605        1530.00      6670.21
  270.37        2982.75           2609        1487.00      6482.68
  270.40        2983.00           2612        1525.00      6648.41
  270.43        2983.25           2616        1511.00      6587.35
  270.46        2983.50           2619        1520.00      6626.60
  270.49        2983.75           2623        1524.00      6644.05
  270.52        2984.00           2626        1508.00      6574.27
HS scan finished at 04:30:44
end
************************************************************
  HS Scan of (1) Internal mercury lamp
************************************************************
Integration time is 0.2294 seconds per sample
dh081118Reading 51.44 .94 3.15pr1000
************************************************************
Dead Time -------------------------  3.4E-08 
Number of Cycles Used -------------  4 
Starting Wavelength (Angstroms) ---  2950 
Final Wavelength (Angstoms) -------  2984 
Wavelength Increment (Angstroms) --  .25 
Filter Wheel #1 Position ---------- (1) Ground quartz diffuser (ND=2.32)
Filter Wheel #2 Position ---------- (1) Neutral Density 0.494



************************************************************
HS scan start time = 17:07:28
Dark Count =  1.1 


Time (GMT)  Wavelength (Ang)  Step Number  Raw Counts  Counts/Second

 1028.37        2950.00           2144         981.00      4272.20
 1028.56        2950.25           2147         987.00      4298.36
 1028.60        2950.50           2151        1024.00      4459.70
 1028.63        2950.75           2155        1018.00      4433.54
 1028.66        2951.00           2158        1017.00      4429.18
 1028.69        2951.25           2162        1003.00      4368.13
 1028.72        2951.50           2165        1025.00      4464.06
 1028.75        2951.75           2169        1037.00      4516.39
 1028.78        2952.00           2172        1006.00      4381.21
 1028.81        2952.25           2176        1012.00      4407.37
 1028.84        2952.50           2179        1003.00      4368.13
 1028.87        2952.75           2183        1027.00      4472.78
 1028.90        2953.00           2186        1038.00      4520.75
 1028.93        2953.25           2190        1008.00      4389.93
 1028.96        2953.50           2193        1037.00      4516.39
 1028.99        2953.75           2197        1009.00      4394.29
 1029.02        2954.00           2200        1028.00      4477.14
 1029.05        2954.25           2204        1027.00      4472.78
 1029.08        2954.50           2208        1043.00      4542.55
 1029.12        2954.75           2211        1056.00      4599.24
 1029.15        2955.00           2215        1042.00      4538.19
 1029.18        2955.25           2218        1047.00      4559.99
 1029.21        2955.50           2222        1050.00      4573.07
 1029.24        2955.75           2225        1071.00      4664.65
 1029.27        2956.00           2229        1081.00      4708.25
 1029.30        2956.25           2232        1077.00      4690.81
 1029.33        2956.50           2236        1075.00      4682.09
 1029.36        2956.75           2239        1108.00      4825.99
 1029.39        2957.00           2243        1104.00      4808.55
 1029.42        2957.25           2246        1129.00      4917.56
 1029.45        2957.50           2250        1109.00      4830.35
 1029.48        2957.75           2254        1155.00      5030.94
 1029.51        2958.00           2257        1140.00      4965.53
 1029.54        2958.25           2261        1139.00      4961.17
 1029.57        2958.50           2264        1194.00      5201.01
 1029.60        2958.75           2268        1195.00      5205.37
 1029.64        2959.00           2271        1174.00      5113.79
 1029.67        2959.25           2275        1169.00      5091.99
 1029.70        2959.50           2278        1205.00      5248.98
 1029.73        2959.75           2282        1229.00      5353.63
 1029.76        2960.00           2285        1256.00      5471.38
 1029.79        2960.25           2289        1243.00      5414.68
 1029.82        2960.50           2293        1275.00      5554.23
 1029.85        2960.75           2296        1340.00      5837.69
 1029.88        2961.00           2300        1378.00      6003.41
 1029.91        2961.25           2303        1501.00      6539.82
 1029.94        2961.50           2307        3304.00     14405.05
 1029.97        2961.75           2310        9264.00     40434.36
 1030.00        2962.00           2314       21118.00     92342.22
 1030.03        2962.25           2317       30699.00    134431.30
 1030.06        2962.50           2321       44101.00    193509.20
 1030.09        2962.75           2324       55412.00    243555.60
 1030.12        2963.00           2328       72408.00    319078.90
 1030.16        2963.25           2331       84557.00    373304.10
 1030.19        2963.50           2335      100650.00    445443.90
 1030.22        2963.75           2339      115950.00    514361.40
 1030.25        2964.00           2342      127457.00    566409.00
 1030.28        2964.25           2346      143199.00    637914.90
 1030.31        2964.50           2349      155904.00    695883.00
 1030.34        2964.75           2353      170400.00    762306.50
 1030.37        2965.00           2356      181857.00    815020.70
 1030.40        2965.25           2360      197770.00    888556.50
 1030.43        2965.50           2363      209522.00    943104.60
 1030.46        2965.75           2367      223512.00   1008310.00
 1030.49        2966.00           2370      233346.00   1054321.00
 1030.52        2966.25           2374      246767.00   1117354.00
 1030.55        2966.50           2378      258008.00   1170360.00
 1030.58        2966.75           2381      261116.00   1185050.00
 1030.61        2967.00           2385      262400.00   1191123.00
 1030.64        2967.25           2388      263215.00   1194980.00
 1030.68        2967.50           2392      263172.00   1194776.00
 1030.71        2967.75           2395      263229.00   1195046.00
 1030.74        2968.00           2399      259437.00   1177112.00
 1030.77        2968.25           2402      252445.00   1144104.00
 1030.80        2968.50           2406      239832.00   1084749.00
 1030.83        2968.75           2409      229935.00   1038345.00
 1030.86        2969.00           2413      217791.00    981609.60
 1030.89        2969.25           2417      203807.00    916552.10
 1030.92        2969.50           2420      192457.00    863962.90
 1030.95        2969.75           2424      176859.00    792001.10
 1030.98        2970.00           2427      165462.00    739645.50
 1031.01        2970.25           2431      148212.00    660759.70
 1031.04        2970.50           2434      136003.00    605184.50
 1031.07        2970.75           2438      119769.00    531614.60
 1031.10        2971.00           2441      108597.00    481199.80
 1031.13        2971.25           2445       93344.00    412649.30
 1031.16        2971.50           2449       78608.00    346726.50
 1031.19        2971.75           2452       66923.00    294663.20
 1031.23        2972.00           2456       51067.00    224310.60
 1031.26        2972.25           2459       39341.00    172499.10
 1031.29        2972.50           2463       24894.00    108915.70
 1031.32        2972.75           2466       14711.00     64263.63
 1031.35        2973.00           2470        5117.00     22318.15
 1031.38        2973.25           2473        2393.00     10430.46
 1031.41        2973.50           2477        1510.00      6579.07
 1031.44        2973.75           2481        1375.00      5990.32
 1031.47        2974.00           2484        1324.00      5767.91
 1031.50        2974.25           2488        1331.00      5798.44
 1031.53        2974.50           2491        1262.00      5497.54
 1031.56        2974.75           2495        1254.00      5462.65
 1031.59        2975.00           2498        1244.00      5419.05
 1031.62        2975.25           2502        1235.00      5379.80
 1031.65        2975.50           2505        1199.00      5222.81
 1031.68        2975.75           2509        1187.00      5170.48
 1031.72        2976.00           2512        1199.00      5222.81
 1031.75        2976.25           2516        1173.00      5109.43
 1031.78        2976.50           2520        1121.00      4882.68
 1031.81        2976.75           2523        1130.00      4921.92
 1031.84        2977.00           2527        1116.00      4860.87
 1031.87        2977.25           2530        1076.00      4686.45
 1031.90        2977.50           2534        1099.00      4786.74
 1031.93        2977.75           2537        1074.00      4677.73
 1031.96        2978.00           2541        1071.00      4664.65
 1031.99        2978.25           2544        1066.00      4642.84
 1032.02        2978.50           2548        1068.00      4651.56
 1032.05        2978.75           2552        1062.00      4625.40
 1032.08        2979.00           2555        1042.00      4538.19
 1032.11        2979.25           2559        1046.00      4555.63
 1032.14        2979.50           2562        1009.00      4394.29
 1032.17        2979.75           2566        1064.00      4634.12
 1032.20        2980.00           2569        1018.00      4433.54
 1032.24        2980.25           2573        1020.00      4442.26
 1032.27        2980.50           2577        1012.00      4407.37
 1032.30        2980.75           2580        1002.00      4363.77
 1032.33        2981.00           2584        1016.00      4424.82
 1032.36        2981.25           2587         999.00      4350.69
 1032.39        2981.50           2591        1023.00      4455.34
 1032.42        2981.75           2594        1007.00      4385.57
 1032.45        2982.00           2598         990.00      4311.44
 1032.48        2982.25           2601         956.00      4163.19
 1032.51        2982.50           2605         943.00      4106.50
 1032.54        2982.75           2609        1001.00      4359.41
 1032.57        2983.00           2612         967.00      4211.15
 1032.60        2983.25           2616         942.00      4102.14
 1032.63        2983.50           2619         952.00      4145.75
 1032.66        2983.75           2623         948.00      4128.30
 1032.69        2984.00           2626         938.00      4084.70
HS scan finished at 17:12:55
end
