************************************************************
  HS Scan of (1) Internal mercury lamp
************************************************************
Integration time is 0.2294 seconds per sample
dh101117Reading 51.44 .94 2.94pr1000
************************************************************
Dead Time -------------------------  3.4E-08 
Number of Cycles Used -------------  4 
Starting Wavelength (Angstroms) ---  2950 
Final Wavelength (Angstoms) -------  2984 
Wavelength Increment (Angstroms) --  .25 
Filter Wheel #1 Position ---------- (1) Ground quartz diffuser (ND=2.32)
Filter Wheel #2 Position ---------- (1) Neutral Density 0.494



************************************************************
HS scan start time = 04:28:48
Dark Count =  .6 


Time (GMT)  Wavelength (Ang)  Step Number  Raw Counts  Counts/Second

  269.70        2950.00           2144         121.00       524.86
  269.90        2950.25           2147         138.00       598.97
  269.93        2950.50           2151         119.00       516.14
  269.96        2950.75           2155         157.00       681.79
  269.99        2951.00           2158         126.00       546.65
  270.02        2951.25           2162         142.00       616.40
  270.05        2951.50           2165         131.00       568.45
  270.08        2951.75           2169         151.00       655.64
  270.11        2952.00           2172         131.00       568.45
  270.14        2952.25           2176         153.00       664.36
  270.17        2952.50           2179         131.00       568.45
  270.20        2952.75           2183         147.00       638.20
  270.23        2953.00           2186         132.00       572.81
  270.26        2953.25           2190         160.00       694.87
  270.29        2953.50           2193         123.00       533.58
  270.33        2953.75           2197         126.00       546.65
  270.36        2954.00           2200         161.00       699.23
  270.39        2954.25           2204         176.00       764.62
  270.42        2954.50           2208         144.00       625.12
  270.45        2954.75           2211         141.00       612.04
  270.48        2955.00           2215         149.00       646.92
  270.51        2955.25           2218         140.00       607.68
  270.54        2955.50           2222         152.00       660.00
  270.57        2955.75           2225         149.00       646.92
  270.60        2956.00           2229         132.00       572.81
  270.63        2956.25           2232         140.00       607.68
  270.66        2956.50           2236         149.00       646.92
  270.69        2956.75           2239         143.00       620.76
  270.72        2957.00           2243         158.00       686.15
  270.75        2957.25           2246         155.00       673.08
  270.78        2957.50           2250         159.00       690.51
  270.82        2957.75           2254         173.00       751.54
  270.85        2958.00           2257         161.00       699.23
  270.88        2958.25           2261         165.00       716.67
  270.91        2958.50           2264         169.00       734.11
  270.94        2958.75           2268         175.00       760.26
  270.97        2959.00           2271         155.00       673.08
  271.00        2959.25           2275         176.00       764.62
  271.03        2959.50           2278         167.00       725.39
  271.06        2959.75           2282         180.00       782.06
  271.09        2960.00           2285         193.00       838.73
  271.12        2960.25           2289         182.00       790.78
  271.15        2960.50           2293         202.00       877.97
  271.18        2960.75           2296         192.00       834.37
  271.21        2961.00           2300         230.00      1000.03
  271.24        2961.25           2303         465.00      2024.55
  271.27        2961.50           2307        1750.00      7627.96
  271.30        2961.75           2310        3484.00     15192.68
  271.33        2962.00           2314        6356.00     27730.58
  271.37        2962.25           2317        8736.00     38128.74
  271.40        2962.50           2321       11868.00     51823.58
  271.43        2962.75           2324       14174.00     61914.87
  271.46        2963.00           2328       17636.00     77077.93
  271.49        2963.25           2331       19910.00     87046.25
  271.52        2963.50           2335       22593.00     98816.19
  271.55        2963.75           2339       26012.00    113828.50
  271.58        2964.00           2342       28685.00    125576.00
  271.61        2964.25           2346       32102.00    140607.00
  271.64        2964.50           2349       34337.00    150446.80
  271.67        2964.75           2353       37315.00    163568.00
  271.70        2965.00           2356       39665.00    173930.50
  271.73        2965.25           2360       42692.00    187289.10
  271.76        2965.50           2363       45213.00    198423.90
  271.79        2965.75           2367       48200.00    211628.00
  271.82        2966.00           2370       50190.00    220431.40
  271.85        2966.25           2374       53171.00    233628.70
  271.89        2966.50           2378       54347.00    238838.40
  271.92        2966.75           2381       55074.00    242059.80
  271.95        2967.00           2385       54995.00    241709.70
  271.98        2967.25           2388       55076.00    242068.70
  272.01        2967.50           2392       54502.00    239525.20
  272.04        2967.75           2395       54514.00    239578.30
  272.07        2968.00           2399       53240.00    233934.40
  272.10        2968.25           2402       50575.00    222135.20
  272.13        2968.50           2406       48433.00    212658.50
  272.16        2968.75           2409       46363.00    203506.10
  272.19        2969.00           2413       43438.00    190583.20
  272.22        2969.25           2417       39903.00    174980.40
  272.25        2969.50           2420       37723.00    165366.60
  272.28        2969.75           2424       34381.00    150640.60
  272.31        2970.00           2427       32082.00    140518.90
  272.34        2970.25           2431       28668.00    125501.30
  272.37        2970.50           2434       26229.00    114781.90
  272.41        2970.75           2438       23328.00    102042.20
  272.44        2971.00           2441       20669.00     90374.92
  272.47        2971.25           2445       17248.00     75377.77
  272.50        2971.50           2449       13762.00     60111.40
  272.53        2971.75           2452       11188.00     48849.16
  272.56        2972.00           2456        8064.00     35192.04
  272.59        2972.25           2459        5919.00     25822.14
  272.62        2972.50           2463        3272.00     14267.60
  272.65        2972.75           2466        1769.00      7710.83
  272.68        2973.00           2470         519.00      2259.98
  272.71        2973.25           2473         262.00      1139.54
  272.74        2973.50           2477         202.00       877.97
  272.77        2973.75           2481         208.00       904.13
  272.80        2974.00           2484         200.00       869.25
  272.83        2974.25           2488         181.00       786.42
  272.86        2974.50           2491         192.00       834.37
  272.89        2974.75           2495         176.00       764.62
  272.93        2975.00           2498         177.00       768.98
  272.96        2975.25           2502         181.00       786.42
  272.99        2975.50           2505         171.00       742.83
  273.02        2975.75           2509         170.00       738.47
  273.05        2976.00           2512         162.00       703.59
  273.08        2976.25           2516         168.00       729.75
  273.11        2976.50           2520         153.00       664.36
  273.14        2976.75           2523         163.00       707.95
  273.17        2977.00           2527         152.00       660.00
  273.20        2977.25           2530         156.00       677.43
  273.23        2977.50           2534         165.00       716.67
  273.26        2977.75           2537         168.00       729.75
  273.29        2978.00           2541         146.00       633.84
  273.32        2978.25           2544         154.00       668.72
  273.35        2978.50           2548         153.00       664.36
  273.38        2978.75           2552         155.00       673.08
  273.41        2979.00           2555         164.00       712.31
  273.45        2979.25           2559         162.00       703.59
  273.48        2979.50           2562         152.00       660.00
  273.51        2979.75           2566         127.00       551.01
  273.54        2980.00           2569         150.00       651.28
  273.57        2980.25           2573         146.00       633.84
  273.60        2980.50           2577         158.00       686.15
  273.63        2980.75           2580         132.00       572.81
  273.66        2981.00           2584         130.00       564.09
  273.69        2981.25           2587         133.00       577.17
  273.72        2981.50           2591         137.00       594.61
  273.75        2981.75           2594         140.00       607.68
  273.78        2982.00           2598         160.00       694.87
  273.81        2982.25           2601         163.00       707.95
  273.84        2982.50           2605         134.00       581.53
  273.87        2982.75           2609         124.00       537.93
  273.90        2983.00           2612         139.00       603.33
  273.93        2983.25           2616         126.00       546.65
  273.96        2983.50           2619         120.00       520.50
  274.00        2983.75           2623         139.00       603.33
  274.03        2984.00           2626         151.00       655.64
HS scan finished at 04:34:15
end
************************************************************
  HS Scan of (1) Internal mercury lamp
************************************************************
Integration time is 0.2294 seconds per sample
dh101117Reading 51.44 .94 3.05pr1000
************************************************************
Dead Time -------------------------  3.4E-08 
Number of Cycles Used -------------  4 
Starting Wavelength (Angstroms) ---  2950 
Final Wavelength (Angstoms) -------  2984 
Wavelength Increment (Angstroms) --  .25 
Filter Wheel #1 Position ---------- (1) Ground quartz diffuser (ND=2.32)
Filter Wheel #2 Position ---------- (1) Neutral Density 0.494



************************************************************
HS scan start time = 17:07:28
Dark Count =  .8 


Time (GMT)  Wavelength (Ang)  Step Number  Raw Counts  Counts/Second

 1028.37        2950.00           2144         105.00       454.24
 1028.56        2950.25           2147         101.00       436.80
 1028.59        2950.50           2151         109.00       471.67
 1028.62        2950.75           2155         101.00       436.80
 1028.66        2951.00           2158         124.00       537.06
 1028.69        2951.25           2162          97.00       419.36
 1028.72        2951.50           2165         123.00       532.70
 1028.75        2951.75           2169         114.00       493.47
 1028.78        2952.00           2172         103.00       445.52
 1028.81        2952.25           2176         105.00       454.24
 1028.84        2952.50           2179         105.00       454.24
 1028.87        2952.75           2183         110.00       476.03
 1028.90        2953.00           2186         105.00       454.24
 1028.93        2953.25           2190         102.00       441.16
 1028.96        2953.50           2193         115.00       497.83
 1028.99        2953.75           2197         106.00       458.59
 1029.02        2954.00           2200         109.00       471.67
 1029.05        2954.25           2204         112.00       484.75
 1029.08        2954.50           2208         115.00       497.83
 1029.11        2954.75           2211         110.00       476.03
 1029.14        2955.00           2215         130.00       563.22
 1029.18        2955.25           2218         137.00       593.73
 1029.21        2955.50           2222         115.00       497.83
 1029.24        2955.75           2225         109.00       471.67
 1029.27        2956.00           2229         130.00       563.22
 1029.30        2956.25           2232         134.00       580.66
 1029.33        2956.50           2236         123.00       532.70
 1029.36        2956.75           2239         147.00       637.33
 1029.39        2957.00           2243         127.00       550.14
 1029.42        2957.25           2246         115.00       497.83
 1029.45        2957.50           2250         147.00       637.33
 1029.48        2957.75           2254         171.00       741.95
 1029.51        2958.00           2257         115.00       497.83
 1029.54        2958.25           2261         144.00       624.25
 1029.57        2958.50           2264         123.00       532.70
 1029.60        2958.75           2268         145.00       628.61
 1029.63        2959.00           2271         156.00       676.56
 1029.66        2959.25           2275         143.00       619.89
 1029.70        2959.50           2278         153.00       663.48
 1029.73        2959.75           2282         143.00       619.89
 1029.76        2960.00           2285         148.00       641.69
 1029.79        2960.25           2289         152.00       659.13
 1029.82        2960.50           2293         164.00       711.44
 1029.85        2960.75           2296         173.00       750.67
 1029.88        2961.00           2300         192.00       833.50
 1029.91        2961.25           2303         389.00      1692.34
 1029.94        2961.50           2307        1364.00      5943.66
 1029.97        2961.75           2310        2576.00     11230.09
 1030.00        2962.00           2314        4826.00     21049.06
 1030.03        2962.25           2317        6473.00     28240.70
 1030.06        2962.50           2321        8864.00     38687.30
 1030.09        2962.75           2324       10479.00     45747.65
 1030.12        2963.00           2328       12771.00     55773.49
 1030.15        2963.25           2331       14634.00     63927.82
 1030.18        2963.50           2335       16974.00     74176.38
 1030.22        2963.75           2339       19553.00     85479.97
 1030.25        2964.00           2342       21719.00     94980.16
 1030.28        2964.25           2346       23950.00    104771.90
 1030.31        2964.50           2349       25865.00    113181.90
 1030.34        2964.75           2353       28250.00    123662.70
 1030.37        2965.00           2356       29613.00    129655.70
 1030.40        2965.25           2360       32264.00    141319.10
 1030.43        2965.50           2363       33694.00    147614.30
 1030.46        2965.75           2367       35658.00    156264.80
 1030.49        2966.00           2370       37714.00    165326.00
 1030.52        2966.25           2374       39321.00    172412.30
 1030.55        2966.50           2378       39942.00    175151.50
 1030.58        2966.75           2381       40191.00    176250.10
 1030.62        2967.00           2385       39906.00    174992.80
 1030.66        2967.25           2388       40239.00    176461.80
 1030.69        2967.50           2392       40156.00    176095.60
 1030.72        2967.75           2395       39255.00    172121.20
 1030.75        2968.00           2399       39045.00    171195.00
 1030.78        2968.25           2402       37324.00    163606.80
 1030.81        2968.50           2406       35031.00    153502.60
 1030.84        2968.75           2409       33727.00    147759.60
 1030.87        2969.00           2413       31102.00    136205.60
 1030.90        2969.25           2417       28398.00    124313.30
 1030.93        2969.50           2420       26904.00    117746.80
 1030.96        2969.75           2424       24677.00    107964.00
 1030.99        2970.00           2427       22797.00     99710.61
 1031.03        2970.25           2431       20506.00     89659.12
 1031.06        2970.50           2434       18785.00     82112.97
 1031.09        2970.75           2438       16343.00     71412.06
 1031.12        2971.00           2441       14587.00     63722.05
 1031.15        2971.25           2445       12050.00     52618.91
 1031.18        2971.50           2449        9672.00     42219.24
 1031.21        2971.75           2452        7819.00     34120.64
 1031.24        2972.00           2456        5469.00     23856.31
 1031.27        2972.25           2459        4029.00     17570.22
 1031.30        2972.50           2463        2209.00      9629.13
 1031.33        2972.75           2466        1004.00      4373.80
 1031.36        2973.00           2470         305.00      1326.13
 1031.39        2973.25           2473         187.00       811.71
 1031.42        2973.50           2477         159.00       689.64
 1031.45        2973.75           2481         155.00       672.20
 1031.48        2974.00           2484         144.00       624.25
 1031.51        2974.25           2488         136.00       589.38
 1031.55        2974.50           2491         130.00       563.22
 1031.58        2974.75           2495         154.00       667.84
 1031.61        2975.00           2498         140.00       606.81
 1031.64        2975.25           2502         152.00       659.13
 1031.67        2975.50           2505         157.00       680.92
 1031.70        2975.75           2509         126.00       545.78
 1031.73        2976.00           2512         133.00       576.30
 1031.76        2976.25           2516         157.00       680.92
 1031.79        2976.50           2520         144.00       624.25
 1031.82        2976.75           2523         132.00       571.94
 1031.85        2977.00           2527         140.00       606.81
 1031.88        2977.25           2530         168.00       728.88
 1031.91        2977.50           2534         144.00       624.25
 1031.94        2977.75           2537         142.00       615.53
 1031.97        2978.00           2541         110.00       476.03
 1032.00        2978.25           2544         124.00       537.06
 1032.03        2978.50           2548         129.00       558.86
 1032.07        2978.75           2552         136.00       589.38
 1032.10        2979.00           2555         122.00       528.34
 1032.13        2979.25           2559         129.00       558.86
 1032.16        2979.50           2562         112.00       484.75
 1032.19        2979.75           2566         106.00       458.59
 1032.22        2980.00           2569         100.00       432.44
 1032.25        2980.25           2573         131.00       567.58
 1032.28        2980.50           2577          99.00       428.08
 1032.31        2980.75           2580         113.00       489.11
 1032.34        2981.00           2584         111.00       480.39
 1032.37        2981.25           2587         122.00       528.34
 1032.40        2981.50           2591         121.00       523.98
 1032.43        2981.75           2594         102.00       441.16
 1032.46        2982.00           2598         103.00       445.52
 1032.49        2982.25           2601         101.00       436.80
 1032.52        2982.50           2605         105.00       454.24
 1032.55        2982.75           2609         120.00       519.63
 1032.59        2983.00           2612          90.00       388.85
 1032.62        2983.25           2616          93.00       401.92
 1032.65        2983.50           2619         112.00       484.75
 1032.68        2983.75           2623          93.00       401.92
 1032.71        2984.00           2626         101.00       436.80
HS scan finished at 17:12:56
end
