************************************************************
  HS Scan of (1) Internal mercury lamp
************************************************************
Integration time is 0.2294 seconds per sample
dh081117Reading 51.44 .94 2.72pr1000
************************************************************
Dead Time -------------------------  3.4E-08 
Number of Cycles Used -------------  4 
Starting Wavelength (Angstroms) ---  2950 
Final Wavelength (Angstoms) -------  2984 
Wavelength Increment (Angstroms) --  .25 
Filter Wheel #1 Position ---------- (1) Ground quartz diffuser (ND=2.32)
Filter Wheel #2 Position ---------- (1) Neutral Density 0.494



************************************************************
HS scan start time = 04:25:42
Dark Count =  .4 


Time (GMT)  Wavelength (Ang)  Step Number  Raw Counts  Counts/Second

  266.60        2950.00           2144         147.00       639.07
  266.79        2950.25           2147         160.00       695.74
  266.82        2950.50           2151         139.00       604.20
  266.85        2950.75           2155         154.00       669.59
  266.88        2951.00           2158         149.00       647.79
  266.91        2951.25           2162         150.00       652.15
  266.95        2951.50           2165         144.00       625.99
  266.98        2951.75           2169         167.00       726.26
  267.01        2952.00           2172         163.00       708.82
  267.04        2952.25           2176         151.00       656.51
  267.07        2952.50           2179         160.00       695.74
  267.10        2952.75           2183         150.00       652.15
  267.13        2953.00           2186         164.00       713.18
  267.16        2953.25           2190         152.00       660.87
  267.19        2953.50           2193         166.00       721.90
  267.22        2953.75           2197         160.00       695.74
  267.25        2954.00           2200         144.00       625.99
  267.28        2954.25           2204         165.00       717.54
  267.31        2954.50           2208         172.00       748.06
  267.34        2954.75           2211         166.00       721.90
  267.37        2955.00           2215         165.00       717.54
  267.40        2955.25           2218         171.00       743.70
  267.43        2955.50           2222         162.00       704.46
  267.47        2955.75           2225         168.00       730.62
  267.50        2956.00           2229         163.00       708.82
  267.53        2956.25           2232         167.00       726.26
  267.56        2956.50           2236         179.00       778.57
  267.59        2956.75           2239         169.00       734.98
  267.62        2957.00           2243         182.00       791.65
  267.65        2957.25           2246         180.00       782.93
  267.68        2957.50           2250         196.00       852.68
  267.71        2957.75           2254         183.00       796.01
  267.74        2958.00           2257         193.00       839.61
  267.77        2958.25           2261         191.00       830.89
  267.80        2958.50           2264         176.00       765.50
  267.83        2958.75           2268         189.00       822.17
  267.86        2959.00           2271         211.00       918.08
  267.89        2959.25           2275         190.00       826.53
  267.92        2959.50           2278         205.00       891.92
  267.95        2959.75           2282         209.00       909.36
  267.99        2960.00           2285         206.00       896.28
  268.02        2960.25           2289         208.00       905.00
  268.05        2960.50           2293         218.00       948.59
  268.08        2960.75           2296         224.00       974.75
  268.11        2961.00           2300         266.00      1157.85
  268.14        2961.25           2303         415.00      1807.43
  268.17        2961.50           2307        1454.00      6337.90
  268.20        2961.75           2310        2976.00     12976.96
  268.23        2962.00           2314        5890.00     25696.37
  268.26        2962.25           2317        8358.00     36477.65
  268.29        2962.50           2321       12044.00     52594.40
  268.32        2962.75           2324       14542.00     63526.78
  268.35        2963.00           2328       18174.00     79436.58
  268.38        2963.25           2331       20537.00     89796.84
  268.41        2963.50           2335       24012.00    105045.80
  268.44        2963.75           2339       27533.00    120512.80
  268.47        2964.00           2342       30196.00    132221.70
  268.51        2964.25           2346       33506.00    146788.30
  268.54        2964.50           2349       36637.00    160580.60
  268.57        2964.75           2353       40447.00    177381.30
  268.60        2965.00           2356       42970.00    188517.50
  268.63        2965.25           2360       46335.00    203383.20
  268.66        2965.50           2363       48681.00    213756.30
  268.69        2965.75           2367       52145.00    229086.00
  268.72        2966.00           2370       54526.00    239632.40
  268.75        2966.25           2374       58147.00    255685.70
  268.78        2966.50           2378       59467.00    261542.10
  268.81        2966.75           2381       60374.00    265567.60
  268.84        2967.00           2385       60536.00    266286.70
  268.87        2967.25           2388       60191.00    264755.30
  268.90        2967.50           2392       60380.00    265594.20
  268.93        2967.75           2395       59730.00    262709.30
  268.96        2968.00           2399       58111.00    255526.00
  268.99        2968.25           2402       55625.00    244502.80
  269.03        2968.50           2406       53003.00    232885.60
  269.06        2968.75           2409       50483.00    221729.00
  269.09        2969.00           2413       46954.00    206119.50
  269.12        2969.25           2417       43773.00    192063.60
  269.15        2969.50           2420       41011.00    179870.00
  269.18        2969.75           2424       37294.00    163476.30
  269.21        2970.00           2427       34565.00    151451.80
  269.24        2970.25           2431       30568.00    133858.10
  269.27        2970.50           2434       27822.00    121783.10
  269.30        2970.75           2438       24465.00    107034.80
  269.33        2971.00           2441       22035.00     96368.42
  269.36        2971.25           2445       18681.00     81658.83
  269.39        2971.50           2449       14816.00     64726.42
  269.42        2971.75           2452       12229.00     53403.77
  269.45        2972.00           2456        8745.00     38168.94
  269.48        2972.25           2459        6341.00     27665.94
  269.51        2972.50           2463        3651.00     15922.31
  269.54        2972.75           2466        1914.00      8344.13
  269.58        2973.00           2470         495.00      2156.22
  269.62        2973.25           2473         286.00      1245.04
  269.65        2973.50           2477         245.00      1066.30
  269.68        2973.75           2481         221.00       961.67
  269.71        2974.00           2484         252.00      1096.82
  269.74        2974.25           2488         230.00      1000.91
  269.77        2974.50           2491         209.00       909.36
  269.81        2974.75           2495         212.00       922.44
  269.84        2975.00           2498         213.00       926.79
  269.87        2975.25           2502         221.00       961.67
  269.90        2975.50           2505         193.00       839.61
  269.93        2975.75           2509         199.00       865.76
  269.96        2976.00           2512         179.00       778.57
  269.99        2976.25           2516         174.00       756.78
  270.02        2976.50           2520         182.00       791.65
  270.05        2976.75           2523         170.00       739.34
  270.08        2977.00           2527         192.00       835.25
  270.11        2977.25           2530         163.00       708.82
  270.14        2977.50           2534         163.00       708.82
  270.17        2977.75           2537         177.00       769.85
  270.21        2978.00           2541         172.00       748.06
  270.24        2978.25           2544         156.00       678.31
  270.27        2978.50           2548         176.00       765.50
  270.30        2978.75           2552         166.00       721.90
  270.33        2979.00           2555         171.00       743.70
  270.36        2979.25           2559         168.00       730.62
  270.39        2979.50           2562         159.00       691.39
  270.42        2979.75           2566         162.00       704.46
  270.45        2980.00           2569         164.00       713.18
  270.48        2980.25           2573         159.00       691.39
  270.51        2980.50           2577         159.00       691.39
  270.54        2980.75           2580         150.00       652.15
  270.57        2981.00           2584         161.00       700.10
  270.60        2981.25           2587         162.00       704.46
  270.63        2981.50           2591         179.00       778.57
  270.66        2981.75           2594         175.00       761.14
  270.69        2982.00           2598         143.00       621.63
  270.72        2982.25           2601         154.00       669.59
  270.76        2982.50           2605         164.00       713.18
  270.79        2982.75           2609         176.00       765.50
  270.82        2983.00           2612         152.00       660.87
  270.85        2983.25           2616         144.00       625.99
  270.88        2983.50           2619         139.00       604.20
  270.91        2983.75           2623         143.00       621.63
  270.94        2984.00           2626         141.00       612.92
HS scan finished at 04:31:10
end
************************************************************
  HS Scan of (1) Internal mercury lamp
************************************************************
Integration time is 0.2294 seconds per sample
dh081117Reading 51.44 .94 2.96pr1000
************************************************************
Dead Time -------------------------  3.4E-08 
Number of Cycles Used -------------  4 
Starting Wavelength (Angstroms) ---  2950 
Final Wavelength (Angstoms) -------  2984 
Wavelength Increment (Angstroms) --  .25 
Filter Wheel #1 Position ---------- (1) Ground quartz diffuser (ND=2.32)
Filter Wheel #2 Position ---------- (1) Neutral Density 0.494



************************************************************
HS scan start time = 17:07:25
Dark Count =  .9 


Time (GMT)  Wavelength (Ang)  Step Number  Raw Counts  Counts/Second

 1028.31        2950.00           2144         113.00       488.67
 1028.51        2950.25           2147         107.00       462.52
 1028.54        2950.50           2151         111.00       479.96
 1028.57        2950.75           2155         122.00       527.91
 1028.60        2951.00           2158         118.00       510.47
 1028.63        2951.25           2162         136.00       588.94
 1028.66        2951.50           2165         115.00       497.39
 1028.69        2951.75           2169         137.00       593.30
 1028.72        2952.00           2172         109.00       471.24
 1028.75        2952.25           2176         118.00       510.47
 1028.78        2952.50           2179         112.00       484.31
 1028.81        2952.75           2183         113.00       488.67
 1028.84        2953.00           2186         138.00       597.66
 1028.87        2953.25           2190         109.00       471.24
 1028.90        2953.50           2193         162.00       702.28
 1028.93        2953.75           2197         112.00       484.31
 1028.97        2954.00           2200         116.00       501.75
 1029.00        2954.25           2204         136.00       588.94
 1029.03        2954.50           2208         117.00       506.11
 1029.06        2954.75           2211         123.00       532.27
 1029.09        2955.00           2215         139.00       602.02
 1029.12        2955.25           2218         143.00       619.46
 1029.15        2955.50           2222         150.00       649.97
 1029.18        2955.75           2225         117.00       506.11
 1029.21        2956.00           2229         138.00       597.66
 1029.24        2956.25           2232         142.00       615.10
 1029.27        2956.50           2236         129.00       558.42
 1029.30        2956.75           2239         135.00       584.58
 1029.33        2957.00           2243         134.00       580.22
 1029.36        2957.25           2246         127.00       549.71
 1029.39        2957.50           2250         134.00       580.22
 1029.42        2957.75           2254         133.00       575.86
 1029.45        2958.00           2257         145.00       628.17
 1029.48        2958.25           2261         142.00       615.10
 1029.52        2958.50           2264         145.00       628.17
 1029.55        2958.75           2268         173.00       750.24
 1029.58        2959.00           2271         138.00       597.66
 1029.61        2959.25           2275         166.00       719.72
 1029.64        2959.50           2278         155.00       671.77
 1029.67        2959.75           2282         155.00       671.77
 1029.70        2960.00           2285         142.00       615.10
 1029.73        2960.25           2289         158.00       684.85
 1029.76        2960.50           2293         162.00       702.28
 1029.80        2960.75           2296         161.00       697.92
 1029.83        2961.00           2300         176.00       763.32
 1029.86        2961.25           2303         281.00      1221.06
 1029.89        2961.50           2307        1115.00      4857.39
 1029.92        2961.75           2310        2531.00     11033.35
 1029.95        2962.00           2314        4895.00     21349.84
 1029.98        2962.25           2317        6714.00     29292.89
 1030.01        2962.50           2321        8947.00     39049.63
 1030.04        2962.75           2324       10753.00     46945.40
 1030.07        2963.00           2328       13418.00     58604.45
 1030.10        2963.25           2331       15781.00     68950.03
 1030.13        2963.50           2335       18394.00     80398.65
 1030.16        2963.75           2339       20931.00     91522.80
 1030.20        2964.00           2342       22680.00     99196.69
 1030.23        2964.25           2346       25578.00    111920.70
 1030.26        2964.50           2349       27234.00    119196.60
 1030.29        2964.75           2353       30372.00    132993.60
 1030.32        2965.00           2356       32701.00    143242.10
 1030.35        2965.25           2360       35284.00    154616.70
 1030.38        2965.50           2363       36920.00    161825.60
 1030.41        2965.75           2367       39405.00    172782.40
 1030.44        2966.00           2370       41092.00    180225.20
 1030.47        2966.25           2374       43060.00    188912.70
 1030.50        2966.50           2378       44906.00    197066.20
 1030.53        2966.75           2381       45267.00    198661.20
 1030.56        2967.00           2385       45451.00    199474.30
 1030.59        2967.25           2388       45390.00    199204.70
 1030.62        2967.50           2392       45276.00    198701.00
 1030.65        2967.75           2395       44824.00    196703.90
 1030.68        2968.00           2399       43966.00    192913.80
 1030.72        2968.25           2402       42609.00    186921.30
 1030.75        2968.50           2406       39877.00    174864.40
 1030.78        2968.75           2409       37987.00    166529.20
 1030.81        2969.00           2413       35588.00    155956.00
 1030.84        2969.25           2417       33348.00    146090.50
 1030.87        2969.50           2420       31430.00    137648.40
 1030.90        2969.75           2424       29038.00    127126.80
 1030.93        2970.00           2427       27051.00    118392.40
 1030.96        2970.25           2431       24018.00    105070.00
 1030.99        2970.50           2434       22045.00     96410.09
 1031.02        2970.75           2438       19064.00     83335.62
 1031.05        2971.00           2441       17320.00     75691.93
 1031.08        2971.25           2445       14846.00     64855.59
 1031.11        2971.50           2449       12272.00     53589.71
 1031.14        2971.75           2452       10465.00     45685.99
 1031.17        2972.00           2456        7948.00     34683.86
 1031.20        2972.25           2459        6100.00     26611.25
 1031.23        2972.50           2463        3621.00     15789.21
 1031.27        2972.75           2466        1970.00      8586.20
 1031.30        2973.00           2470         594.00      2585.67
 1031.33        2973.25           2473         286.00      1242.86
 1031.36        2973.50           2477         184.00       798.19
 1031.39        2973.75           2481         191.00       828.71
 1031.42        2974.00           2484         170.00       737.16
 1031.45        2974.25           2488         156.00       676.13
 1031.48        2974.50           2491         182.00       789.47
 1031.51        2974.75           2495         176.00       763.32
 1031.54        2975.00           2498         136.00       588.94
 1031.58        2975.25           2502         144.00       623.81
 1031.61        2975.50           2505         145.00       628.17
 1031.64        2975.75           2509         139.00       602.02
 1031.67        2976.00           2512         167.00       724.08
 1031.70        2976.25           2516         161.00       697.92
 1031.73        2976.50           2520         151.00       654.33
 1031.76        2976.75           2523         133.00       575.86
 1031.79        2977.00           2527         173.00       750.24
 1031.82        2977.25           2530         205.00       889.74
 1031.85        2977.50           2534         149.00       645.61
 1031.88        2977.75           2537         159.00       689.21
 1031.91        2978.00           2541         131.00       567.14
 1031.95        2978.25           2544         123.00       532.27
 1031.98        2978.50           2548         134.00       580.22
 1032.01        2978.75           2552         117.00       506.11
 1032.04        2979.00           2555         120.00       519.19
 1032.07        2979.25           2559         115.00       497.39
 1032.10        2979.50           2562         115.00       497.39
 1032.13        2979.75           2566         147.00       636.89
 1032.16        2980.00           2569         123.00       532.27
 1032.19        2980.25           2573         110.00       475.60
 1032.22        2980.50           2577         128.00       554.06
 1032.25        2980.75           2580         120.00       519.19
 1032.28        2981.00           2584         107.00       462.52
 1032.31        2981.25           2587         110.00       475.60
 1032.34        2981.50           2591         112.00       484.31
 1032.37        2981.75           2594         102.00       440.72
 1032.40        2982.00           2598         104.00       449.44
 1032.43        2982.25           2601         108.00       466.88
 1032.47        2982.50           2605         107.00       462.52
 1032.50        2982.75           2609         109.00       471.24
 1032.53        2983.00           2612         110.00       475.60
 1032.56        2983.25           2616          98.00       423.28
 1032.59        2983.50           2619         102.00       440.72
 1032.62        2983.75           2623         142.00       615.10
 1032.65        2984.00           2626         102.00       440.72
HS scan finished at 17:12:52
end
