************************************************************
  HS Scan of (1) Internal mercury lamp
************************************************************
Integration time is 0.2294 seconds per sample
dh061117Reading 51.44 .94 2.43pr1000
************************************************************
Dead Time -------------------------  3.4E-08 
Number of Cycles Used -------------  4 
Starting Wavelength (Angstroms) ---  2950 
Final Wavelength (Angstoms) -------  2984 
Wavelength Increment (Angstroms) --  .25 
Filter Wheel #1 Position ---------- (1) Ground quartz diffuser (ND=2.32)
Filter Wheel #2 Position ---------- (1) Neutral Density 0.494



************************************************************
HS scan start time = 04:25:36
Dark Count =  .4 


Time (GMT)  Wavelength (Ang)  Step Number  Raw Counts  Counts/Second

  266.50        2950.00           2144         174.00       756.78
  266.70        2950.25           2147         167.00       726.26
  266.73        2950.50           2151         180.00       782.93
  266.76        2950.75           2155         174.00       756.78
  266.79        2951.00           2158         170.00       739.34
  266.82        2951.25           2162         157.00       682.67
  266.85        2951.50           2165         175.00       761.14
  266.88        2951.75           2169         175.00       761.14
  266.91        2952.00           2172         175.00       761.14
  266.94        2952.25           2176         168.00       730.62
  266.97        2952.50           2179         177.00       769.85
  267.00        2952.75           2183         189.00       822.17
  267.03        2953.00           2186         175.00       761.14
  267.06        2953.25           2190         179.00       778.57
  267.09        2953.50           2193         184.00       800.37
  267.12        2953.75           2197         188.00       817.81
  267.15        2954.00           2200         170.00       739.34
  267.18        2954.25           2204         189.00       822.17
  267.21        2954.50           2208         173.00       752.42
  267.25        2954.75           2211         184.00       800.37
  267.28        2955.00           2215         178.00       774.21
  267.31        2955.25           2218         194.00       843.96
  267.34        2955.50           2222         196.00       852.68
  267.37        2955.75           2225         193.00       839.61
  267.40        2956.00           2229         187.00       813.45
  267.43        2956.25           2232         191.00       830.89
  267.46        2956.50           2236         199.00       865.76
  267.49        2956.75           2239         198.00       861.40
  267.52        2957.00           2243         188.00       817.81
  267.55        2957.25           2246         204.00       887.56
  267.58        2957.50           2250         195.00       848.32
  267.61        2957.75           2254         203.00       883.20
  267.64        2958.00           2257         218.00       948.59
  267.67        2958.25           2261         216.00       939.87
  267.70        2958.50           2264         215.00       935.51
  267.74        2958.75           2268         211.00       918.08
  267.77        2959.00           2271         226.00       983.47
  267.80        2959.25           2275         225.00       979.11
  267.83        2959.50           2278         227.00       987.83
  267.86        2959.75           2282         232.00      1009.62
  267.89        2960.00           2285         233.00      1013.98
  267.92        2960.25           2289         261.00      1136.05
  267.95        2960.50           2293         247.00      1075.02
  267.98        2960.75           2296         274.00      1192.73
  268.01        2961.00           2300         302.00      1314.79
  268.04        2961.25           2303         542.00      2361.13
  268.07        2961.50           2307        2053.00      8950.41
  268.10        2961.75           2310        4260.00     18580.17
  268.13        2962.00           2314        7597.00     33152.43
  268.16        2962.25           2317       10165.00     44376.41
  268.19        2962.50           2321       13741.00     60020.35
  268.22        2962.75           2324       16281.00     71142.24
  268.26        2963.00           2328       20051.00     87665.44
  268.29        2963.25           2331       23041.00    100783.30
  268.32        2963.50           2335       27276.00    119383.40
  268.35        2963.75           2339       30844.00    135072.30
  268.38        2964.00           2342       33495.00    146739.90
  268.41        2964.25           2346       37335.00    163657.00
  268.44        2964.50           2349       40461.00    177443.10
  268.47        2964.75           2353       44137.00    193671.30
  268.50        2965.00           2356       47150.00    206986.00
  268.53        2965.25           2360       50520.00    221892.70
  268.56        2965.50           2363       52651.00    231326.70
  268.59        2965.75           2367       56390.00    247894.00
  268.62        2966.00           2370       59631.00    262269.90
  268.65        2966.25           2374       63020.00    277317.40
  268.68        2966.50           2378       65350.00    287671.80
  268.71        2966.75           2381       65790.00    289628.00
  268.74        2967.00           2385       65950.00    290339.40
  268.77        2967.25           2388       66045.00    290761.80
  268.81        2967.50           2392       65889.00    290068.10
  268.84        2967.75           2395       65882.00    290037.00
  268.87        2968.00           2399       64733.00    284929.20
  268.90        2968.25           2402       62772.00    276215.70
  268.93        2968.50           2406       58672.00    258014.70
  268.96        2968.75           2409       55959.00    245983.30
  268.99        2969.00           2413       51956.00    228249.20
  269.02        2969.25           2417       48919.00    214809.00
  269.05        2969.50           2420       46087.00    202287.10
  269.08        2969.75           2424       41665.00    182756.30
  269.11        2970.00           2427       38164.00    167311.80
  269.14        2970.25           2431       34154.00    149641.70
  269.17        2970.50           2434       31032.00    135899.40
  269.20        2970.75           2438       27119.00    118693.40
  269.23        2971.00           2441       24226.00    105985.40
  269.26        2971.25           2445       20339.00     88928.46
  269.29        2971.50           2449       16647.00     72745.53
  269.33        2971.75           2452       13734.00     59989.71
  269.36        2972.00           2456       10085.00     44026.62
  269.39        2972.25           2459        7340.00     32029.63
  269.42        2972.50           2463        3868.00     16869.31
  269.45        2972.75           2466        1947.00      8488.06
  269.48        2973.00           2470         629.00      2740.45
  269.51        2973.25           2473         369.00      1606.89
  269.54        2973.50           2477         272.00      1184.01
  269.57        2973.75           2481         274.00      1192.73
  269.60        2974.00           2484         257.00      1118.61
  269.63        2974.25           2488         227.00       987.83
  269.66        2974.50           2491         248.00      1079.38
  269.69        2974.75           2495         267.00      1162.21
  269.72        2975.00           2498         228.00       992.19
  269.75        2975.25           2502         218.00       948.59
  269.78        2975.50           2505         222.00       966.03
  269.82        2975.75           2509         213.00       926.79
  269.85        2976.00           2512         232.00      1009.62
  269.88        2976.25           2516         200.00       870.12
  269.91        2976.50           2520         211.00       918.08
  269.94        2976.75           2523         217.00       944.23
  269.97        2977.00           2527         221.00       961.67
  270.00        2977.25           2530         206.00       896.28
  270.03        2977.50           2534         206.00       896.28
  270.06        2977.75           2537         195.00       848.32
  270.09        2978.00           2541         198.00       861.40
  270.12        2978.25           2544         192.00       835.25
  270.15        2978.50           2548         186.00       809.09
  270.18        2978.75           2552         179.00       778.57
  270.21        2979.00           2555         191.00       830.89
  270.24        2979.25           2559         190.00       826.53
  270.27        2979.50           2562         189.00       822.17
  270.30        2979.75           2566         188.00       817.81
  270.33        2980.00           2569         172.00       748.06
  270.37        2980.25           2573         175.00       761.14
  270.40        2980.50           2577         176.00       765.50
  270.43        2980.75           2580         169.00       734.98
  270.46        2981.00           2584         172.00       748.06
  270.49        2981.25           2587         176.00       765.50
  270.52        2981.50           2591         177.00       769.85
  270.55        2981.75           2594         167.00       726.26
  270.59        2982.00           2598         161.00       700.10
  270.63        2982.25           2601         164.00       713.18
  270.66        2982.50           2605         170.00       739.34
  270.69        2982.75           2609         164.00       713.18
  270.72        2983.00           2612         166.00       721.90
  270.75        2983.25           2616         155.00       673.95
  270.78        2983.50           2619         163.00       708.82
  270.81        2983.75           2623         163.00       708.82
  270.84        2984.00           2626         162.00       704.46
HS scan finished at 04:31:04
end
************************************************************
  HS Scan of (1) Internal mercury lamp
************************************************************
Integration time is 0.2294 seconds per sample
dh061117Reading 51.44 .94 3.01pr1000
************************************************************
Dead Time -------------------------  3.4E-08 
Number of Cycles Used -------------  4 
Starting Wavelength (Angstroms) ---  2950 
Final Wavelength (Angstoms) -------  2984 
Wavelength Increment (Angstroms) --  .25 
Filter Wheel #1 Position ---------- (1) Ground quartz diffuser (ND=2.32)
Filter Wheel #2 Position ---------- (1) Neutral Density 0.494



************************************************************
HS scan start time = 17:37:22
Dark Count =  .9 


Time (GMT)  Wavelength (Ang)  Step Number  Raw Counts  Counts/Second

 1058.27        2950.00           2144         113.00       488.67
 1058.46        2950.25           2147         121.00       523.55
 1058.49        2950.50           2151         131.00       567.14
 1058.52        2950.75           2155         129.00       558.42
 1058.55        2951.00           2158         129.00       558.42
 1058.58        2951.25           2162         118.00       510.47
 1058.61        2951.50           2165         118.00       510.47
 1058.64        2951.75           2169         110.00       475.60
 1058.67        2952.00           2172         116.00       501.75
 1058.70        2952.25           2176         139.00       602.02
 1058.74        2952.50           2179         121.00       523.55
 1058.77        2952.75           2183         111.00       479.96
 1058.80        2953.00           2186         120.00       519.19
 1058.83        2953.25           2190         124.00       536.63
 1058.86        2953.50           2193         120.00       519.19
 1058.89        2953.75           2197         123.00       532.27
 1058.92        2954.00           2200         120.00       519.19
 1058.95        2954.25           2204         120.00       519.19
 1058.98        2954.50           2208         145.00       628.17
 1059.01        2954.75           2211         146.00       632.53
 1059.04        2955.00           2215         162.00       702.28
 1059.07        2955.25           2218         137.00       593.30
 1059.10        2955.50           2222         148.00       641.25
 1059.13        2955.75           2225         152.00       658.69
 1059.16        2956.00           2229         131.00       567.14
 1059.19        2956.25           2232         147.00       636.89
 1059.22        2956.50           2236         177.00       767.67
 1059.26        2956.75           2239         167.00       724.08
 1059.29        2957.00           2243         134.00       580.22
 1059.32        2957.25           2246         144.00       623.81
 1059.35        2957.50           2250         137.00       593.30
 1059.38        2957.75           2254         138.00       597.66
 1059.41        2958.00           2257         148.00       641.25
 1059.44        2958.25           2261         153.00       663.05
 1059.47        2958.50           2264         153.00       663.05
 1059.50        2958.75           2268         172.00       745.88
 1059.53        2959.00           2271         150.00       649.97
 1059.56        2959.25           2275         147.00       636.89
 1059.59        2959.50           2278         154.00       667.41
 1059.62        2959.75           2282         181.00       785.11
 1059.65        2960.00           2285         150.00       649.97
 1059.68        2960.25           2289         166.00       719.72
 1059.71        2960.50           2293         167.00       724.08
 1059.74        2960.75           2296         178.00       772.03
 1059.78        2961.00           2300         253.00      1098.99
 1059.81        2961.25           2303         513.00      2232.51
 1059.84        2961.50           2307        1930.00      8411.73
 1059.87        2961.75           2310        3540.00     15435.74
 1059.90        2962.00           2314        5928.00     25860.13
 1059.93        2962.25           2317        7783.00     33962.91
 1059.96        2962.50           2321       10371.00     45274.96
 1059.99        2962.75           2324       12484.00     54517.26
 1060.02        2963.00           2328       15414.00     67342.77
 1060.05        2963.25           2331       17647.00     77124.82
 1060.08        2963.50           2335       20728.00     90632.38
 1060.11        2963.75           2339       23452.00    102585.20
 1060.14        2964.00           2342       25557.00    111828.50
 1060.17        2964.25           2346       28253.00    123675.50
 1060.20        2964.50           2349       30374.00    133002.50
 1060.23        2964.75           2353       33490.00    146715.70
 1060.26        2965.00           2356       35492.00    155533.00
 1060.30        2965.25           2360       38156.00    167274.30
 1060.33        2965.50           2363       40158.00    176104.00
 1060.36        2965.75           2367       42304.00    185574.80
 1060.40        2966.00           2370       44479.00    195179.80
 1060.43        2966.25           2374       47061.00    206590.30
 1060.46        2966.50           2378       48345.00    212268.00
 1060.49        2966.75           2381       48842.00    214466.20
 1060.52        2967.00           2385       48887.00    214665.30
 1060.55        2967.25           2388       48847.00    214488.30
 1060.58        2967.50           2392       48798.00    214271.60
 1060.61        2967.75           2395       48476.00    212847.40
 1060.64        2968.00           2399       47287.00    207589.50
 1060.67        2968.25           2402       45350.00    199028.00
 1060.70        2968.50           2406       42864.00    188047.20
 1060.73        2968.75           2409       40903.00    179391.20
 1060.76        2969.00           2413       37622.00    164920.00
 1060.79        2969.25           2417       35075.00    153696.00
 1060.82        2969.50           2420       32764.00    143519.50
 1060.85        2969.75           2424       30193.00    132206.30
 1060.88        2970.00           2427       28135.00    123156.70
 1060.92        2970.25           2431       24849.00    108718.90
 1060.95        2970.50           2434       22591.00     98806.09
 1060.98        2970.75           2438       19596.00     85668.09
 1061.01        2971.00           2441       17354.00     75840.91
 1061.04        2971.25           2445       14692.00     64181.32
 1061.07        2971.50           2449       12020.00     52487.22
 1061.10        2971.75           2452        9651.00     42126.99
 1061.13        2972.00           2456        6749.00     29445.77
 1061.16        2972.25           2459        4698.00     20489.86
 1061.19        2972.50           2463        2488.00     10845.76
 1061.22        2972.75           2466        1197.00      5214.96
 1061.25        2973.00           2470         343.00      1491.36
 1061.28        2973.25           2473         227.00       985.65
 1061.31        2973.50           2477         199.00       863.58
 1061.34        2973.75           2481         183.00       793.83
 1061.37        2974.00           2484         171.00       741.52
 1061.40        2974.25           2488         176.00       763.32
 1061.44        2974.50           2491         159.00       689.21
 1061.47        2974.75           2495         172.00       745.88
 1061.50        2975.00           2498         168.00       728.44
 1061.53        2975.25           2502         156.00       676.13
 1061.56        2975.50           2505         165.00       715.36
 1061.59        2975.75           2509         169.00       732.80
 1061.62        2976.00           2512         163.00       706.64
 1061.65        2976.25           2516         147.00       636.89
 1061.68        2976.50           2520         147.00       636.89
 1061.71        2976.75           2523         153.00       663.05
 1061.74        2977.00           2527         176.00       763.32
 1061.77        2977.25           2530         152.00       658.69
 1061.80        2977.50           2534         153.00       663.05
 1061.84        2977.75           2537         156.00       676.13
 1061.87        2978.00           2541         129.00       558.42
 1061.90        2978.25           2544         146.00       632.53
 1061.93        2978.50           2548         151.00       654.33
 1061.96        2978.75           2552         127.00       549.71
 1061.99        2979.00           2555         142.00       615.10
 1062.02        2979.25           2559         150.00       649.97
 1062.05        2979.50           2562         126.00       545.35
 1062.08        2979.75           2566         153.00       663.05
 1062.11        2980.00           2569         122.00       527.91
 1062.15        2980.25           2573         132.00       571.50
 1062.18        2980.50           2577         158.00       684.85
 1062.21        2980.75           2580         119.00       514.83
 1062.24        2981.00           2584         161.00       697.92
 1062.27        2981.25           2587         125.00       540.99
 1062.30        2981.50           2591         116.00       501.75
 1062.33        2981.75           2594         154.00       667.41
 1062.36        2982.00           2598         110.00       475.60
 1062.39        2982.25           2601         151.00       654.33
 1062.42        2982.50           2605         137.00       593.30
 1062.45        2982.75           2609         114.00       493.03
 1062.48        2983.00           2612         117.00       506.11
 1062.51        2983.25           2616         112.00       484.31
 1062.54        2983.50           2619         122.00       527.91
 1062.57        2983.75           2623         120.00       519.19
 1062.60        2984.00           2626         125.00       540.99
HS scan finished at 17:42:50
end
