************************************************************
  HS Scan of (1) Internal mercury lamp
************************************************************
Integration time is 0.2294 seconds per sample
dh091118Reading 51.44 .94 2.78pr1000
************************************************************
Dead Time -------------------------  3.4E-08 
Number of Cycles Used -------------  4 
Starting Wavelength (Angstroms) ---  2950 
Final Wavelength (Angstoms) -------  2984 
Wavelength Increment (Angstroms) --  .25 
Filter Wheel #1 Position ---------- (1) Ground quartz diffuser (ND=2.32)
Filter Wheel #2 Position ---------- (1) Neutral Density 0.494



************************************************************
HS scan start time = 04:26:49
Dark Count =  .5 


Time (GMT)  Wavelength (Ang)  Step Number  Raw Counts  Counts/Second

  267.72        2950.00           2144        1593.00      6943.66
  267.91        2950.25           2147        1583.00      6900.05
  267.94        2950.50           2151        1598.00      6965.47
  267.97        2950.75           2155        1588.00      6921.86
  268.00        2951.00           2158        1576.00      6869.52
  268.03        2951.25           2162        1560.00      6799.74
  268.06        2951.50           2165        1620.00      7061.42
  268.09        2951.75           2169        1603.00      6987.27
  268.12        2952.00           2172        1618.00      7052.69
  268.15        2952.25           2176        1615.00      7039.61
  268.18        2952.50           2179        1597.00      6961.11
  268.21        2952.75           2183        1697.00      7397.24
  268.25        2953.00           2186        1635.00      7126.84
  268.28        2953.25           2190        1641.00      7153.00
  268.31        2953.50           2193        1609.00      7013.44
  268.34        2953.75           2197        1647.00      7179.17
  268.37        2954.00           2200        1630.00      7105.03
  268.40        2954.25           2204        1625.00      7083.22
  268.43        2954.50           2208        1722.00      7506.27
  268.46        2954.75           2211        1658.00      7227.15
  268.49        2955.00           2215        1692.00      7375.43
  268.52        2955.25           2218        1678.00      7314.37
  268.55        2955.50           2222        1693.00      7379.79
  268.58        2955.75           2225        1710.00      7453.94
  268.61        2956.00           2229        1677.00      7310.01
  268.64        2956.25           2232        1657.00      7222.79
  268.67        2956.50           2236        1669.00      7275.12
  268.70        2956.75           2239        1786.00      7785.41
  268.73        2957.00           2243        1746.00      7610.95
  268.77        2957.25           2246        1767.00      7702.54
  268.80        2957.50           2250        1763.00      7685.09
  268.83        2957.75           2254        1724.00      7515.00
  268.86        2958.00           2257        1787.00      7789.77
  268.89        2958.25           2261        1792.00      7811.58
  268.92        2958.50           2264        1805.00      7868.28
  268.95        2958.75           2268        1817.00      7920.62
  268.98        2959.00           2271        1854.00      8081.99
  269.01        2959.25           2275        1867.00      8138.70
  269.04        2959.50           2278        1884.00      8212.84
  269.07        2959.75           2282        1903.00      8295.71
  269.10        2960.00           2285        1913.00      8339.33
  269.13        2960.25           2289        1952.00      8509.44
  269.16        2960.50           2293        2038.00      8884.55
  269.19        2960.75           2296        1981.00      8635.93
  269.22        2961.00           2300        2141.00      9333.83
  269.25        2961.25           2303        2425.00     10572.68
  269.29        2961.50           2307        5384.00     23486.49
  269.32        2961.75           2310       13182.00     57573.36
  269.35        2962.00           2314       31146.00    136400.50
  269.38        2962.25           2317       46619.00    204638.10
  269.41        2962.50           2321       64705.00    284804.30
  269.44        2962.75           2324       78618.00    346773.80
  269.47        2963.00           2328       98821.00    437229.80
  269.50        2963.25           2331      116611.00    517348.80
  269.53        2963.50           2335      140500.00    625632.80
  269.56        2963.75           2339      163454.00    730443.40
  269.59        2964.00           2342      179281.00    803154.40
  269.62        2964.25           2346      200683.00    902061.10
  269.65        2964.50           2349      216970.00    977784.80
  269.68        2964.75           2353      239313.00   1082315.00
  269.71        2965.00           2356      255030.00   1156301.00
  269.74        2965.25           2360      276212.00   1256619.00
  269.77        2965.50           2363      291354.00   1328763.00
  269.80        2965.75           2367      311894.00   1427207.00
  269.84        2966.00           2370      326741.00   1498790.00
  269.87        2966.25           2374      344173.00   1583295.00
  269.90        2966.50           2378      356678.00   1644224.00
  269.93        2966.75           2381      361813.00   1669319.00
  269.96        2967.00           2385      364412.00   1682038.00
  269.99        2967.25           2388      364944.00   1684642.00
  270.02        2967.50           2392      364807.00   1683971.00
  270.05        2967.75           2395      364173.00   1680867.00
  270.08        2968.00           2399      360799.00   1664360.00
  270.11        2968.25           2402      351897.00   1620898.00
  270.15        2968.50           2406      333961.00   1533730.00
  270.18        2968.75           2409      319184.00   1462310.00
  270.21        2969.00           2413      299516.00   1367801.00
  270.24        2969.25           2417      280612.00   1277545.00
  270.27        2969.50           2420      266850.00   1212194.00
  270.30        2969.75           2424      247758.00   1122022.00
  270.33        2970.00           2427      230640.00   1041649.00
  270.36        2970.25           2431      208058.00    936300.80
  270.39        2970.50           2434      191578.00    859900.90
  270.42        2970.75           2438      169047.00    756096.60
  270.45        2971.00           2441      152219.00    679048.60
  270.48        2971.25           2445      130770.00    581431.40
  270.51        2971.50           2449      111014.00    492094.70
  270.55        2971.75           2452       96052.00    424798.90
  270.58        2972.00           2456       74826.00    329857.90
  270.61        2972.25           2459       58633.00    257841.20
  270.64        2972.50           2463       36451.00    159760.40
  270.67        2972.75           2466       21125.00     92375.55
  270.70        2973.00           2470        7541.00     32907.33
  270.73        2973.25           2473        3676.00     16030.97
  270.76        2973.50           2477        2276.00      9922.70
  270.79        2973.75           2481        2029.00      8845.29
  270.82        2974.00           2484        2022.00      8814.76
  270.85        2974.25           2488        1996.00      8701.35
  270.88        2974.50           2491        1966.00      8570.50
  270.91        2974.75           2495        1937.00      8444.01
  270.94        2975.00           2498        1909.00      8321.88
  270.97        2975.25           2502        1869.00      8147.42
  271.00        2975.50           2505        1859.00      8103.80
  271.03        2975.75           2509        1793.00      7815.94
  271.07        2976.00           2512        1832.00      7986.04
  271.10        2976.25           2516        1744.00      7602.23
  271.13        2976.50           2520        1793.00      7815.94
  271.16        2976.75           2523        1765.00      7693.82
  271.19        2977.00           2527        1765.00      7693.82
  271.22        2977.25           2530        1731.00      7545.53
  271.25        2977.50           2534        1701.00      7414.69
  271.28        2977.75           2537        1733.00      7554.25
  271.31        2978.00           2541        1691.00      7371.07
  271.34        2978.25           2544        1679.00      7318.74
  271.37        2978.50           2548        1666.00      7262.04
  271.40        2978.75           2552        1642.00      7157.37
  271.43        2979.00           2555        1614.00      7035.25
  271.46        2979.25           2559        1631.00      7109.39
  271.49        2979.50           2562        1642.00      7157.37
  271.52        2979.75           2566        1627.00      7091.95
  271.55        2980.00           2569        1571.00      6847.71
  271.59        2980.25           2573        1602.00      6982.91
  271.62        2980.50           2577        1584.00      6904.41
  271.65        2980.75           2580        1553.00      6769.21
  271.68        2981.00           2584        1553.00      6769.21
  271.71        2981.25           2587        1582.00      6895.69
  271.74        2981.50           2591        1540.00      6712.52
  271.77        2981.75           2594        1560.00      6799.74
  271.80        2982.00           2598        1552.00      6764.85
  271.83        2982.25           2601        1479.00      6446.49
  271.86        2982.50           2605        1524.00      6642.74
  271.90        2982.75           2609        1498.00      6529.35
  271.93        2983.00           2612        1487.00      6481.38
  271.96        2983.25           2616        1465.00      6385.43
  271.99        2983.50           2619        1492.00      6503.18
  272.02        2983.75           2623        1480.00      6450.85
  272.06        2984.00           2626        1531.00      6673.27
HS scan finished at 04:32:17
end
************************************************************
  HS Scan of (1) Internal mercury lamp
************************************************************
Integration time is 0.2294 seconds per sample
dh091118Reading 51.44 .94 3.19pr1000
************************************************************
Dead Time -------------------------  3.4E-08 
Number of Cycles Used -------------  4 
Starting Wavelength (Angstroms) ---  2950 
Final Wavelength (Angstoms) -------  2984 
Wavelength Increment (Angstroms) --  .25 
Filter Wheel #1 Position ---------- (1) Ground quartz diffuser (ND=2.32)
Filter Wheel #2 Position ---------- (1) Neutral Density 0.494



************************************************************
HS scan start time = 17:07:28
Dark Count =  1.5 


Time (GMT)  Wavelength (Ang)  Step Number  Raw Counts  Counts/Second

 1028.37        2950.00           2144         984.00      4283.54
 1028.56        2950.25           2147         981.00      4270.45
 1028.59        2950.50           2151         968.00      4213.77
 1028.62        2950.75           2155         989.00      4305.34
 1028.65        2951.00           2158         976.00      4248.65
 1028.68        2951.25           2162        1013.00      4409.99
 1028.71        2951.50           2165         977.00      4253.01
 1028.74        2951.75           2169        1006.00      4379.47
 1028.77        2952.00           2172         998.00      4344.58
 1028.80        2952.25           2176         994.00      4327.14
 1028.84        2952.50           2179         994.00      4327.14
 1028.87        2952.75           2183        1035.00      4505.92
 1028.90        2953.00           2186        1021.00      4444.87
 1028.93        2953.25           2190        1036.00      4510.28
 1028.96        2953.50           2193        1060.00      4614.93
 1028.99        2953.75           2197        1039.00      4523.36
 1029.02        2954.00           2200        1052.00      4580.05
 1029.05        2954.25           2204        1047.00      4558.25
 1029.08        2954.50           2208        1041.00      4532.08
 1029.11        2954.75           2211        1054.00      4588.77
 1029.14        2955.00           2215        1038.00      4519.00
 1029.17        2955.25           2218        1041.00      4532.08
 1029.20        2955.50           2222        1075.00      4680.34
 1029.23        2955.75           2225        1053.00      4584.41
 1029.26        2956.00           2229        1085.00      4723.95
 1029.29        2956.25           2232        1066.00      4641.10
 1029.32        2956.50           2236        1097.00      4776.28
 1029.36        2956.75           2239        1111.00      4837.33
 1029.39        2957.00           2243        1098.00      4780.64
 1029.42        2957.25           2246        1098.00      4780.64
 1029.45        2957.50           2250        1105.00      4811.16
 1029.48        2957.75           2254        1091.00      4750.11
 1029.51        2958.00           2257        1132.00      4928.90
 1029.54        2958.25           2261        1122.00      4885.29
 1029.57        2958.50           2264        1186.00      5164.38
 1029.60        2958.75           2268        1134.00      4937.62
 1029.63        2959.00           2271        1188.00      5173.10
 1029.66        2959.25           2275        1196.00      5207.98
 1029.69        2959.50           2278        1191.00      5186.18
 1029.72        2959.75           2282        1195.00      5203.62
 1029.75        2960.00           2285        1225.00      5334.45
 1029.78        2960.25           2289        1282.00      5583.01
 1029.81        2960.50           2293        1276.00      5556.85
 1029.84        2960.75           2296        1304.00      5678.95
 1029.88        2961.00           2300        1371.00      5971.13
 1029.91        2961.25           2303        1484.00      6463.93
 1029.94        2961.50           2307        3134.00     13661.53
 1029.97        2961.75           2310        8758.00     38220.95
 1030.00        2962.00           2314       21124.00     92366.79
 1030.03        2962.25           2317       31471.00    137826.10
 1030.06        2962.50           2321       45392.00    199210.90
 1030.09        2962.75           2324       56329.00    247618.70
 1030.12        2963.00           2328       71983.00    317183.80
 1030.15        2963.25           2331       83620.00    369113.00
 1030.18        2963.50           2335      100724.00    445774.70
 1030.21        2963.75           2339      114521.00    507908.90
 1030.24        2964.00           2342      125450.00    557315.90
 1030.27        2964.25           2346      143348.00    638591.50
 1030.30        2964.50           2349      156477.00    698501.00
 1030.33        2964.75           2353      171941.00    769383.70
 1030.36        2965.00           2356      183624.00    823165.90
 1030.40        2965.25           2360      198271.00    890875.80
 1030.43        2965.50           2363      209928.00    944990.90
 1030.46        2965.75           2367      224713.00   1013919.00
 1030.49        2966.00           2370      235678.00   1065252.00
 1030.52        2966.25           2374      248325.00   1124687.00
 1030.55        2966.50           2378      257991.00   1170278.00
 1030.58        2966.75           2381      261486.00   1186798.00
 1030.61        2967.00           2385      262533.00   1191751.00
 1030.64        2967.25           2388      262370.00   1190980.00
 1030.67        2967.50           2392      262574.00   1191945.00
 1030.70        2967.75           2395      261851.00   1188524.00
 1030.73        2968.00           2399      259104.00   1175537.00
 1030.76        2968.25           2402      252808.00   1145814.00
 1030.79        2968.50           2406      238890.00   1080324.00
 1030.82        2968.75           2409      228435.00   1031324.00
 1030.85        2969.00           2413      214661.00    967020.70
 1030.88        2969.25           2417      201273.00    904792.70
 1030.92        2969.50           2420      191142.00    857880.50
 1030.95        2969.75           2424      177387.00    794429.30
 1030.98        2970.00           2427      166600.00    744862.90
 1031.01        2970.25           2431      149428.00    666304.60
 1031.04        2970.50           2434      136538.00    607613.50
 1031.07        2970.75           2438      118867.00    527535.90
 1031.10        2971.00           2441      107425.00    475919.30
 1031.13        2971.25           2445       92390.00    408370.70
 1031.16        2971.50           2449       78703.00    347148.80
 1031.19        2971.75           2452       67541.00    297410.30
 1031.22        2972.00           2456       52457.00    230462.70
 1031.25        2972.25           2459       40578.00    177954.50
 1031.28        2972.50           2463       24709.00    108101.50
 1031.31        2972.75           2466       14496.00     63320.57
 1031.34        2973.00           2470        5484.00     23918.75
 1031.37        2973.25           2473        2642.00     11514.97
 1031.41        2973.50           2477        1491.00      6494.46
 1031.44        2973.75           2481        1332.00      5801.06
 1031.48        2974.00           2484        1338.00      5827.22
 1031.51        2974.25           2488        1269.00      5526.32
 1031.54        2974.50           2491        1257.00      5473.99
 1031.57        2974.75           2495        1220.00      5312.64
 1031.60        2975.00           2498        1195.00      5203.62
 1031.63        2975.25           2502        1188.00      5173.10
 1031.66        2975.50           2505        1156.00      5033.56
 1031.70        2975.75           2509        1183.00      5151.29
 1031.73        2976.00           2512        1197.00      5212.35
 1031.76        2976.25           2516        1124.00      4894.01
 1031.79        2976.50           2520        1142.00      4972.51
 1031.82        2976.75           2523        1132.00      4928.90
 1031.85        2977.00           2527        1093.00      4758.83
 1031.88        2977.25           2530        1132.00      4928.90
 1031.91        2977.50           2534        1072.00      4667.26
 1031.94        2977.75           2537        1076.00      4684.70
 1031.97        2978.00           2541        1043.00      4540.81
 1032.00        2978.25           2544        1080.00      4702.15
 1032.03        2978.50           2548        1059.00      4610.57
 1032.06        2978.75           2552        1055.00      4593.13
 1032.09        2979.00           2555        1051.00      4575.69
 1032.12        2979.25           2559        1001.00      4357.66
 1032.15        2979.50           2562        1020.00      4440.51
 1032.18        2979.75           2566        1023.00      4453.60
 1032.22        2980.00           2569         980.00      4266.09
 1032.25        2980.25           2573         984.00      4283.54
 1032.28        2980.50           2577        1005.00      4375.11
 1032.31        2980.75           2580        1004.00      4370.75
 1032.34        2981.00           2584         990.00      4309.70
 1032.37        2981.25           2587         942.00      4100.40
 1032.40        2981.50           2591         957.00      4165.80
 1032.43        2981.75           2594         982.00      4274.82
 1032.46        2982.00           2598         938.00      4082.96
 1032.49        2982.25           2601         976.00      4248.65
 1032.52        2982.50           2605         948.00      4126.56
 1032.55        2982.75           2609         935.00      4069.87
 1032.58        2983.00           2612         996.00      4335.86
 1032.61        2983.25           2616         975.00      4244.29
 1032.64        2983.50           2619         942.00      4100.40
 1032.67        2983.75           2623         942.00      4100.40
 1032.70        2984.00           2626         980.00      4266.09
HS scan finished at 17:12:56
end
