************************************************************
  HS Scan of (1) Internal mercury lamp
************************************************************
Integration time is 0.2294 seconds per sample
dh071118Reading 51.44 .94 3.07pr1000
************************************************************
Dead Time -------------------------  3.4E-08 
Number of Cycles Used -------------  4 
Starting Wavelength (Angstroms) ---  2950 
Final Wavelength (Angstoms) -------  2984 
Wavelength Increment (Angstroms) --  .25 
Filter Wheel #1 Position ---------- (1) Ground quartz diffuser (ND=2.32)
Filter Wheel #2 Position ---------- (1) Neutral Density 0.494



************************************************************
HS scan start time = 04:23:44
Dark Count =  .9 


Time (GMT)  Wavelength (Ang)  Step Number  Raw Counts  Counts/Second

  264.64        2950.00           2144        1462.00      6370.60
  264.83        2950.25           2147        1461.00      6366.24
  264.86        2950.50           2151        1466.00      6388.05
  264.89        2950.75           2155        1538.00      6702.05
  264.92        2951.00           2158        1476.00      6431.66
  264.95        2951.25           2162        1512.00      6588.66
  264.98        2951.50           2165        1499.00      6531.97
  265.01        2951.75           2169        1505.00      6558.13
  265.04        2952.00           2172        1507.00      6566.85
  265.07        2952.25           2176        1500.00      6536.33
  265.10        2952.50           2179        1481.00      6453.47
  265.13        2952.75           2183        1509.00      6575.58
  265.17        2953.00           2186        1544.00      6728.22
  265.20        2953.25           2190        1504.00      6553.77
  265.23        2953.50           2193        1550.00      6754.39
  265.26        2953.75           2197        1535.00      6688.97
  265.29        2954.00           2200        1508.00      6571.22
  265.32        2954.25           2204        1552.00      6763.11
  265.35        2954.50           2208        1569.00      6837.25
  265.38        2954.75           2211        1590.00      6928.83
  265.41        2955.00           2215        1607.00      7002.98
  265.44        2955.25           2218        1613.00      7029.14
  265.47        2955.50           2222        1588.00      6920.11
  265.50        2955.75           2225        1636.00      7129.45
  265.53        2956.00           2229        1648.00      7181.79
  265.56        2956.25           2232        1665.00      7255.93
  265.59        2956.50           2236        1634.00      7120.73
  265.62        2956.75           2239        1650.00      7190.51
  265.65        2957.00           2243        1675.00      7299.54
  265.69        2957.25           2246        1692.00      7373.69
  265.72        2957.50           2250        1650.00      7190.51
  265.75        2957.75           2254        1711.00      7456.55
  265.78        2958.00           2257        1721.00      7500.17
  265.81        2958.25           2261        1741.00      7587.40
  265.84        2958.50           2264        1816.00      7914.51
  265.87        2958.75           2268        1777.00      7744.41
  265.90        2959.00           2271        1798.00      7836.00
  265.93        2959.25           2275        1864.00      8123.86
  265.96        2959.50           2278        1867.00      8136.95
  265.99        2959.75           2282        1878.00      8184.93
  266.02        2960.00           2285        1890.00      8237.27
  266.05        2960.25           2289        1918.00      8359.39
  266.08        2960.50           2293        1984.00      8647.27
  266.11        2960.75           2296        2027.00      8834.82
  266.14        2961.00           2300        2179.00      9497.84
  266.17        2961.25           2303        2768.00     12067.29
  266.21        2961.50           2307        8143.00     35535.93
  266.24        2961.75           2310       17863.00     78071.40
  266.27        2962.00           2314       36423.00    159635.30
  266.30        2962.25           2317       53231.00    233893.20
  266.33        2962.50           2321       77839.00    343295.40
  266.36        2962.75           2324       96788.00    428100.20
  266.39        2963.00           2328      122074.00    542038.80
  266.42        2963.25           2331      138993.00    618776.10
  266.45        2963.50           2335      162723.00    727092.00
  266.48        2963.75           2339      188049.00    843591.20
  266.51        2964.00           2342      207537.00    933877.40
  266.54        2964.25           2346      233757.00   1056249.00
  266.57        2964.50           2349      251568.00   1139970.00
  266.60        2964.75           2353      273307.00   1242818.00
  266.63        2965.00           2356      288873.00   1316915.00
  266.66        2965.25           2360      309288.00   1414678.00
  266.69        2965.50           2363      326607.00   1498140.00
  266.73        2965.75           2367      349803.00   1610692.00
  266.76        2966.00           2370      366291.00   1691237.00
  266.79        2966.25           2374      385360.00   1784962.00
  266.82        2966.50           2378      399876.00   1856724.00
  266.85        2966.75           2381      403498.00   1874686.00
  266.88        2967.00           2385      405261.00   1883438.00
  266.91        2967.25           2388      405037.00   1882326.00
  266.94        2967.50           2392      403570.00   1875044.00
  266.97        2967.75           2395      402183.00   1868162.00
  267.00        2968.00           2399      396199.00   1838512.00
  267.03        2968.25           2402      384789.00   1782147.00
  267.06        2968.50           2406      365563.00   1687672.00
  267.09        2968.75           2409      350022.00   1611759.00
  267.12        2969.00           2413      330331.00   1516150.00
  267.15        2969.25           2417      306608.00   1401806.00
  267.18        2969.50           2420      288602.00   1315622.00
  267.21        2969.75           2424      265421.00   1205424.00
  267.25        2970.00           2427      246484.00   1116023.00
  267.28        2970.25           2431      221756.00   1000110.00
  267.31        2970.50           2434      205520.00    924506.70
  267.34        2970.75           2438      182735.00    819069.10
  267.37        2971.00           2441      163613.00    731170.20
  267.40        2971.25           2445      137311.00    611129.10
  267.43        2971.50           2449      112660.00    499515.30
  267.46        2971.75           2452       95866.00    423962.50
  267.49        2972.00           2456       71632.00    315623.00
  267.52        2972.25           2459       54606.00    239984.70
  267.55        2972.50           2463       32621.00    142890.00
  267.58        2972.75           2466       18028.00     78794.50
  267.61        2973.00           2470        6022.00     26270.62
  267.64        2973.25           2473        2918.00     12721.72
  267.67        2973.50           2477        2148.00      9362.62
  267.70        2973.75           2481        2048.00      8926.42
  267.73        2974.00           2484        1973.00      8599.29
  267.77        2974.25           2488        1988.00      8664.72
  267.80        2974.50           2491        1969.00      8581.84
  267.83        2974.75           2495        1861.00      8110.78
  267.86        2975.00           2498        1840.00      8019.19
  267.89        2975.25           2502        1879.00      8189.29
  267.92        2975.50           2505        1802.00      7853.45
  267.95        2975.75           2509        1802.00      7853.45
  267.98        2976.00           2512        1767.00      7700.80
  268.01        2976.25           2516        1783.00      7770.58
  268.04        2976.50           2520        1735.00      7561.23
  268.07        2976.75           2523        1703.00      7421.66
  268.10        2977.00           2527        1680.00      7321.35
  268.13        2977.25           2530        1711.00      7456.55
  268.16        2977.50           2534        1700.00      7408.58
  268.19        2977.75           2537        1660.00      7234.12
  268.22        2978.00           2541        1663.00      7247.21
  268.25        2978.25           2544        1669.00      7273.38
  268.28        2978.50           2548        1624.00      7077.12
  268.32        2978.75           2552        1581.00      6889.58
  268.35        2979.00           2555        1613.00      7029.14
  268.38        2979.25           2559        1605.00      6994.25
  268.41        2979.50           2562        1554.00      6771.83
  268.44        2979.75           2566        1593.00      6941.92
  268.47        2980.00           2569        1565.00      6819.80
  268.50        2980.25           2573        1549.00      6750.02
  268.53        2980.50           2577        1538.00      6702.05
  268.56        2980.75           2580        1527.00      6654.08
  268.59        2981.00           2584        1567.00      6828.53
  268.62        2981.25           2587        1569.00      6837.25
  268.65        2981.50           2591        1494.00      6510.16
  268.68        2981.75           2594        1515.00      6601.74
  268.71        2982.00           2598        1526.00      6649.72
  268.74        2982.25           2601        1505.00      6558.13
  268.77        2982.50           2605        1498.00      6527.60
  268.81        2982.75           2609        1481.00      6453.47
  268.84        2983.00           2612        1449.00      6313.91
  268.87        2983.25           2616        1462.00      6370.60
  268.90        2983.50           2619        1503.00      6549.41
  268.93        2983.75           2623        1469.00      6401.13
  268.96        2984.00           2626        1470.00      6405.49
HS scan finished at 04:29:11
end
************************************************************
  HS Scan of (1) Internal mercury lamp
************************************************************
Integration time is 0.2294 seconds per sample
dh071118Reading 51.44 .94 3.15pr1000
************************************************************
Dead Time -------------------------  3.4E-08 
Number of Cycles Used -------------  4 
Starting Wavelength (Angstroms) ---  2950 
Final Wavelength (Angstoms) -------  2984 
Wavelength Increment (Angstroms) --  .25 
Filter Wheel #1 Position ---------- (1) Ground quartz diffuser (ND=2.32)
Filter Wheel #2 Position ---------- (1) Neutral Density 0.494



************************************************************
HS scan start time = 17:07:27
Dark Count =  1.2 


Time (GMT)  Wavelength (Ang)  Step Number  Raw Counts  Counts/Second

 1028.35        2950.00           2144        1556.00      6779.24
 1028.54        2950.25           2147        1509.00      6574.27
 1028.57        2950.50           2151        1518.00      6613.52
 1028.60        2950.75           2155        1475.00      6425.99
 1028.63        2951.00           2158        1491.00      6495.77
 1028.66        2951.25           2162        1540.00      6709.47
 1028.69        2951.50           2165        1490.00      6491.41
 1028.72        2951.75           2169        1544.00      6726.91
 1028.75        2952.00           2172        1539.00      6705.10
 1028.78        2952.25           2176        1526.00      6648.41
 1028.81        2952.50           2179        1559.00      6792.33
 1028.84        2952.75           2183        1519.00      6617.88
 1028.87        2953.00           2186        1549.00      6748.72
 1028.91        2953.25           2190        1563.00      6809.77
 1028.94        2953.50           2193        1559.00      6792.33
 1028.97        2953.75           2197        1571.00      6844.66
 1029.00        2954.00           2200        1577.00      6870.83
 1029.03        2954.25           2204        1554.00      6770.52
 1029.06        2954.50           2208        1603.00      6984.22
 1029.09        2954.75           2211        1572.00      6849.02
 1029.12        2955.00           2215        1574.00      6857.75
 1029.15        2955.25           2218        1573.00      6853.38
 1029.18        2955.50           2222        1625.00      7080.17
 1029.21        2955.75           2225        1609.00      7010.39
 1029.24        2956.00           2229        1640.00      7145.59
 1029.27        2956.25           2232        1613.00      7027.84
 1029.30        2956.50           2236        1670.00      7276.43
 1029.33        2956.75           2239        1659.00      7228.46
 1029.36        2957.00           2243        1701.00      7411.63
 1029.39        2957.25           2246        1681.00      7324.40
 1029.43        2957.50           2250        1638.00      7136.87
 1029.46        2957.75           2254        1712.00      7459.61
 1029.49        2958.00           2257        1701.00      7411.63
 1029.52        2958.25           2261        1707.00      7437.80
 1029.55        2958.50           2264        1766.00      7695.13
 1029.58        2958.75           2268        1818.00      7921.93
 1029.61        2959.00           2271        1752.00      7634.07
 1029.64        2959.25           2275        1800.00      7843.42
 1029.67        2959.50           2278        1791.00      7804.16
 1029.70        2959.75           2282        1871.00      8153.09
 1029.73        2960.00           2285        1878.00      8183.62
 1029.76        2960.25           2289        1906.00      8305.75
 1029.79        2960.50           2293        1911.00      8327.55
 1029.82        2960.75           2296        1940.00      8454.04
 1029.85        2961.00           2300        2050.00      8933.84
 1029.88        2961.25           2303        2213.00      9644.84
 1029.91        2961.50           2307        4756.00     20741.74
 1029.94        2961.75           2310       12467.00     54441.57
 1029.98        2962.00           2314       28185.00    123375.20
 1030.01        2962.25           2317       42512.00    186491.80
 1030.04        2962.50           2321       64015.00    281734.70
 1030.07        2962.75           2324       81144.00    358049.90
 1030.10        2963.00           2328      103557.00    458512.70
 1030.13        2963.25           2331      119300.00    529494.20
 1030.16        2963.50           2335      143292.00    638337.80
 1030.19        2963.75           2339      168173.00    752081.70
 1030.22        2964.00           2342      187203.00    839683.10
 1030.25        2964.25           2346      210784.00    948974.00
 1030.28        2964.50           2349      228768.00   1032883.00
 1030.31        2964.75           2353      250278.00   1133888.00
 1030.34        2965.00           2356      267205.00   1213873.00
 1030.37        2965.25           2360      290539.00   1324867.00
 1030.40        2965.50           2363      306506.00   1401315.00
 1030.43        2965.75           2367      326925.00   1499676.00
 1030.46        2966.00           2370      340361.00   1564769.00
 1030.50        2966.25           2374      359997.00   1660436.00
 1030.53        2966.50           2378      377858.00   1748015.00
 1030.56        2966.75           2381      383805.00   1777295.00
 1030.59        2967.00           2385      385423.00   1785271.00
 1030.62        2967.25           2388      385767.00   1786968.00
 1030.65        2967.50           2392      386205.00   1789128.00
 1030.68        2967.75           2395      385974.00   1787989.00
 1030.71        2968.00           2399      381360.00   1765250.00
 1030.74        2968.25           2402      371848.00   1718485.00
 1030.77        2968.50           2406      353895.00   1630638.00
 1030.80        2968.75           2409      340818.00   1566989.00
 1030.83        2969.00           2413      319637.00   1464491.00
 1030.86        2969.25           2417      299025.00   1365446.00
 1030.89        2969.50           2420      283896.00   1293181.00
 1030.92        2969.75           2424      260985.00   1184430.00
 1030.95        2970.00           2427      242568.00   1097603.00
 1030.99        2970.25           2431      217887.00    982056.80
 1031.02        2970.50           2434      201589.00    906259.70
 1031.05        2970.75           2438      178694.00    800448.00
 1031.08        2971.00           2441      163870.00    732346.70
 1031.11        2971.25           2445      142652.00    635423.80
 1031.14        2971.50           2449      119329.00    529625.30
 1031.17        2971.75           2452      100471.00    444639.20
 1031.20        2972.00           2456       76379.00    336780.30
 1031.23        2972.25           2459       59730.00    262705.70
 1031.26        2972.50           2463       39608.00    173676.40
 1031.29        2972.75           2466       25241.00    110439.20
 1031.32        2973.00           2470        9371.00     40901.65
 1031.35        2973.25           2473        3994.00     17415.72
 1031.38        2973.50           2477        2278.00      9928.37
 1031.41        2973.75           2481        2054.00      8951.29
 1031.45        2974.00           2484        1971.00      8589.26
 1031.48        2974.25           2488        1951.00      8502.02
 1031.51        2974.50           2491        1933.00      8423.51
 1031.54        2974.75           2495        1904.00      8297.02
 1031.57        2975.00           2498        1866.00      8131.28
 1031.60        2975.25           2502        1826.00      7956.82
 1031.63        2975.50           2505        1810.00      7887.03
 1031.66        2975.75           2509        1778.00      7747.46
 1031.69        2976.00           2512        1779.00      7751.82
 1031.73        2976.25           2516        1739.00      7577.37
 1031.76        2976.50           2520        1788.00      7791.08
 1031.79        2976.75           2523        1717.00      7481.42
 1031.82        2977.00           2527        1668.00      7267.71
 1031.85        2977.25           2530        1699.00      7402.91
 1031.88        2977.50           2534        1655.00      7211.01
 1031.91        2977.75           2537        1604.00      6988.58
 1031.94        2978.00           2541        1637.00      7132.51
 1031.97        2978.25           2544        1639.00      7141.23
 1032.00        2978.50           2548        1612.00      7023.47
 1032.03        2978.75           2552        1612.00      7023.47
 1032.06        2979.00           2555        1558.00      6787.97
 1032.09        2979.25           2559        1562.00      6805.41
 1032.12        2979.50           2562        1549.00      6748.72
 1032.15        2979.75           2566        1565.00      6818.49
 1032.18        2980.00           2569        1572.00      6849.02
 1032.21        2980.25           2573        1547.00      6739.99
 1032.25        2980.50           2577        1531.00      6670.21
 1032.28        2980.75           2580        1508.00      6569.91
 1032.31        2981.00           2584        1506.00      6561.19
 1032.34        2981.25           2587        1512.00      6587.35
 1032.37        2981.50           2591        1529.00      6661.49
 1032.40        2981.75           2594        1503.00      6548.10
 1032.43        2982.00           2598        1538.00      6700.74
 1032.46        2982.25           2601        1506.00      6561.19
 1032.49        2982.50           2605        1480.00      6447.80
 1032.52        2982.75           2609        1411.00      6146.88
 1032.55        2983.00           2612        1452.00      6325.68
 1032.58        2983.25           2616        1454.00      6334.41
 1032.61        2983.50           2619        1431.00      6234.10
 1032.64        2983.75           2623        1443.00      6286.44
 1032.67        2984.00           2626        1444.00      6290.80
HS scan finished at 17:12:54
end
