************************************************************
  HS Scan of (1) Internal mercury lamp
************************************************************
Integration time is 0.2294 seconds per sample
dh141117Reading 51.44 .94 2.86pr1000
************************************************************
Dead Time -------------------------  3.4E-08 
Number of Cycles Used -------------  4 
Starting Wavelength (Angstroms) ---  2950 
Final Wavelength (Angstoms) -------  2984 
Wavelength Increment (Angstroms) --  .25 
Filter Wheel #1 Position ---------- (1) Ground quartz diffuser (ND=2.32)
Filter Wheel #2 Position ---------- (1) Neutral Density 0.494



************************************************************
HS scan start time = 04:34:42
Dark Count =  .6 


Time (GMT)  Wavelength (Ang)  Step Number  Raw Counts  Counts/Second

  275.59        2950.00           2144         110.00       476.90
  275.78        2950.25           2147         115.00       498.70
  275.82        2950.50           2151         107.00       463.83
  275.85        2950.75           2155         132.00       572.81
  275.88        2951.00           2158         103.00       446.39
  275.91        2951.25           2162         130.00       564.09
  275.94        2951.50           2165         110.00       476.90
  275.97        2951.75           2169         119.00       516.14
  276.00        2952.00           2172         107.00       463.83
  276.03        2952.25           2176         111.00       481.26
  276.06        2952.50           2179         111.00       481.26
  276.09        2952.75           2183         117.00       507.42
  276.12        2953.00           2186         132.00       572.81
  276.15        2953.25           2190         109.00       472.54
  276.18        2953.50           2193         149.00       646.92
  276.21        2953.75           2197         126.00       546.65
  276.24        2954.00           2200         135.00       585.89
  276.27        2954.25           2204         131.00       568.45
  276.30        2954.50           2208         116.00       503.06
  276.34        2954.75           2211         117.00       507.42
  276.37        2955.00           2215         150.00       651.28
  276.40        2955.25           2218         121.00       524.86
  276.43        2955.50           2222         139.00       603.33
  276.46        2955.75           2225         148.00       642.56
  276.49        2956.00           2229         112.00       485.62
  276.52        2956.25           2232         139.00       603.33
  276.55        2956.50           2236         148.00       642.56
  276.58        2956.75           2239         156.00       677.43
  276.61        2957.00           2243         132.00       572.81
  276.64        2957.25           2246         153.00       664.36
  276.67        2957.50           2250         129.00       559.73
  276.70        2957.75           2254         132.00       572.81
  276.73        2958.00           2257         145.00       629.48
  276.76        2958.25           2261         155.00       673.08
  276.79        2958.50           2264         141.00       612.04
  276.82        2958.75           2268         132.00       572.81
  276.86        2959.00           2271         139.00       603.33
  276.89        2959.25           2275         130.00       564.09
  276.92        2959.50           2278         135.00       585.89
  276.95        2959.75           2282         139.00       603.33
  276.98        2960.00           2285         149.00       646.92
  277.01        2960.25           2289         155.00       673.08
  277.04        2960.50           2293         153.00       664.36
  277.07        2960.75           2296         167.00       725.39
  277.10        2961.00           2300         183.00       795.14
  277.13        2961.25           2303         286.00      1244.17
  277.16        2961.50           2307        1038.00      4522.93
  277.19        2961.75           2310        2002.00      8727.09
  277.22        2962.00           2314        3717.00     16209.45
  277.25        2962.25           2317        5268.00     22979.59
  277.28        2962.50           2321        7415.00     32356.42
  277.31        2962.75           2324        8852.00     38635.73
  277.34        2963.00           2328       10895.00     47567.72
  277.38        2963.25           2331       12312.00     53766.03
  277.41        2963.50           2335       14858.00     64909.44
  277.44        2963.75           2339       16820.00     73502.56
  277.47        2964.00           2342       18413.00     80483.23
  277.50        2964.25           2346       20637.00     90234.57
  277.53        2964.50           2349       22253.00     97324.13
  277.56        2964.75           2353       24532.00    107328.20
  277.59        2965.00           2356       26357.00    115344.20
  277.62        2965.25           2360       28625.00    125312.20
  277.65        2965.50           2363       30023.00    131459.90
  277.68        2965.75           2367       32037.00    140320.90
  277.71        2966.00           2370       33615.00    147267.40
  277.74        2966.25           2374       35373.00    155010.10
  277.77        2966.50           2378       36427.00    159654.20
  277.80        2966.75           2381       36795.00    161276.00
  277.83        2967.00           2385       36598.00    160407.80
  277.86        2967.25           2388       36760.00    161121.70
  277.90        2967.50           2392       36704.00    160874.90
  277.93        2967.75           2395       36365.00    159381.00
  277.96        2968.00           2399       35141.00    153988.10
  277.99        2968.25           2402       33625.00    147311.40
  278.02        2968.50           2406       31477.00    137856.50
  278.05        2968.75           2409       30272.00    132555.10
  278.08        2969.00           2413       28303.00    123896.60
  278.11        2969.25           2417       26136.00    114373.30
  278.14        2969.50           2420       24577.00    107525.80
  278.17        2969.75           2424       22711.00     99334.05
  278.20        2970.00           2427       20845.00     91146.90
  278.23        2970.25           2431       18462.00     80698.01
  278.26        2970.50           2434       16907.00     73883.71
  278.29        2970.75           2438       14819.00     64738.69
  278.32        2971.00           2441       13270.00     57958.05
  278.35        2971.25           2445       11084.00     48394.30
  278.38        2971.50           2449        8776.00     38303.56
  278.42        2971.75           2452        7086.00     30919.15
  278.45        2972.00           2456        5143.00     22433.85
  278.48        2972.25           2459        3710.00     16178.91
  278.51        2972.50           2463        2026.00      8831.77
  278.54        2972.75           2466         905.00      3942.99
  278.57        2973.00           2470         292.00      1270.33
  278.60        2973.25           2473         194.00       843.09
  278.63        2973.50           2477         164.00       712.31
  278.66        2973.75           2481         156.00       677.43
  278.69        2974.00           2484         157.00       681.79
  278.72        2974.25           2488         142.00       616.40
  278.75        2974.50           2491         150.00       651.28
  278.78        2974.75           2495         153.00       664.36
  278.81        2975.00           2498         159.00       690.51
  278.84        2975.25           2502         143.00       620.76
  278.87        2975.50           2505         155.00       673.08
  278.90        2975.75           2509         151.00       655.64
  278.94        2976.00           2512         143.00       620.76
  278.97        2976.25           2516         131.00       568.45
  279.00        2976.50           2520         144.00       625.12
  279.03        2976.75           2523         141.00       612.04
  279.06        2977.00           2527         149.00       646.92
  279.09        2977.25           2530         148.00       642.56
  279.12        2977.50           2534         116.00       503.06
  279.15        2977.75           2537         130.00       564.09
  279.18        2978.00           2541         154.00       668.72
  279.21        2978.25           2544         141.00       612.04
  279.24        2978.50           2548         157.00       681.79
  279.27        2978.75           2552         119.00       516.14
  279.30        2979.00           2555         139.00       603.33
  279.33        2979.25           2559         145.00       629.48
  279.36        2979.50           2562         136.00       590.25
  279.39        2979.75           2566         126.00       546.65
  279.42        2980.00           2569         125.00       542.29
  279.46        2980.25           2573         105.00       455.11
  279.49        2980.50           2577         109.00       472.54
  279.52        2980.75           2580         143.00       620.76
  279.55        2981.00           2584         108.00       468.19
  279.58        2981.25           2587         127.00       551.01
  279.61        2981.50           2591         120.00       520.50
  279.64        2981.75           2594         110.00       476.90
  279.67        2982.00           2598         124.00       537.93
  279.70        2982.25           2601         114.00       494.34
  279.73        2982.50           2605         131.00       568.45
  279.76        2982.75           2609         104.00       450.75
  279.79        2983.00           2612         125.00       542.29
  279.82        2983.25           2616         102.00       442.03
  279.85        2983.50           2619         131.00       568.45
  279.88        2983.75           2623         106.00       459.47
  279.91        2984.00           2626         107.00       463.83
HS scan finished at 04:40:08
end
************************************************************
  HS Scan of (1) Internal mercury lamp
************************************************************
Integration time is 0.2294 seconds per sample
dh141117Reading 51.44 .94 3.15pr1000
************************************************************
Dead Time -------------------------  3.4E-08 
Number of Cycles Used -------------  4 
Starting Wavelength (Angstroms) ---  2950 
Final Wavelength (Angstoms) -------  2984 
Wavelength Increment (Angstroms) --  .25 
Filter Wheel #1 Position ---------- (1) Ground quartz diffuser (ND=2.32)
Filter Wheel #2 Position ---------- (1) Neutral Density 0.494



************************************************************
HS scan start time = 17:07:19
Dark Count =  1.4 


Time (GMT)  Wavelength (Ang)  Step Number  Raw Counts  Counts/Second

 1028.21        2950.00           2144          85.00       364.43
 1028.40        2950.25           2147          90.00       386.23
 1028.43        2950.50           2151          78.00       333.92
 1028.46        2950.75           2155          87.00       373.15
 1028.49        2951.00           2158          76.00       325.20
 1028.53        2951.25           2162          76.00       325.20
 1028.56        2951.50           2165          88.00       377.51
 1028.59        2951.75           2169         100.00       429.82
 1028.62        2952.00           2172          85.00       364.43
 1028.65        2952.25           2176          86.00       368.79
 1028.68        2952.50           2179          90.00       386.23
 1028.71        2952.75           2183          90.00       386.23
 1028.74        2953.00           2186          88.00       377.51
 1028.77        2953.25           2190          85.00       364.43
 1028.80        2953.50           2193          89.00       381.87
 1028.83        2953.75           2197          86.00       368.79
 1028.86        2954.00           2200          83.00       355.71
 1028.89        2954.25           2204          89.00       381.87
 1028.92        2954.50           2208          90.00       386.23
 1028.95        2954.75           2211          86.00       368.79
 1028.98        2955.00           2215          89.00       381.87
 1029.01        2955.25           2218          81.00       347.00
 1029.05        2955.50           2222          86.00       368.79
 1029.08        2955.75           2225          90.00       386.23
 1029.11        2956.00           2229          90.00       386.23
 1029.14        2956.25           2232          97.00       416.75
 1029.17        2956.50           2236          91.00       390.59
 1029.20        2956.75           2239          79.00       338.28
 1029.23        2957.00           2243          92.00       394.95
 1029.26        2957.25           2246          90.00       386.23
 1029.29        2957.50           2250          86.00       368.79
 1029.32        2957.75           2254          93.00       399.31
 1029.35        2958.00           2257         107.00       460.34
 1029.38        2958.25           2261         108.00       464.70
 1029.41        2958.50           2264          97.00       416.75
 1029.44        2958.75           2268         117.00       503.93
 1029.47        2959.00           2271          99.00       425.46
 1029.50        2959.25           2275         115.00       495.21
 1029.53        2959.50           2278         122.00       525.73
 1029.57        2959.75           2282         102.00       438.54
 1029.60        2960.00           2285         117.00       503.93
 1029.63        2960.25           2289         124.00       534.45
 1029.66        2960.50           2293         103.00       442.90
 1029.69        2960.75           2296         128.00       551.88
 1029.72        2961.00           2300         138.00       595.48
 1029.75        2961.25           2303         295.00      1279.92
 1029.78        2961.50           2307        1095.00      4767.99
 1029.81        2961.75           2310        1894.00      8252.53
 1029.84        2962.00           2314        3289.00     14338.29
 1029.87        2962.25           2317        4454.00     19422.59
 1029.90        2962.50           2321        6122.00     26705.15
 1029.93        2962.75           2324        7222.00     31509.77
 1029.96        2963.00           2328        8782.00     38326.28
 1029.99        2963.25           2331        9784.00     42706.26
 1030.02        2963.50           2335       11511.00     50258.44
 1030.05        2963.75           2339       13235.00     57801.37
 1030.09        2964.00           2342       14573.00     63658.12
 1030.12        2964.25           2346       16241.00     70962.65
 1030.15        2964.50           2349       17475.00     76368.93
 1030.18        2964.75           2353       18944.00     82807.35
 1030.21        2965.00           2356       20058.00     87691.75
 1030.24        2965.25           2360       21624.00     94560.72
 1030.27        2965.50           2363       22631.00     98979.44
 1030.30        2965.75           2367       24074.00    105313.70
 1030.33        2966.00           2370       25296.00    110679.90
 1030.36        2966.25           2374       26566.00    116259.00
 1030.39        2966.50           2378       27057.00    118416.50
 1030.42        2966.75           2381       27256.00    119291.00
 1030.45        2967.00           2385       27167.00    118899.90
 1030.48        2967.25           2388       26812.00    117339.90
 1030.51        2967.50           2392       26795.00    117265.20
 1030.54        2967.75           2395       26752.00    117076.30
 1030.57        2968.00           2399       25638.00    112182.10
 1030.61        2968.25           2402       24613.00    107680.40
 1030.64        2968.50           2406       22981.00    100515.60
 1030.67        2968.75           2409       21911.00     95819.94
 1030.70        2969.00           2413       20517.00     89704.74
 1030.73        2969.25           2417       19187.00     83872.66
 1030.76        2969.50           2420       18090.00     79064.04
 1030.79        2969.75           2424       16370.00     71527.71
 1030.82        2970.00           2427       15069.00     65829.83
 1030.85        2970.25           2431       13502.00     58969.90
 1030.88        2970.50           2434       12289.00     53661.90
 1030.91        2970.75           2438       11101.00     48465.15
 1030.94        2971.00           2441        9869.00     43077.87
 1030.97        2971.25           2445        8249.00     35996.95
 1031.00        2971.50           2449        6682.00     29150.94
 1031.03        2971.75           2452        5418.00     23631.01
 1031.06        2972.00           2456        3887.00     16947.86
 1031.09        2972.25           2459        2849.00     12418.50
 1031.13        2972.50           2463        1506.00      6560.31
 1031.16        2972.75           2466         708.00      3080.53
 1031.19        2973.00           2470         262.00      1136.05
 1031.22        2973.25           2473         154.00       665.23
 1031.25        2973.50           2477         137.00       591.12
 1031.28        2973.75           2481         123.00       530.09
 1031.31        2974.00           2484         143.00       617.28
 1031.34        2974.25           2488         125.00       538.81
 1031.37        2974.50           2491         139.00       599.84
 1031.40        2974.75           2495         105.00       451.62
 1031.43        2975.00           2498          97.00       416.75
 1031.46        2975.25           2502         101.00       434.18
 1031.49        2975.50           2505          94.00       403.67
 1031.52        2975.75           2509         113.00       486.49
 1031.55        2976.00           2512          91.00       390.59
 1031.58        2976.25           2516          93.00       399.31
 1031.61        2976.50           2520          98.00       421.10
 1031.64        2976.75           2523          90.00       386.23
 1031.68        2977.00           2527          94.00       403.67
 1031.71        2977.25           2530          95.00       408.03
 1031.74        2977.50           2534          95.00       408.03
 1031.77        2977.75           2537          89.00       381.87
 1031.80        2978.00           2541          92.00       394.95
 1031.83        2978.25           2544          81.00       347.00
 1031.86        2978.50           2548          84.00       360.07
 1031.89        2978.75           2552          86.00       368.79
 1031.92        2979.00           2555          79.00       338.28
 1031.95        2979.25           2559          83.00       355.71
 1031.98        2979.50           2562          81.00       347.00
 1032.01        2979.75           2566          84.00       360.07
 1032.04        2980.00           2569          88.00       377.51
 1032.07        2980.25           2573          81.00       347.00
 1032.10        2980.50           2577          78.00       333.92
 1032.13        2980.75           2580          81.00       347.00
 1032.17        2981.00           2584          86.00       368.79
 1032.20        2981.25           2587          80.00       342.64
 1032.23        2981.50           2591          71.00       303.40
 1032.26        2981.75           2594          97.00       416.75
 1032.29        2982.00           2598          76.00       325.20
 1032.32        2982.25           2601          78.00       333.92
 1032.36        2982.50           2605          75.00       320.84
 1032.39        2982.75           2609          75.00       320.84
 1032.42        2983.00           2612          77.00       329.56
 1032.45        2983.25           2616          76.00       325.20
 1032.48        2983.50           2619          80.00       342.64
 1032.51        2983.75           2623          75.00       320.84
 1032.54        2984.00           2626          74.00       316.48
HS scan finished at 17:12:46
end
