************************************************************
  HS Scan of (1) Internal mercury lamp
************************************************************
Integration time is 0.2294 seconds per sample
dh121117Reading 51.44 .94 2.76pr1000
************************************************************
Dead Time -------------------------  3.4E-08 
Number of Cycles Used -------------  4 
Starting Wavelength (Angstroms) ---  2950 
Final Wavelength (Angstoms) -------  2984 
Wavelength Increment (Angstroms) --  .25 
Filter Wheel #1 Position ---------- (1) Ground quartz diffuser (ND=2.32)
Filter Wheel #2 Position ---------- (1) Neutral Density 0.494



************************************************************
HS scan start time = 04:31:44
Dark Count =  .4 


Time (GMT)  Wavelength (Ang)  Step Number  Raw Counts  Counts/Second

  272.64        2950.00           2144          82.00       355.71
  272.83        2950.25           2147          77.00       333.92
  272.86        2950.50           2151          82.00       355.71
  272.89        2950.75           2155          75.00       325.20
  272.92        2951.00           2158          75.00       325.20
  272.95        2951.25           2162          75.00       325.20
  272.98        2951.50           2165          76.00       329.56
  273.01        2951.75           2169          79.00       342.64
  273.04        2952.00           2172          80.00       347.00
  273.07        2952.25           2176          81.00       351.36
  273.10        2952.50           2179          79.00       342.64
  273.13        2952.75           2183          78.00       338.28
  273.17        2953.00           2186          88.00       381.87
  273.20        2953.25           2190          84.00       364.43
  273.23        2953.50           2193          76.00       329.56
  273.26        2953.75           2197          81.00       351.36
  273.29        2954.00           2200          80.00       347.00
  273.32        2954.25           2204          86.00       373.15
  273.35        2954.50           2208          84.00       364.43
  273.38        2954.75           2211         128.00       556.24
  273.41        2955.00           2215         140.00       608.56
  273.44        2955.25           2218         142.00       617.28
  273.47        2955.50           2222         149.00       647.79
  273.50        2955.75           2225         144.00       625.99
  273.53        2956.00           2229         131.00       569.32
  273.56        2956.25           2232         153.00       665.23
  273.59        2956.50           2236         147.00       639.07
  273.62        2956.75           2239         137.00       595.48
  273.65        2957.00           2243         164.00       713.18
  273.69        2957.25           2246         138.00       599.84
  273.72        2957.50           2250         171.00       743.70
  273.75        2957.75           2254         180.00       782.93
  273.78        2958.00           2257         148.00       643.43
  273.81        2958.25           2261         131.00       569.32
  273.84        2958.50           2264         125.00       543.17
  273.87        2958.75           2268         162.00       704.46
  273.90        2959.00           2271         157.00       682.67
  273.93        2959.25           2275         147.00       639.07
  273.96        2959.50           2278         155.00       673.95
  273.99        2959.75           2282         137.00       595.48
  274.02        2960.00           2285         146.00       634.71
  274.05        2960.25           2289         152.00       660.87
  274.08        2960.50           2293         161.00       700.10
  274.11        2960.75           2296         163.00       708.82
  274.14        2961.00           2300         235.00      1022.70
  274.17        2961.25           2303         594.00      2587.85
  274.20        2961.50           2307        1916.00      8352.85
  274.24        2961.75           2310        3258.00     14207.39
  274.27        2962.00           2314        5077.00     22146.58
  274.30        2962.25           2317        6554.00     28596.23
  274.33        2962.50           2321        8516.00     37168.13
  274.36        2962.75           2324       10107.00     44122.82
  274.39        2963.00           2328       12319.00     53797.53
  274.42        2963.25           2331       14130.00     61723.12
  274.45        2963.50           2335       16397.00     71650.35
  274.48        2963.75           2339       18234.00     79699.55
  274.51        2964.00           2342       20016.00     87511.96
  274.54        2964.25           2346       21963.00     96052.49
  274.57        2964.50           2349       23645.00    103434.60
  274.60        2964.75           2353       25873.00    113218.80
  274.63        2965.00           2356       27509.00    120407.40
  274.66        2965.25           2360       29470.00    129028.60
  274.69        2965.50           2363       31036.00    135917.00
  274.72        2965.75           2367       33248.00    145652.40
  274.76        2966.00           2370       34585.00    151539.90
  274.79        2966.25           2374       36236.00    158813.40
  274.82        2966.50           2378       36985.00    162114.30
  274.85        2966.75           2381       37143.00    162810.70
  274.88        2967.00           2385       37247.00    163269.10
  274.91        2967.25           2388       37283.00    163427.80
  274.94        2967.50           2392       37296.00    163485.10
  274.97        2967.75           2395       36815.00    161365.00
  275.00        2968.00           2399       35858.00    157147.80
  275.03        2968.25           2402       34276.00    150179.00
  275.06        2968.50           2406       32268.00    141338.40
  275.09        2968.75           2409       30851.00    135103.10
  275.12        2969.00           2413       28926.00    126636.50
  275.15        2969.25           2417       26882.00    117651.90
  275.18        2969.50           2420       25052.00    109612.60
  275.21        2969.75           2424       22601.00     98852.18
  275.24        2970.00           2427       21158.00     92520.75
  275.28        2970.25           2431       18876.00     82513.65
  275.31        2970.50           2434       17058.00     74546.15
  275.34        2970.75           2438       14836.00     64813.99
  275.37        2971.00           2441       13215.00     57718.21
  275.40        2971.25           2445       10975.00     47918.46
  275.43        2971.50           2449        8547.00     37303.60
  275.46        2971.75           2452        6894.00     30081.32
  275.49        2972.00           2456        4865.00     21221.06
  275.52        2972.25           2459        3392.00     14792.09
  275.55        2972.50           2463        1722.00      7506.71
  275.58        2972.75           2466         799.00      3481.67
  275.61        2973.00           2470         280.00      1218.88
  275.64        2973.25           2473         194.00       843.96
  275.67        2973.50           2477         167.00       726.26
  275.70        2973.75           2481         163.00       708.82
  275.73        2974.00           2484         157.00       682.67
  275.76        2974.25           2488         158.00       687.03
  275.80        2974.50           2491         154.00       669.59
  275.83        2974.75           2495         165.00       717.54
  275.86        2975.00           2498         154.00       669.59
  275.89        2975.25           2502         153.00       665.23
  275.92        2975.50           2505         176.00       765.50
  275.95        2975.75           2509         145.00       630.35
  275.98        2976.00           2512         144.00       625.99
  276.01        2976.25           2516         157.00       682.67
  276.04        2976.50           2520         157.00       682.67
  276.07        2976.75           2523         125.00       543.17
  276.10        2977.00           2527         148.00       643.43
  276.13        2977.25           2530         131.00       569.32
  276.16        2977.50           2534         164.00       713.18
  276.19        2977.75           2537         169.00       734.98
  276.22        2978.00           2541         129.00       560.60
  276.25        2978.25           2544         141.00       612.92
  276.28        2978.50           2548         122.00       530.09
  276.32        2978.75           2552         113.00       490.85
  276.35        2979.00           2555         155.00       673.95
  276.38        2979.25           2559         130.00       564.96
  276.41        2979.50           2562         123.00       534.45
  276.44        2979.75           2566         130.00       564.96
  276.47        2980.00           2569         106.00       460.34
  276.50        2980.25           2573         128.00       556.24
  276.53        2980.50           2577         110.00       477.78
  276.56        2980.75           2580         117.00       508.29
  276.59        2981.00           2584         119.00       517.01
  276.62        2981.25           2587         102.00       442.90
  276.65        2981.50           2591         105.00       455.98
  276.68        2981.75           2594         123.00       534.45
  276.71        2982.00           2598         145.00       630.35
  276.74        2982.25           2601         123.00       534.45
  276.77        2982.50           2605         115.00       499.57
  276.80        2982.75           2609         106.00       460.34
  276.84        2983.00           2612         122.00       530.09
  276.87        2983.25           2616         124.00       538.81
  276.90        2983.50           2619         147.00       639.07
  276.93        2983.75           2623         123.00       534.45
  276.96        2984.00           2626          97.00       421.10
HS scan finished at 04:37:11
end
************************************************************
  HS Scan of (1) Internal mercury lamp
************************************************************
Integration time is 0.2294 seconds per sample
dh121117Reading 51.44 .94 2.72pr1000
************************************************************
Dead Time -------------------------  3.4E-08 
Number of Cycles Used -------------  4 
Starting Wavelength (Angstroms) ---  2950 
Final Wavelength (Angstoms) -------  2984 
Wavelength Increment (Angstroms) --  .25 
Filter Wheel #1 Position ---------- (1) Ground quartz diffuser (ND=2.32)
Filter Wheel #2 Position ---------- (1) Neutral Density 0.494



************************************************************
HS scan start time = 17:07:29
Dark Count =  .6 


Time (GMT)  Wavelength (Ang)  Step Number  Raw Counts  Counts/Second

 1028.38        2950.00           2144          72.00       311.25
 1028.57        2950.25           2147          83.00       359.20
 1028.60        2950.50           2151          71.00       306.89
 1028.63        2950.75           2155          79.00       341.77
 1028.66        2951.00           2158          82.00       354.84
 1028.69        2951.25           2162          87.00       376.64
 1028.72        2951.50           2165          82.00       354.84
 1028.75        2951.75           2169          74.00       319.97
 1028.79        2952.00           2172          71.00       306.89
 1028.82        2952.25           2176          79.00       341.77
 1028.85        2952.50           2179          76.00       328.69
 1028.88        2952.75           2183          78.00       337.41
 1028.91        2953.00           2186          81.00       350.48
 1028.94        2953.25           2190          83.00       359.20
 1028.97        2953.50           2193          78.00       337.41
 1029.00        2953.75           2197          78.00       337.41
 1029.03        2954.00           2200          76.00       328.69
 1029.06        2954.25           2204          78.00       337.41
 1029.09        2954.50           2208          82.00       354.84
 1029.12        2954.75           2211          83.00       359.20
 1029.15        2955.00           2215          86.00       372.28
 1029.18        2955.25           2218          85.00       367.92
 1029.21        2955.50           2222          82.00       354.84
 1029.24        2955.75           2225          81.00       350.48
 1029.27        2956.00           2229          91.00       394.08
 1029.30        2956.25           2232          90.00       389.72
 1029.34        2956.50           2236         101.00       437.67
 1029.37        2956.75           2239         104.00       450.75
 1029.40        2957.00           2243          83.00       359.20
 1029.43        2957.25           2246          93.00       402.80
 1029.46        2957.50           2250          85.00       367.92
 1029.49        2957.75           2254          90.00       389.72
 1029.52        2958.00           2257          90.00       389.72
 1029.55        2958.25           2261          88.00       381.00
 1029.58        2958.50           2264          86.00       372.28
 1029.61        2958.75           2268          94.00       407.15
 1029.64        2959.00           2271          90.00       389.72
 1029.67        2959.25           2275         100.00       433.31
 1029.70        2959.50           2278          93.00       402.80
 1029.73        2959.75           2282          98.00       424.59
 1029.76        2960.00           2285          98.00       424.59
 1029.79        2960.25           2289          97.00       420.23
 1029.82        2960.50           2293         103.00       446.39
 1029.86        2960.75           2296         125.00       542.29
 1029.89        2961.00           2300         186.00       808.22
 1029.92        2961.25           2303         216.00       939.00
 1029.95        2961.50           2307         820.00      3572.36
 1029.98        2961.75           2310        1772.00      7723.91
 1030.01        2962.00           2314        3004.00     13098.25
 1030.04        2962.25           2317        3912.00     17060.46
 1030.07        2962.50           2321        5285.00     23053.81
 1030.10        2962.75           2324        6367.00     27778.62
 1030.13        2963.00           2328        7586.00     33103.50
 1030.16        2963.25           2331        8549.00     37311.47
 1030.19        2963.50           2335        9821.00     42871.51
 1030.22        2963.75           2339       11054.00     48263.10
 1030.25        2964.00           2342       12068.00     52698.53
 1030.28        2964.25           2346       13467.00     58820.23
 1030.31        2964.50           2349       14370.00     62772.90
 1030.34        2964.75           2353       15408.00     67317.81
 1030.38        2965.00           2356       16618.00     72617.61
 1030.41        2965.25           2360       17498.00     76473.22
 1030.44        2965.50           2363       18351.00     80211.50
 1030.47        2965.75           2367       19696.00     86107.88
 1030.50        2966.00           2370       20546.00     89835.44
 1030.53        2966.25           2374       21389.00     93533.24
 1030.56        2966.50           2378       21865.00     95621.62
 1030.59        2966.75           2381       21944.00     95968.25
 1030.62        2967.00           2385       21711.00     94945.96
 1030.65        2967.25           2388       21670.00     94766.06
 1030.68        2967.50           2392       21397.00     93568.34
 1030.71        2967.75           2395       22880.00    100075.80
 1030.74        2968.00           2399       22115.00     96718.58
 1030.77        2968.25           2402       21037.00     91989.10
 1030.80        2968.50           2406       20023.00     87541.78
 1030.83        2968.75           2409       19021.00     83148.43
 1030.86        2969.00           2413       17762.00     77630.09
 1030.90        2969.25           2417       16389.00     71614.44
 1030.93        2969.50           2420       15344.00     67037.55
 1030.96        2969.75           2424       13988.00     61100.65
 1030.99        2970.00           2427       12941.00     56518.27
 1031.02        2970.25           2431       11579.00     50559.38
 1031.05        2970.50           2434       10524.00     45945.30
 1031.08        2970.75           2438        9266.00     40445.29
 1031.11        2971.00           2441        8351.00     36446.18
 1031.14        2971.25           2445        6978.00     30447.37
 1031.17        2971.50           2449        5545.00     24189.02
 1031.20        2971.75           2452        4459.00     19447.90
 1031.23        2972.00           2456        3191.00     13914.17
 1031.26        2972.25           2459        2461.00     10729.28
 1031.29        2972.50           2463        1384.00      6031.75
 1031.32        2972.75           2466         691.00      3009.90
 1031.35        2973.00           2470         192.00       834.37
 1031.38        2973.25           2473         144.00       625.12
 1031.42        2973.50           2477         124.00       537.93
 1031.45        2973.75           2481         120.00       520.50
 1031.48        2974.00           2484         124.00       537.93
 1031.51        2974.25           2488         107.00       463.83
 1031.54        2974.50           2491          99.00       428.95
 1031.57        2974.75           2495          95.00       411.51
 1031.60        2975.00           2498          87.00       376.64
 1031.63        2975.25           2502          90.00       389.72
 1031.66        2975.50           2505          84.00       363.56
 1031.70        2975.75           2509          89.00       385.36
 1031.73        2976.00           2512          91.00       394.08
 1031.76        2976.25           2516          92.00       398.44
 1031.79        2976.50           2520          87.00       376.64
 1031.82        2976.75           2523          83.00       359.20
 1031.85        2977.00           2527          80.00       346.12
 1031.88        2977.25           2530          78.00       337.41
 1031.91        2977.50           2534          88.00       381.00
 1031.94        2977.75           2537          80.00       346.12
 1031.97        2978.00           2541          71.00       306.89
 1032.00        2978.25           2544          83.00       359.20
 1032.03        2978.50           2548          83.00       359.20
 1032.06        2978.75           2552          84.00       363.56
 1032.09        2979.00           2555          86.00       372.28
 1032.13        2979.25           2559          77.00       333.05
 1032.16        2979.50           2562          77.00       333.05
 1032.19        2979.75           2566          79.00       341.77
 1032.22        2980.00           2569          81.00       350.48
 1032.25        2980.25           2573          80.00       346.12
 1032.28        2980.50           2577          77.00       333.05
 1032.31        2980.75           2580          81.00       350.48
 1032.34        2981.00           2584          76.00       328.69
 1032.37        2981.25           2587          77.00       333.05
 1032.40        2981.50           2591          70.00       302.53
 1032.43        2981.75           2594          75.00       324.33
 1032.46        2982.00           2598          79.00       341.77
 1032.49        2982.25           2601          78.00       337.41
 1032.52        2982.50           2605          75.00       324.33
 1032.55        2982.75           2609          66.00       285.09
 1032.58        2983.00           2612          72.00       311.25
 1032.61        2983.25           2616          71.00       306.89
 1032.65        2983.50           2619          67.00       289.45
 1032.68        2983.75           2623          69.00       298.17
 1032.71        2984.00           2626          75.00       324.33
HS scan finished at 17:12:56
end
