************************************************************
  HS Scan of (1) Internal mercury lamp
************************************************************
Integration time is 0.2294 seconds per sample
dh131117Reading 51.44 .94 2.39pr1000
************************************************************
Dead Time -------------------------  3.4E-08 
Number of Cycles Used -------------  4 
Starting Wavelength (Angstroms) ---  2950 
Final Wavelength (Angstoms) -------  2984 
Wavelength Increment (Angstroms) --  .25 
Filter Wheel #1 Position ---------- (1) Ground quartz diffuser (ND=2.32)
Filter Wheel #2 Position ---------- (1) Neutral Density 0.494



************************************************************
HS scan start time = 04:36:11
Dark Count =  .2 


Time (GMT)  Wavelength (Ang)  Step Number  Raw Counts  Counts/Second

  277.09        2950.00           2144          97.00       421.98
  277.28        2950.25           2147          85.00       369.66
  277.31        2950.50           2151          83.00       360.95
  277.34        2950.75           2155          94.00       408.90
  277.37        2951.00           2158         111.00       483.01
  277.40        2951.25           2162          90.00       391.46
  277.43        2951.50           2165          90.00       391.46
  277.46        2951.75           2169          90.00       391.46
  277.49        2952.00           2172          86.00       374.02
  277.52        2952.25           2176          87.00       378.38
  277.55        2952.50           2179          92.00       400.18
  277.58        2952.75           2183          91.00       395.82
  277.61        2953.00           2186          92.00       400.18
  277.65        2953.25           2190          87.00       378.38
  277.68        2953.50           2193         100.00       435.05
  277.71        2953.75           2197          90.00       391.46
  277.74        2954.00           2200          87.00       378.38
  277.77        2954.25           2204          91.00       395.82
  277.80        2954.50           2208          92.00       400.18
  277.83        2954.75           2211          92.00       400.18
  277.86        2955.00           2215          98.00       426.34
  277.89        2955.25           2218          86.00       374.02
  277.92        2955.50           2222          94.00       408.90
  277.95        2955.75           2225          94.00       408.90
  277.98        2956.00           2229          94.00       408.90
  278.01        2956.25           2232          83.00       360.95
  278.04        2956.50           2236          84.00       365.31
  278.07        2956.75           2239          98.00       426.34
  278.10        2957.00           2243         106.00       461.21
  278.13        2957.25           2246         103.00       448.13
  278.17        2957.50           2250         114.00       496.09
  278.20        2957.75           2254          94.00       408.90
  278.23        2958.00           2257          95.00       413.26
  278.26        2958.25           2261         102.00       443.77
  278.29        2958.50           2264         121.00       526.60
  278.32        2958.75           2268         121.00       526.60
  278.35        2959.00           2271         139.00       605.07
  278.38        2959.25           2275         107.00       465.57
  278.41        2959.50           2278         115.00       500.44
  278.44        2959.75           2282         125.00       544.04
  278.47        2960.00           2285         115.00       500.44
  278.50        2960.25           2289         136.00       591.99
  278.53        2960.50           2293         111.00       483.01
  278.56        2960.75           2296         123.00       535.32
  278.59        2961.00           2300         147.00       639.94
  278.62        2961.25           2303         304.00      1324.38
  278.65        2961.50           2307        1007.00      4389.50
  278.69        2961.75           2310        1742.00      7594.81
  278.72        2962.00           2314        2887.00     12589.52
  278.75        2962.25           2317        3815.00     16638.88
  278.78        2962.50           2321        5112.00     22300.25
  278.81        2962.75           2324        5984.00     26107.74
  278.84        2963.00           2328        7431.00     32428.06
  278.87        2963.25           2331        8638.00     37702.18
  278.90        2963.50           2335        9957.00     43467.86
  278.93        2963.75           2339       11064.00     48308.58
  278.96        2964.00           2342       12109.00     52879.65
  278.99        2964.25           2346       13495.00     58944.52
  279.02        2964.50           2349       14700.00     64219.41
  279.05        2964.75           2353       16014.00     69973.60
  279.08        2965.00           2356       16891.00     73815.38
  279.11        2965.25           2360       18238.00     79717.96
  279.14        2965.50           2363       19328.00     84496.11
  279.17        2965.75           2367       20486.00     89574.06
  279.21        2966.00           2370       21410.00     93627.13
  279.24        2966.25           2374       22479.00     98317.65
  279.27        2966.50           2378       23164.00    101324.10
  279.30        2966.75           2381       22854.00     99963.41
  279.33        2967.00           2385       22874.00    100051.20
  279.36        2967.25           2388       23343.00    102109.80
  279.39        2967.50           2392       23491.00    102759.50
  279.42        2967.75           2395       23432.00    102500.40
  279.45        2968.00           2399       22899.00    100160.90
  279.48        2968.25           2402       21815.00     95404.01
  279.51        2968.50           2406       20585.00     90008.26
  279.54        2968.75           2409       19434.00     84960.86
  279.57        2969.00           2413       17890.00     78192.79
  279.60        2969.25           2417       16672.00     72855.93
  279.63        2969.50           2420       15774.00     68922.44
  279.66        2969.75           2424       14356.00     62713.35
  279.69        2970.00           2427       13257.00     57902.90
  279.73        2970.25           2431       11699.00     51086.05
  279.76        2970.50           2434       10592.00     46244.41
  279.79        2970.75           2438        9370.00     40901.65
  279.82        2971.00           2441        8417.00     36736.35
  279.85        2971.25           2445        6799.00     29667.23
  279.88        2971.50           2449        5233.00     22828.52
  279.91        2971.75           2452        4441.00     19371.08
  279.94        2972.00           2456        3113.00     13575.58
  279.97        2972.25           2459        2265.00      9876.03
  280.00        2972.50           2463        1171.00      5104.64
  280.03        2972.75           2466         585.00      2549.48
  280.06        2973.00           2470         201.00       875.35
  280.09        2973.25           2473         159.00       692.26
  280.12        2973.50           2477         138.00       600.71
  280.15        2973.75           2481         132.00       574.55
  280.18        2974.00           2484         127.00       552.76
  280.21        2974.25           2488         112.00       487.37
  280.25        2974.50           2491         113.00       491.73
  280.28        2974.75           2495         124.00       539.68
  280.31        2975.00           2498         122.00       530.96
  280.34        2975.25           2502         124.00       539.68
  280.37        2975.50           2505         135.00       587.63
  280.40        2975.75           2509         138.00       600.71
  280.43        2976.00           2512         104.00       452.49
  280.46        2976.25           2516         104.00       452.49
  280.49        2976.50           2520         106.00       461.21
  280.52        2976.75           2523         101.00       439.41
  280.55        2977.00           2527         122.00       530.96
  280.58        2977.25           2530         114.00       496.09
  280.61        2977.50           2534         104.00       452.49
  280.64        2977.75           2537         113.00       491.73
  280.67        2978.00           2541          96.00       417.62
  280.70        2978.25           2544         118.00       513.52
  280.73        2978.50           2548          84.00       365.31
  280.77        2978.75           2552          94.00       408.90
  280.80        2979.00           2555         114.00       496.09
  280.83        2979.25           2559          94.00       408.90
  280.86        2979.50           2562          86.00       374.02
  280.89        2979.75           2566          85.00       369.66
  280.92        2980.00           2569          94.00       408.90
  280.95        2980.25           2573         111.00       483.01
  280.98        2980.50           2577          88.00       382.74
  281.01        2980.75           2580          90.00       391.46
  281.04        2981.00           2584          92.00       400.18
  281.07        2981.25           2587          89.00       387.10
  281.10        2981.50           2591          88.00       382.74
  281.13        2981.75           2594          93.00       404.54
  281.16        2982.00           2598          85.00       369.66
  281.19        2982.25           2601          95.00       413.26
  281.22        2982.50           2605          84.00       365.31
  281.25        2982.75           2609          83.00       360.95
  281.29        2983.00           2612          90.00       391.46
  281.32        2983.25           2616          79.00       343.51
  281.35        2983.50           2619          84.00       365.31
  281.38        2983.75           2623          87.00       378.38
  281.41        2984.00           2626          78.00       339.15
HS scan finished at 04:41:38
end
************************************************************
  HS Scan of (1) Internal mercury lamp
************************************************************
Integration time is 0.2294 seconds per sample
dh131117Reading 51.44 .94 2.96pr1000
************************************************************
Dead Time -------------------------  3.4E-08 
Number of Cycles Used -------------  4 
Starting Wavelength (Angstroms) ---  2950 
Final Wavelength (Angstoms) -------  2984 
Wavelength Increment (Angstroms) --  .25 
Filter Wheel #1 Position ---------- (1) Ground quartz diffuser (ND=2.32)
Filter Wheel #2 Position ---------- (1) Neutral Density 0.494



************************************************************
HS scan start time = 17:07:25
Dark Count =  1.2 


Time (GMT)  Wavelength (Ang)  Step Number  Raw Counts  Counts/Second

 1028.31        2950.00           2144          68.00       291.20
 1028.51        2950.25           2147          63.00       269.40
 1028.54        2950.50           2151          61.00       260.68
 1028.57        2950.75           2155          67.00       286.84
 1028.60        2951.00           2158          69.00       295.56
 1028.63        2951.25           2162          64.00       273.76
 1028.66        2951.50           2165          57.00       243.25
 1028.69        2951.75           2169          61.00       260.68
 1028.72        2952.00           2172          61.00       260.68
 1028.75        2952.25           2176          64.00       273.76
 1028.78        2952.50           2179          61.00       260.68
 1028.81        2952.75           2183          63.00       269.40
 1028.84        2953.00           2186          62.00       265.04
 1028.87        2953.25           2190          62.00       265.04
 1028.90        2953.50           2193          65.00       278.12
 1028.93        2953.75           2197          72.00       308.63
 1028.97        2954.00           2200          64.00       273.76
 1029.00        2954.25           2204          62.00       265.04
 1029.03        2954.50           2208          68.00       291.20
 1029.06        2954.75           2211          70.00       299.92
 1029.09        2955.00           2215          66.00       282.48
 1029.12        2955.25           2218          70.00       299.92
 1029.15        2955.50           2222          69.00       295.56
 1029.18        2955.75           2225          72.00       308.63
 1029.21        2956.00           2229          68.00       291.20
 1029.24        2956.25           2232          62.00       265.04
 1029.27        2956.50           2236          72.00       308.63
 1029.30        2956.75           2239          67.00       286.84
 1029.33        2957.00           2243          69.00       295.56
 1029.36        2957.25           2246          76.00       326.07
 1029.39        2957.50           2250          76.00       326.07
 1029.42        2957.75           2254          71.00       304.28
 1029.45        2958.00           2257          75.00       321.71
 1029.49        2958.25           2261          69.00       295.56
 1029.52        2958.50           2264          82.00       352.23
 1029.55        2958.75           2268          79.00       339.15
 1029.58        2959.00           2271          82.00       352.23
 1029.61        2959.25           2275          75.00       321.71
 1029.64        2959.50           2278          75.00       321.71
 1029.67        2959.75           2282          84.00       360.95
 1029.70        2960.00           2285          84.00       360.95
 1029.73        2960.25           2289          80.00       343.51
 1029.76        2960.50           2293          83.00       356.59
 1029.79        2960.75           2296          81.00       347.87
 1029.82        2961.00           2300         129.00       557.12
 1029.85        2961.25           2303         176.00       762.01
 1029.88        2961.50           2307         630.00      2741.32
 1029.91        2961.75           2310        1251.00      5449.14
 1029.94        2962.00           2314        2241.00      9766.97
 1029.97        2962.25           2317        2949.00     12855.66
 1030.01        2962.50           2321        3943.00     17193.14
 1030.04        2962.75           2324        4578.00     19964.72
 1030.07        2963.00           2328        5652.00     24653.61
 1030.10        2963.25           2331        6554.00     28592.74
 1030.13        2963.50           2335        7505.00     32746.99
 1030.16        2963.75           2339        8523.00     37195.22
 1030.19        2964.00           2342        9330.00     40722.43
 1030.22        2964.25           2346       10675.00     46602.99
 1030.25        2964.50           2349       11460.00     50036.23
 1030.28        2964.75           2353       12594.00     54997.26
 1030.31        2965.00           2356       13325.00     58196.12
 1030.34        2965.25           2360       14223.00     62126.74
 1030.37        2965.50           2363       15106.00     65992.72
 1030.40        2965.75           2367       15966.00     69758.99
 1030.43        2966.00           2370       16724.00     73079.35
 1030.46        2966.25           2374       17666.00     77206.77
 1030.49        2966.50           2378       18121.00     79200.79
 1030.53        2966.75           2381       18251.00     79770.55
 1030.56        2967.00           2385       18935.00     82768.78
 1030.59        2967.25           2388       18816.00     82247.13
 1030.62        2967.50           2392       18497.00     80848.80
 1030.65        2967.75           2395       18358.00     80239.54
 1030.68        2968.00           2399       17792.00     77758.93
 1030.71        2968.25           2402       16988.00     74235.97
 1030.74        2968.50           2406       15910.00     69513.71
 1030.77        2968.75           2409       15136.00     66124.09
 1030.80        2969.00           2413       14155.00     61829.06
 1030.83        2969.25           2417       13134.00     57360.24
 1030.86        2969.50           2420       12253.00     53505.27
 1030.89        2969.75           2424       11039.00     48194.86
 1030.92        2970.00           2427       10264.00     44805.78
 1030.95        2970.25           2431        9211.00     40202.26
 1030.98        2970.50           2434        8388.00     36605.26
 1031.01        2970.75           2438        7385.00     32222.73
 1031.04        2971.00           2441        6373.00     27802.21
 1031.08        2971.25           2445        5311.00     23164.71
 1031.11        2971.50           2449        4275.00     18642.15
 1031.14        2971.75           2452        3550.00     15478.07
 1031.17        2972.00           2456        2477.00     10796.47
 1031.20        2972.25           2459        1803.00      7856.50
 1031.23        2972.50           2463         926.00      4031.94
 1031.26        2972.75           2466         408.00      1773.43
 1031.29        2973.00           2470         196.00       849.20
 1031.32        2973.25           2473         143.00       618.15
 1031.35        2973.50           2477         138.00       596.35
 1031.38        2973.75           2481         129.00       557.12
 1031.41        2974.00           2484         126.00       544.04
 1031.44        2974.25           2488         163.00       705.34
 1031.47        2974.50           2491         134.00       578.91
 1031.50        2974.75           2495         132.00       570.19
 1031.53        2975.00           2498         128.00       552.76
 1031.57        2975.25           2502         131.00       565.83
 1031.60        2975.50           2505         112.00       483.01
 1031.63        2975.75           2509         125.00       539.68
 1031.66        2976.00           2512         114.00       491.73
 1031.69        2976.25           2516         123.00       530.96
 1031.72        2976.50           2520         133.00       574.55
 1031.75        2976.75           2523         108.00       465.57
 1031.78        2977.00           2527         103.00       443.77
 1031.81        2977.25           2530         127.00       548.40
 1031.84        2977.50           2534         100.00       430.70
 1031.87        2977.75           2537          99.00       426.34
 1031.90        2978.00           2541          93.00       400.18
 1031.93        2978.25           2544          99.00       426.34
 1031.96        2978.50           2548         105.00       452.49
 1031.99        2978.75           2552          96.00       413.26
 1032.02        2979.00           2555          99.00       426.34
 1032.05        2979.25           2559         104.00       448.13
 1032.09        2979.50           2562          93.00       400.18
 1032.12        2979.75           2566          90.00       387.10
 1032.15        2980.00           2569          87.00       374.02
 1032.18        2980.25           2573          87.00       374.02
 1032.21        2980.50           2577          93.00       400.18
 1032.24        2980.75           2580          93.00       400.18
 1032.27        2981.00           2584          97.00       417.62
 1032.30        2981.25           2587          85.00       365.31
 1032.33        2981.50           2591          80.00       343.51
 1032.36        2981.75           2594          82.00       352.23
 1032.39        2982.00           2598          92.00       395.82
 1032.42        2982.25           2601          79.00       339.15
 1032.45        2982.50           2605          84.00       360.95
 1032.48        2982.75           2609          90.00       387.10
 1032.51        2983.00           2612          88.00       378.38
 1032.54        2983.25           2616          86.00       369.66
 1032.57        2983.50           2619          88.00       378.38
 1032.60        2983.75           2623          84.00       360.95
 1032.64        2984.00           2626          87.00       374.02
HS scan finished at 17:12:52
end
