************************************************************
  HS Scan of (1) Internal mercury lamp
************************************************************
Integration time is 0.2294 seconds per sample
dh131118Reading 51.44 .94 2.76pr1000
************************************************************
Dead Time -------------------------  3.4E-08 
Number of Cycles Used -------------  4 
Starting Wavelength (Angstroms) ---  2950 
Final Wavelength (Angstoms) -------  2984 
Wavelength Increment (Angstroms) --  .25 
Filter Wheel #1 Position ---------- (1) Ground quartz diffuser (ND=2.32)
Filter Wheel #2 Position ---------- (1) Neutral Density 0.494



************************************************************
HS scan start time = 04:32:50
Dark Count =  .3 


Time (GMT)  Wavelength (Ang)  Step Number  Raw Counts  Counts/Second

  273.73        2950.00           2144        1601.00      6979.42
  273.92        2950.25           2147        1579.00      6883.48
  273.95        2950.50           2151        1592.00      6940.17
  273.98        2950.75           2155        1573.00      6857.31
  274.01        2951.00           2158        1577.00      6874.75
  274.04        2951.25           2162        1574.00      6861.67
  274.07        2951.50           2165        1583.00      6900.92
  274.10        2951.75           2169        1566.00      6826.78
  274.13        2952.00           2172        1608.00      7009.95
  274.16        2952.25           2176        1576.00      6870.39
  274.20        2952.50           2179        1617.00      7049.20
  274.23        2952.75           2183        1601.00      6979.42
  274.26        2953.00           2186        1593.00      6944.53
  274.29        2953.25           2190        1615.00      7040.48
  274.32        2953.50           2193        1577.00      6874.75
  274.35        2953.75           2197        1625.00      7084.09
  274.38        2954.00           2200        1628.00      7097.18
  274.41        2954.25           2204        1661.00      7241.10
  274.44        2954.50           2208        1639.00      7145.15
  274.47        2954.75           2211        1667.00      7267.27
  274.50        2955.00           2215        1685.00      7345.78
  274.53        2955.25           2218        1672.00      7289.08
  274.56        2955.50           2222        1690.00      7367.58
  274.59        2955.75           2225        1671.00      7284.72
  274.62        2956.00           2229        1689.00      7363.22
  274.65        2956.25           2232        1721.00      7502.79
  274.68        2956.50           2236        1694.00      7385.03
  274.71        2956.75           2239        1707.00      7441.73
  274.75        2957.00           2243        1731.00      7546.40
  274.78        2957.25           2246        1736.00      7568.21
  274.81        2957.50           2250        1725.00      7520.23
  274.84        2957.75           2254        1775.00      7738.30
  274.87        2958.00           2257        1787.00      7790.64
  274.90        2958.25           2261        1778.00      7751.39
  274.93        2958.50           2264        1825.00      7956.38
  274.96        2958.75           2268        1829.00      7973.83
  274.99        2959.00           2271        1834.00      7995.64
  275.02        2959.25           2275        1854.00      8082.87
  275.05        2959.50           2278        1865.00      8130.84
  275.08        2959.75           2282        1903.00      8296.59
  275.11        2960.00           2285        1910.00      8327.12
  275.14        2960.25           2289        1933.00      8427.44
  275.17        2960.50           2293        1961.00      8549.56
  275.20        2960.75           2296        1991.00      8680.42
  275.23        2961.00           2300        2110.00      9199.48
  275.27        2961.25           2303        2582.00     11258.45
  275.30        2961.50           2307        6763.00     29509.54
  275.33        2961.75           2310       15288.00     66793.63
  275.36        2962.00           2314       31290.00    137035.00
  275.39        2962.25           2317       46180.00    202698.60
  275.42        2962.50           2321       66474.00    292669.90
  275.45        2962.75           2324       80804.00    356535.30
  275.48        2963.00           2328      101167.00    447771.00
  275.51        2963.25           2331      118067.00    523926.50
  275.54        2963.50           2335      141473.00    630061.20
  275.57        2963.75           2339      164683.00    736077.50
  275.60        2964.00           2342      181160.00    811811.90
  275.63        2964.25           2346      201502.00    905860.40
  275.66        2964.50           2349      216240.00    974383.20
  275.70        2964.75           2353      238171.00   1076954.00
  275.73        2965.00           2356      254186.00   1152320.00
  275.76        2965.25           2360      274279.00   1247436.00
  275.79        2965.50           2363      289613.00   1320450.00
  275.82        2965.75           2367      309603.00   1416194.00
  275.86        2966.00           2370      323788.00   1484525.00
  275.89        2966.25           2374      341906.00   1572278.00
  275.92        2966.50           2378      357124.00   1646403.00
  275.95        2966.75           2381      363646.00   1678289.00
  275.98        2967.00           2385      366165.00   1690623.00
  276.01        2967.25           2388      366908.00   1694263.00
  276.04        2967.50           2392      367055.00   1694984.00
  276.07        2967.75           2395      366673.00   1693112.00
  276.10        2968.00           2399      363958.00   1679816.00
  276.13        2968.25           2402      357631.00   1648879.00
  276.16        2968.50           2406      341251.00   1569096.00
  276.19        2968.75           2409      325892.00   1494688.00
  276.22        2969.00           2413      302946.00   1384239.00
  276.25        2969.25           2417      280713.00   1278027.00
  276.28        2969.50           2420      264020.00   1198793.00
  276.31        2969.75           2424      243703.00   1102943.00
  276.34        2970.00           2427      228083.00   1029682.00
  276.37        2970.25           2431      205318.00    923571.40
  276.41        2970.50           2434      188388.00    845159.80
  276.44        2970.75           2438      165857.00    741460.50
  276.47        2971.00           2441      149394.00    666155.10
  276.50        2971.25           2445      129236.00    574475.90
  276.54        2971.50           2449      105774.00    468491.90
  276.57        2971.75           2452       89401.00    394984.30
  276.60        2972.00           2456       68634.00    302278.70
  276.63        2972.25           2459       52744.00    231739.00
  276.66        2972.50           2463       29901.00    130924.60
  276.69        2972.75           2466       16176.00     70682.75
  276.72        2973.00           2470        5777.00     25203.37
  276.75        2973.25           2473        3074.00     13404.98
  276.78        2973.50           2477        2178.00      9496.09
  276.81        2973.75           2481        2057.00      8968.30
  276.84        2974.00           2484        1992.00      8684.78
  276.87        2974.25           2488        1958.00      8536.48
  276.90        2974.50           2491        1910.00      8327.12
  276.93        2974.75           2495        1888.00      8231.16
  276.96        2975.00           2498        1865.00      8130.84
  276.99        2975.25           2502        1801.00      7851.70
  277.02        2975.50           2505        1790.00      7803.73
  277.05        2975.75           2509        1797.00      7834.26
  277.09        2976.00           2512        1772.00      7725.22
  277.12        2976.25           2516        1748.00      7620.55
  277.15        2976.50           2520        1752.00      7637.99
  277.18        2976.75           2523        1744.00      7603.10
  277.21        2977.00           2527        1751.00      7633.63
  277.24        2977.25           2530        1730.00      7542.04
  277.27        2977.50           2534        1675.00      7302.16
  277.30        2977.75           2537        1708.00      7446.09
  277.33        2978.00           2541        1634.00      7123.35
  277.36        2978.25           2544        1646.00      7175.68
  277.39        2978.50           2548        1655.00      7214.93
  277.42        2978.75           2552        1624.00      7079.73
  277.45        2979.00           2555        1635.00      7127.71
  277.48        2979.25           2559        1592.00      6940.17
  277.51        2979.50           2562        1622.00      7071.01
  277.54        2979.75           2566        1568.00      6835.50
  277.57        2980.00           2569        1601.00      6979.42
  277.61        2980.25           2573        1522.00      6634.89
  277.64        2980.50           2577        1562.00      6809.34
  277.67        2980.75           2580        1581.00      6892.20
  277.70        2981.00           2584        1507.00      6569.47
  277.73        2981.25           2587        1512.00      6591.28
  277.76        2981.50           2591        1575.00      6866.03
  277.79        2981.75           2594        1498.00      6530.22
  277.82        2982.00           2598        1505.00      6560.75
  277.85        2982.25           2601        1509.00      6578.19
  277.88        2982.50           2605        1490.00      6495.33
  277.91        2982.75           2609        1503.00      6552.03
  277.94        2983.00           2612        1453.00      6333.97
  277.97        2983.25           2616        1478.00      6443.00
  278.00        2983.50           2619        1512.00      6591.28
  278.03        2983.75           2623        1475.00      6429.91
  278.06        2984.00           2626        1476.00      6434.28
HS scan finished at 04:38:17
end
************************************************************
  HS Scan of (1) Internal mercury lamp
************************************************************
Integration time is 0.2294 seconds per sample
dh131118Reading 51.44 .94 3.21pr1000
************************************************************
Dead Time -------------------------  3.4E-08 
Number of Cycles Used -------------  4 
Starting Wavelength (Angstroms) ---  2950 
Final Wavelength (Angstoms) -------  2984 
Wavelength Increment (Angstroms) --  .25 
Filter Wheel #1 Position ---------- (1) Ground quartz diffuser (ND=2.32)
Filter Wheel #2 Position ---------- (1) Neutral Density 0.494



************************************************************
HS scan start time = 17:07:24
Dark Count =  1.3 


Time (GMT)  Wavelength (Ang)  Step Number  Raw Counts  Counts/Second

 1028.30        2950.00           2144        1122.00      4886.17
 1028.49        2950.25           2147        1106.00      4816.39
 1028.52        2950.50           2151        1113.00      4846.92
 1028.55        2950.75           2155        1177.00      5126.00
 1028.59        2951.00           2158        1127.00      4907.97
 1028.62        2951.25           2162        1142.00      4973.38
 1028.65        2951.50           2165        1122.00      4886.17
 1028.68        2951.75           2169        1151.00      5012.62
 1028.71        2952.00           2172        1144.00      4982.10
 1028.74        2952.25           2176        1159.00      5047.51
 1028.77        2952.50           2179        1147.00      4995.18
 1028.80        2952.75           2183        1138.00      4955.94
 1028.83        2953.00           2186        1130.00      4921.05
 1028.86        2953.25           2190        1165.00      5073.67
 1028.89        2953.50           2193        1179.00      5134.72
 1028.92        2953.75           2197        1144.00      4982.10
 1028.95        2954.00           2200        1165.00      5073.67
 1028.98        2954.25           2204        1187.00      5169.61
 1029.01        2954.50           2208        1157.00      5038.79
 1029.04        2954.75           2211        1170.00      5095.48
 1029.07        2955.00           2215        1164.00      5069.31
 1029.11        2955.25           2218        1210.00      5269.91
 1029.14        2955.50           2222        1156.00      5034.43
 1029.17        2955.75           2225        1209.00      5265.55
 1029.20        2956.00           2229        1232.00      5365.84
 1029.23        2956.25           2232        1234.00      5374.57
 1029.26        2956.50           2236        1236.00      5383.29
 1029.29        2956.75           2239        1263.00      5501.03
 1029.32        2957.00           2243        1271.00      5535.92
 1029.35        2957.25           2246        1237.00      5387.65
 1029.38        2957.50           2250        1276.00      5557.72
 1029.41        2957.75           2254        1254.00      5461.78
 1029.44        2958.00           2257        1300.00      5662.38
 1029.47        2958.25           2261        1262.00      5496.67
 1029.50        2958.50           2264        1296.00      5644.94
 1029.53        2958.75           2268        1330.00      5793.21
 1029.56        2959.00           2271        1335.00      5815.01
 1029.59        2959.25           2275        1344.00      5854.26
 1029.63        2959.50           2278        1399.00      6094.11
 1029.66        2959.75           2282        1383.00      6024.34
 1029.69        2960.00           2285        1361.00      5928.40
 1029.72        2960.25           2289        1420.00      6185.69
 1029.75        2960.50           2293        1461.00      6364.50
 1029.78        2960.75           2296        1451.00      6320.89
 1029.81        2961.00           2300        1536.00      6691.58
 1029.84        2961.25           2303        1682.00      7328.33
 1029.87        2961.50           2307        3705.00     16154.03
 1029.90        2961.75           2310        8780.00     38317.99
 1029.93        2962.00           2314       21345.00     93337.14
 1029.96        2962.25           2317       33461.00    146586.20
 1029.99        2962.50           2321       49792.00    218667.20
 1030.02        2962.75           2324       62117.00    273302.50
 1030.05        2963.00           2328       78636.00    346850.60
 1030.08        2963.25           2331       91831.00    405866.20
 1030.11        2963.50           2335      111442.00    494020.70
 1030.14        2963.75           2339      129474.00    575550.50
 1030.18        2964.00           2342      142625.00    635300.50
 1030.21        2964.25           2346      159536.00    712496.10
 1030.24        2964.50           2349      172471.00    771820.20
 1030.27        2964.75           2353      191131.00    857830.60
 1030.30        2965.00           2356      204764.00    920994.10
 1030.33        2965.25           2360      221320.00    998072.90
 1030.36        2965.50           2363      234045.00   1057597.00
 1030.39        2965.75           2367      249551.00   1130462.00
 1030.42        2966.00           2370      260689.00   1183030.00
 1030.45        2966.25           2374      276863.00   1259709.00
 1030.48        2966.50           2378      292357.00   1333550.00
 1030.51        2966.75           2381      298437.00   1362630.00
 1030.54        2967.00           2385      301261.00   1376157.00
 1030.57        2967.25           2388      301290.00   1376296.00
 1030.60        2967.50           2392      301670.00   1378117.00
 1030.63        2967.75           2395      301831.00   1378889.00
 1030.66        2968.00           2399      300044.00   1370326.00
 1030.70        2968.25           2402      296342.00   1352603.00
 1030.73        2968.50           2406      283980.00   1293580.00
 1030.76        2968.75           2409      272283.00   1237954.00
 1030.79        2969.00           2413      254428.00   1153457.00
 1030.82        2969.25           2417      237848.00   1075434.00
 1030.86        2969.50           2420      225022.00   1015365.00
 1030.89        2969.75           2424      206961.00    931198.90
 1030.92        2970.00           2427      193802.00    870183.90
 1030.95        2970.25           2431      173419.00    776177.60
 1030.98        2970.50           2434      158366.00    707142.10
 1031.01        2970.75           2438      140228.00    624391.60
 1031.04        2971.00           2441      125868.00    559209.80
 1031.07        2971.25           2445      108119.00    479045.80
 1031.10        2971.50           2449       91053.00    402379.80
 1031.13        2971.75           2452       79101.00    348926.30
 1031.16        2972.00           2456       60076.00    264240.90
 1031.19        2972.25           2459       45421.00    199339.90
 1031.22        2972.50           2463       27980.00    122473.60
 1031.25        2972.75           2466       16776.00     73306.72
 1031.28        2973.00           2470        6040.00     26347.48
 1031.31        2973.25           2473        2910.00     12685.07
 1031.34        2973.50           2477        1704.00      7424.28
 1031.37        2973.75           2481        1572.00      6848.59
 1031.41        2974.00           2484        1536.00      6691.58
 1031.44        2974.25           2488        1449.00      6312.17
 1031.47        2974.50           2491        1448.00      6307.80
 1031.50        2974.75           2495        1437.00      6259.83
 1031.53        2975.00           2498        1424.00      6203.14
 1031.56        2975.25           2502        1368.00      5958.92
 1031.59        2975.50           2505        1369.00      5963.28
 1031.62        2975.75           2509        1352.00      5889.15
 1031.65        2976.00           2512        1307.00      5692.91
 1031.68        2976.25           2516        1292.00      5627.49
 1031.71        2976.50           2520        1293.00      5631.85
 1031.74        2976.75           2523        1289.00      5614.41
 1031.77        2977.00           2527        1256.00      5470.50
 1031.80        2977.25           2530        1247.00      5431.26
 1031.83        2977.50           2534        1258.00      5479.22
 1031.86        2977.75           2537        1229.00      5352.76
 1031.89        2978.00           2541        1218.00      5304.79
 1031.93        2978.25           2544        1197.00      5213.22
 1031.96        2978.50           2548        1234.00      5374.57
 1031.99        2978.75           2552        1183.00      5152.17
 1032.02        2979.00           2555        1188.00      5173.97
 1032.05        2979.25           2559        1175.00      5117.28
 1032.08        2979.50           2562        1175.00      5117.28
 1032.11        2979.75           2566        1156.00      5034.43
 1032.14        2980.00           2569        1166.00      5078.03
 1032.17        2980.25           2573        1147.00      4995.18
 1032.20        2980.50           2577        1151.00      5012.62
 1032.23        2980.75           2580        1152.00      5016.98
 1032.26        2981.00           2584        1126.00      4903.61
 1032.29        2981.25           2587        1154.00      5025.71
 1032.32        2981.50           2591        1095.00      4768.43
 1032.35        2981.75           2594        1105.00      4812.03
 1032.38        2982.00           2598        1084.00      4720.46
 1032.41        2982.25           2601        1072.00      4668.13
 1032.45        2982.50           2605        1105.00      4812.03
 1032.48        2982.75           2609        1080.00      4703.02
 1032.51        2983.00           2612        1080.00      4703.02
 1032.54        2983.25           2616        1076.00      4685.58
 1032.57        2983.50           2619        1099.00      4785.87
 1032.61        2983.75           2623        1077.00      4689.94
 1032.64        2984.00           2626        1043.00      4541.68
HS scan finished at 17:12:51
end
