************************************************************
  HS Scan of (1) Internal mercury lamp
************************************************************
Integration time is 0.2294 seconds per sample
dh061118Reading 51.44 .94 3.01pr1000
************************************************************
Dead Time -------------------------  3.4E-08 
Number of Cycles Used -------------  4 
Starting Wavelength (Angstroms) ---  2950 
Final Wavelength (Angstoms) -------  2984 
Wavelength Increment (Angstroms) --  .25 
Filter Wheel #1 Position ---------- (1) Ground quartz diffuser (ND=2.32)
Filter Wheel #2 Position ---------- (1) Neutral Density 0.494



************************************************************
HS scan start time = 04:22:11
Dark Count =  .7 


Time (GMT)  Wavelength (Ang)  Step Number  Raw Counts  Counts/Second

  263.08        2950.00           2144        1571.00      6846.84
  263.28        2950.25           2147        1582.00      6894.82
  263.31        2950.50           2151        1541.00      6716.01
  263.34        2950.75           2155        1517.00      6611.34
  263.37        2951.00           2158        1567.00      6829.40
  263.40        2951.25           2162        1564.00      6816.31
  263.43        2951.50           2165        1575.00      6864.29
  263.46        2951.75           2169        1580.00      6886.09
  263.49        2952.00           2172        1571.00      6846.84
  263.52        2952.25           2176        1561.00      6803.23
  263.55        2952.50           2179        1578.00      6877.37
  263.58        2952.75           2183        1585.00      6907.90
  263.61        2953.00           2186        1602.00      6982.04
  263.64        2953.25           2190        1586.00      6912.26
  263.67        2953.50           2193        1591.00      6934.07
  263.70        2953.75           2197        1613.00      7030.01
  263.73        2954.00           2200        1652.00      7200.11
  263.77        2954.25           2204        1599.00      6968.96
  263.80        2954.50           2208        1630.00      7104.16
  263.83        2954.75           2211        1653.00      7204.47
  263.86        2955.00           2215        1662.00      7243.72
  263.89        2955.25           2218        1626.00      7086.71
  263.92        2955.50           2222        1645.00      7169.58
  263.95        2955.75           2225        1649.00      7187.02
  263.98        2956.00           2229        1668.00      7269.89
  264.01        2956.25           2232        1675.00      7300.42
  264.04        2956.50           2236        1690.00      7365.84
  264.07        2956.75           2239        1705.00      7431.26
  264.10        2957.00           2243        1760.00      7671.14
  264.13        2957.25           2246        1733.00      7553.38
  264.16        2957.50           2250        1798.00      7836.87
  264.19        2957.75           2254        1748.00      7618.80
  264.22        2958.00           2257        1784.00      7775.81
  264.25        2958.25           2261        1771.00      7719.11
  264.29        2958.50           2264        1811.00      7893.58
  264.32        2958.75           2268        1792.00      7810.71
  264.35        2959.00           2271        1817.00      7919.74
  264.38        2959.25           2275        1865.00      8129.10
  264.41        2959.50           2278        1878.00      8185.80
  264.44        2959.75           2282        1879.00      8190.16
  264.47        2960.00           2285        1896.00      8264.31
  264.50        2960.25           2289        1912.00      8334.10
  264.53        2960.50           2293        1966.00      8569.63
  264.56        2960.75           2296        2044.00      8909.85
  264.59        2961.00           2300        2075.00      9045.07
  264.62        2961.25           2303        2361.00     10292.62
  264.65        2961.50           2307        4686.00     20438.35
  264.68        2961.75           2310       12008.00     52435.60
  264.71        2962.00           2314       30175.00    132128.00
  264.74        2962.25           2317       45758.00    200831.80
  264.77        2962.50           2321       67467.00    297084.70
  264.81        2962.75           2324       83330.00    367820.20
  264.84        2963.00           2328      105518.00    467337.90
  264.87        2963.25           2331      123897.00    550288.60
  264.90        2963.50           2335      147895.00    659315.80
  264.93        2963.75           2339      168839.00    755140.80
  264.96        2964.00           2342      185981.00    834044.10
  264.99        2964.25           2346      210882.00    949432.20
  265.02        2964.50           2349      229817.00   1037795.00
  265.05        2964.75           2353      254281.00   1152766.00
  265.08        2965.00           2356      271197.00   1232804.00
  265.11        2965.25           2360      291004.00   1327090.00
  265.14        2965.50           2363      306502.00   1401298.00
  265.17        2965.75           2367      330493.00   1516935.00
  265.20        2966.00           2370      348662.00   1605136.00
  265.23        2966.25           2374      368896.00   1704006.00
  265.26        2966.50           2378      383881.00   1777672.00
  265.29        2966.75           2381      388401.00   1799967.00
  265.32        2967.00           2385      390494.00   1810302.00
  265.36        2967.25           2388      390569.00   1810673.00
  265.39        2967.50           2392      391244.00   1814008.00
  265.42        2967.75           2395      389900.00   1807368.00
  265.45        2968.00           2399      382531.00   1771020.00
  265.48        2968.25           2402      371433.00   1716451.00
  265.51        2968.50           2406      354189.00   1632075.00
  265.54        2968.75           2409      339607.00   1561111.00
  265.57        2969.00           2413      319262.00   1462685.00
  265.60        2969.25           2417      298870.00   1364706.00
  265.63        2969.50           2420      281467.00   1281614.00
  265.66        2969.75           2424      257524.00   1168076.00
  265.69        2970.00           2427      238637.00   1079140.00
  265.72        2970.25           2431      213788.00    962958.40
  265.75        2970.50           2434      197681.00    888146.00
  265.78        2970.75           2438      177816.00    796407.80
  265.81        2971.00           2441      160021.00    714718.90
  265.84        2971.25           2445      134657.00    599072.20
  265.88        2971.50           2449      109123.00    483571.30
  265.91        2971.75           2452       91114.00    402655.80
  265.94        2972.00           2456       69198.00    304786.90
  265.97        2972.25           2459       52982.00    232791.20
  266.00        2972.50           2463       30807.00    134908.20
  266.03        2972.75           2466       16213.00     70843.06
  266.06        2973.00           2470        5107.00     22276.24
  266.09        2973.25           2473        2726.00     11884.92
  266.12        2973.50           2477        2165.00      9437.64
  266.15        2973.75           2481        2068.00      9014.53
  266.18        2974.00           2484        2031.00      8853.14
  266.21        2974.25           2488        1939.00      8451.86
  266.24        2974.50           2491        1959.00      8539.10
  266.27        2974.75           2495        1899.00      8277.39
  266.30        2975.00           2498        1883.00      8207.61
  266.33        2975.25           2502        1877.00      8181.44
  266.36        2975.50           2505        1829.00      7972.08
  266.40        2975.75           2509        1833.00      7989.53
  266.43        2976.00           2512        1822.00      7941.55
  266.46        2976.25           2516        1771.00      7719.11
  266.49        2976.50           2520        1745.00      7605.72
  266.52        2976.75           2523        1754.00      7644.97
  266.55        2977.00           2527        1716.00      7479.23
  266.58        2977.25           2530        1714.00      7470.51
  266.61        2977.50           2534        1658.00      7226.27
  266.64        2977.75           2537        1680.00      7322.22
  266.67        2978.00           2541        1652.00      7200.11
  266.70        2978.25           2544        1649.00      7187.02
  266.73        2978.50           2548        1621.00      7064.91
  266.76        2978.75           2552        1608.00      7008.21
  266.79        2979.00           2555        1597.00      6960.23
  266.82        2979.25           2559        1577.00      6873.01
  266.85        2979.50           2562        1593.00      6942.79
  266.88        2979.75           2566        1625.00      7082.35
  266.92        2980.00           2569        1562.00      6807.59
  266.95        2980.25           2573        1562.00      6807.59
  266.98        2980.50           2577        1578.00      6877.37
  267.01        2980.75           2580        1546.00      6737.81
  267.04        2981.00           2584        1514.00      6598.25
  267.07        2981.25           2587        1503.00      6550.28
  267.10        2981.50           2591        1507.00      6567.73
  267.13        2981.75           2594        1505.00      6559.00
  267.16        2982.00           2598        1499.00      6532.84
  267.19        2982.25           2601        1491.00      6497.95
  267.22        2982.50           2605        1491.00      6497.95
  267.25        2982.75           2609        1497.00      6524.12
  267.28        2983.00           2612        1471.00      6410.73
  267.31        2983.25           2616        1462.00      6371.48
  267.34        2983.50           2619        1482.00      6458.70
  267.37        2983.75           2623        1502.00      6545.92
  267.41        2984.00           2626        1488.00      6484.87
HS scan finished at 04:27:38
end
************************************************************
  HS Scan of (1) Internal mercury lamp
************************************************************
Integration time is 0.2294 seconds per sample
dh061118Reading 51.44 .94 3.31pr1000
************************************************************
Dead Time -------------------------  3.4E-08 
Number of Cycles Used -------------  4 
Starting Wavelength (Angstroms) ---  2950 
Final Wavelength (Angstoms) -------  2984 
Wavelength Increment (Angstroms) --  .25 
Filter Wheel #1 Position ---------- (1) Ground quartz diffuser (ND=2.32)
Filter Wheel #2 Position ---------- (1) Neutral Density 0.494



************************************************************
HS scan start time = 17:37:21
Dark Count =  1.8 


Time (GMT)  Wavelength (Ang)  Step Number  Raw Counts  Counts/Second

 1058.24        2950.00           2144        1028.00      4474.09
 1058.44        2950.25           2147        1025.00      4461.01
 1058.47        2950.50           2151        1065.00      4635.43
 1058.50        2950.75           2155        1076.00      4683.40
 1058.53        2951.00           2158        1040.00      4526.42
 1058.56        2951.25           2162        1093.00      4757.53
 1058.59        2951.50           2165        1070.00      4657.23
 1058.62        2951.75           2169        1057.00      4600.55
 1058.65        2952.00           2172        1053.00      4583.10
 1058.68        2952.25           2176        1094.00      4761.89
 1058.71        2952.50           2179        1089.00      4740.08
 1058.74        2952.75           2183        1095.00      4766.25
 1058.77        2953.00           2186        1073.00      4670.31
 1058.80        2953.25           2190        1070.00      4657.23
 1058.83        2953.50           2193        1102.00      4796.77
 1058.86        2953.75           2197        1081.00      4705.20
 1058.89        2954.00           2200        1087.00      4731.36
 1058.93        2954.25           2204        1085.00      4722.64
 1058.96        2954.50           2208        1090.00      4744.44
 1058.99        2954.75           2211        1117.00      4862.18
 1059.02        2955.00           2215        1089.00      4740.08
 1059.05        2955.25           2218        1122.00      4883.98
 1059.08        2955.50           2222        1111.00      4836.02
 1059.11        2955.75           2225        1109.00      4827.30
 1059.14        2956.00           2229        1134.00      4936.31
 1059.17        2956.25           2232        1129.00      4914.51
 1059.20        2956.50           2236        1156.00      5032.25
 1059.23        2956.75           2239        1138.00      4953.76
 1059.26        2957.00           2243        1161.00      5054.05
 1059.29        2957.25           2246        1209.00      5263.37
 1059.32        2957.50           2250        1147.00      4993.00
 1059.35        2957.75           2254        1243.00      5411.63
 1059.38        2958.00           2257        1180.00      5136.90
 1059.41        2958.25           2261        1198.00      5215.40
 1059.44        2958.50           2264        1274.00      5546.82
 1059.48        2958.75           2268        1252.00      5450.88
 1059.51        2959.00           2271        1269.00      5525.01
 1059.54        2959.25           2275        1278.00      5564.26
 1059.57        2959.50           2278        1269.00      5525.01
 1059.60        2959.75           2282        1294.00      5634.03
 1059.63        2960.00           2285        1300.00      5660.20
 1059.66        2960.25           2289        1297.00      5647.12
 1059.69        2960.50           2293        1377.00      5995.99
 1059.72        2960.75           2296        1368.00      5956.74
 1059.75        2961.00           2300        1425.00      6205.32
 1059.78        2961.25           2303        1660.00      7230.20
 1059.81        2961.50           2307        4180.00     18224.89
 1059.84        2961.75           2310       10087.00     44029.24
 1059.87        2962.00           2314       22695.00     99258.56
 1059.90        2962.25           2317       34830.00    152612.90
 1059.93        2962.50           2321       51641.00    226848.40
 1059.96        2962.75           2324       63223.00    278213.00
 1060.00        2963.00           2328       78302.00    345357.60
 1060.03        2963.25           2331       90966.00    401987.80
 1060.06        2963.50           2335      110169.00    488280.00
 1060.09        2963.75           2339      128489.00    571082.90
 1060.12        2964.00           2342      142626.00    635302.70
 1060.15        2964.25           2346      157796.00    704532.10
 1060.18        2964.50           2349      170455.00    762555.90
 1060.21        2964.75           2353      188178.00    844182.80
 1060.24        2965.00           2356      201324.00    905027.90
 1060.27        2965.25           2360      217940.00    982301.20
 1060.30        2965.50           2363      229979.00   1038548.00
 1060.33        2965.75           2367      246748.00   1117261.00
 1060.36        2966.00           2370      258387.00   1172147.00
 1060.40        2966.25           2374      273334.00   1242941.00
 1060.43        2966.50           2378      283475.00   1291172.00
 1060.47        2966.75           2381      287466.00   1310198.00
 1060.50        2967.00           2385      289456.00   1319693.00
 1060.53        2967.25           2388      289434.00   1319588.00
 1060.56        2967.50           2392      289950.00   1322052.00
 1060.59        2967.75           2395      289277.00   1318839.00
 1060.62        2968.00           2399      285540.00   1301013.00
 1060.65        2968.25           2402      279270.00   1271153.00
 1060.68        2968.50           2406      265693.00   1206708.00
 1060.71        2968.75           2409      254242.00   1152577.00
 1060.74        2969.00           2413      238075.00   1076497.00
 1060.77        2969.25           2417      222740.00   1004701.00
 1060.80        2969.50           2420      211124.00    950553.10
 1060.83        2969.75           2424      195053.00    875971.20
 1060.86        2970.00           2427      183151.00    820983.10
 1060.89        2970.25           2431      165882.00    741568.30
 1060.92        2970.50           2434      153123.00    683171.40
 1060.95        2970.75           2438      133730.00    594858.00
 1060.99        2971.00           2441      120555.00    535164.90
 1061.02        2971.25           2445      102846.00    455312.50
 1061.05        2971.50           2449       85912.00    379361.30
 1061.08        2971.75           2452       74210.00    327106.10
 1061.11        2972.00           2456       58698.00    258123.80
 1061.14        2972.25           2459       46771.00    205304.30
 1061.17        2972.50           2463       29346.00    128477.20
 1061.20        2972.75           2466       16637.00     72695.58
 1061.23        2973.00           2470        5512.00     24039.70
 1061.26        2973.25           2473        2589.00     11282.45
 1061.29        2973.50           2477        1540.00      6706.85
 1061.32        2973.75           2481        1434.00      6244.57
 1061.35        2974.00           2484        1400.00      6096.29
 1061.38        2974.25           2488        1419.00      6179.15
 1061.41        2974.50           2491        1383.00      6022.16
 1061.44        2974.75           2495        1337.00      5821.55
 1061.47        2975.00           2498        1330.00      5791.03
 1061.50        2975.25           2502        1276.00      5555.54
 1061.54        2975.50           2505        1315.00      5725.61
 1061.57        2975.75           2509        1241.00      5402.91
 1061.60        2976.00           2512        1256.00      5468.32
 1061.63        2976.25           2516        1217.00      5298.25
 1061.66        2976.50           2520        1230.00      5354.94
 1061.69        2976.75           2523        1180.00      5136.90
 1061.72        2977.00           2527        1196.00      5206.68
 1061.75        2977.25           2530        1181.00      5141.26
 1061.78        2977.50           2534        1134.00      4936.31
 1061.81        2977.75           2537        1155.00      5027.89
 1061.84        2978.00           2541        1127.00      4905.79
 1061.87        2978.25           2544        1122.00      4883.98
 1061.90        2978.50           2548        1153.00      5019.17
 1061.93        2978.75           2552        1138.00      4953.76
 1061.96        2979.00           2555        1102.00      4796.77
 1061.99        2979.25           2559        1067.00      4644.15
 1062.02        2979.50           2562        1097.00      4774.97
 1062.06        2979.75           2566        1075.00      4679.04
 1062.09        2980.00           2569        1108.00      4822.94
 1062.12        2980.25           2573        1039.00      4522.06
 1062.15        2980.50           2577        1051.00      4574.38
 1062.18        2980.75           2580        1044.00      4543.86
 1062.21        2981.00           2584        1108.00      4822.94
 1062.24        2981.25           2587        1077.00      4687.76
 1062.27        2981.50           2591        1064.00      4631.07
 1062.30        2981.75           2594        1051.00      4574.38
 1062.33        2982.00           2598        1014.00      4413.04
 1062.36        2982.25           2601        1049.00      4565.66
 1062.39        2982.50           2605        1004.00      4369.44
 1062.42        2982.75           2609        1024.00      4456.65
 1062.45        2983.00           2612         991.00      4312.75
 1062.48        2983.25           2616        1030.00      4482.81
 1062.51        2983.50           2619         988.00      4299.67
 1062.54        2983.75           2623         997.00      4338.91
 1062.58        2984.00           2626        1016.00      4421.76
HS scan finished at 17:42:48
end
