************************************************************
  HS Scan of (1) Internal mercury lamp
************************************************************
Integration time is 0.2294 seconds per sample
dh111118Reading 51.44 .94 2.78pr1000
************************************************************
Dead Time -------------------------  3.4E-08 
Number of Cycles Used -------------  4 
Starting Wavelength (Angstroms) ---  2950 
Final Wavelength (Angstoms) -------  2984 
Wavelength Increment (Angstroms) --  .25 
Filter Wheel #1 Position ---------- (1) Ground quartz diffuser (ND=2.32)
Filter Wheel #2 Position ---------- (1) Neutral Density 0.494



************************************************************
HS scan start time = 04:29:52
Dark Count =  .6 


Time (GMT)  Wavelength (Ang)  Step Number  Raw Counts  Counts/Second

  270.77        2950.00           2144        1464.00      6380.64
  270.96        2950.25           2147        1497.00      6524.55
  270.99        2950.50           2151        1489.00      6489.66
  271.02        2950.75           2155        1524.00      6642.30
  271.06        2951.00           2158        1499.00      6533.27
  271.09        2951.25           2162        1491.00      6498.39
  271.12        2951.50           2165        1520.00      6624.86
  271.15        2951.75           2169        1538.00      6703.36
  271.18        2952.00           2172        1528.00      6659.75
  271.21        2952.25           2176        1534.00      6685.91
  271.24        2952.50           2179        1542.00      6720.80
  271.27        2952.75           2183        1523.00      6637.94
  271.30        2953.00           2186        1541.00      6716.44
  271.33        2953.25           2190        1575.00      6864.72
  271.36        2953.50           2193        1528.00      6659.75
  271.39        2953.75           2197        1538.00      6703.36
  271.42        2954.00           2200        1584.00      6903.97
  271.45        2954.25           2204        1577.00      6873.45
  271.48        2954.50           2208        1562.00      6808.03
  271.51        2954.75           2211        1552.00      6764.42
  271.55        2955.00           2215        1550.00      6755.69
  271.58        2955.25           2218        1611.00      7021.73
  271.61        2955.50           2222        1584.00      6903.97
  271.64        2955.75           2225        1630.00      7104.59
  271.67        2956.00           2229        1609.00      7013.01
  271.70        2956.25           2232        1653.00      7204.90
  271.73        2956.50           2236        1605.00      6995.56
  271.76        2956.75           2239        1651.00      7196.18
  271.79        2957.00           2243        1645.00      7170.01
  271.82        2957.25           2246        1679.00      7318.30
  271.85        2957.50           2250        1683.00      7335.75
  271.88        2957.75           2254        1717.00      7484.03
  271.91        2958.00           2257        1708.00      7444.78
  271.94        2958.25           2261        1741.00      7588.71
  271.97        2958.50           2264        1769.00      7710.83
  272.02        2958.75           2268        1733.00      7553.82
  272.05        2959.00           2271        1796.00      7828.59
  272.08        2959.25           2275        1752.00      7636.68
  272.11        2959.50           2278        1772.00      7723.91
  272.14        2959.75           2282        1835.00      7998.69
  272.17        2960.00           2285        1834.00      7994.33
  272.20        2960.25           2289        1858.00      8099.00
  272.23        2960.50           2293        1862.00      8116.45
  272.26        2960.75           2296        1952.00      8509.00
  272.29        2961.00           2300        2035.00      8871.03
  272.32        2961.25           2303        2391.00     10423.92
  272.36        2961.50           2307        6248.00     27258.91
  272.39        2961.75           2310       14419.00     62987.41
  272.42        2962.00           2314       30632.00    134138.70
  272.45        2962.25           2317       45202.00    198375.30
  272.48        2962.50           2321       64187.00    282501.70
  272.51        2962.75           2324       78417.00    345876.20
  272.54        2963.00           2328       98781.00    437049.70
  272.57        2963.25           2331      114828.00    509298.60
  272.60        2963.50           2335      137887.00    613748.80
  272.63        2963.75           2339      160011.00    714673.60
  272.66        2964.00           2342      175606.00    786238.10
  272.69        2964.25           2346      196392.00    882176.10
  272.72        2964.50           2349      212166.00    955407.60
  272.75        2964.75           2353      233312.00   1054165.00
  272.78        2965.00           2356      249646.00   1130913.00
  272.81        2965.25           2360      270343.00   1228753.00
  272.85        2965.50           2363      285405.00   1300375.00
  272.88        2965.75           2367      304545.00   1391907.00
  272.91        2966.00           2370      318779.00   1460357.00
  272.94        2966.25           2374      337479.00   1550785.00
  272.97        2966.50           2378      351958.00   1621195.00
  273.00        2966.75           2381      357619.00   1648819.00
  273.03        2967.00           2385      360155.00   1661211.00
  273.06        2967.25           2388      360331.00   1662072.00
  273.09        2967.50           2392      360090.00   1660893.00
  273.12        2967.75           2395      359852.00   1659730.00
  273.15        2968.00           2399      357055.00   1646064.00
  273.18        2968.25           2402      349510.00   1609266.00
  273.21        2968.50           2406      332426.00   1526294.00
  273.24        2968.75           2409      318339.00   1458236.00
  273.27        2969.00           2413      296455.00   1353147.00
  273.30        2969.25           2417      275364.00   1252589.00
  273.33        2969.50           2420      260176.00   1180608.00
  273.36        2969.75           2424      239029.00   1080981.00
  273.40        2970.00           2427      223033.00   1006075.00
  273.43        2970.25           2431      200458.00    901017.20
  273.46        2970.50           2434      183829.00    824115.60
  273.49        2970.75           2438      162442.00    725806.00
  273.52        2971.00           2441      145298.00    647478.20
  273.55        2971.25           2445      123748.00    549614.70
  273.58        2971.50           2449      102822.00    455210.00
  273.61        2971.75           2452       87990.00    388665.50
  273.64        2972.00           2456       67284.00    296271.10
  273.67        2972.25           2459       50523.00    221905.10
  273.70        2972.50           2463       28980.00    126873.10
  273.73        2972.75           2466       15635.00     68311.93
  273.76        2973.00           2470        5535.00     24145.36
  273.79        2973.25           2473        3090.00     13473.48
  273.82        2973.50           2477        2085.00      9089.12
  273.85        2973.75           2481        1906.00      8308.36
  273.88        2974.00           2484        1908.00      8317.09
  273.92        2974.25           2488        1869.00      8146.98
  273.95        2974.50           2491        1832.00      7985.60
  273.98        2974.75           2495        1854.00      8081.56
  274.01        2975.00           2498        1811.00      7894.01
  274.04        2975.25           2502        1789.00      7798.06
  274.07        2975.50           2505        1768.00      7706.47
  274.10        2975.75           2509        1692.00      7375.00
  274.13        2976.00           2512        1726.00      7523.28
  274.16        2976.25           2516        1689.00      7361.91
  274.19        2976.50           2520        1704.00      7427.33
  274.22        2976.75           2523        1689.00      7361.91
  274.25        2977.00           2527        1666.00      7261.60
  274.28        2977.25           2530        1651.00      7196.18
  274.31        2977.50           2534        1593.00      6943.23
  274.34        2977.75           2537        1619.00      7056.62
  274.37        2978.00           2541        1594.00      6947.59
  274.40        2978.25           2544        1564.00      6816.75
  274.44        2978.50           2548        1578.00      6877.81
  274.47        2978.75           2552        1518.00      6616.14
  274.50        2979.00           2555        1576.00      6869.08
  274.53        2979.25           2559        1530.00      6668.47
  274.56        2979.50           2562        1520.00      6624.86
  274.59        2979.75           2566        1571.00      6847.28
  274.62        2980.00           2569        1515.00      6603.05
  274.65        2980.25           2573        1510.00      6581.25
  274.68        2980.50           2577        1504.00      6555.08
  274.71        2980.75           2580        1470.00      6406.80
  274.74        2981.00           2584        1448.00      6310.86
  274.77        2981.25           2587        1485.00      6472.22
  274.80        2981.50           2591        1469.00      6402.44
  274.83        2981.75           2594        1456.00      6345.75
  274.86        2982.00           2598        1447.00      6306.50
  274.89        2982.25           2601        1422.00      6197.47
  274.92        2982.50           2605        1444.00      6293.41
  274.96        2982.75           2609        1424.00      6206.19
  274.99        2983.00           2612        1422.00      6197.47
  275.02        2983.25           2616        1441.00      6280.33
  275.05        2983.50           2619        1419.00      6184.39
  275.08        2983.75           2623        1407.00      6132.05
  275.11        2984.00           2626        1407.00      6132.05
HS scan finished at 04:35:20
end
************************************************************
  HS Scan of (1) Internal mercury lamp
************************************************************
Integration time is 0.2294 seconds per sample
dh111118Reading 51.44 .94 3.09pr1000
************************************************************
Dead Time -------------------------  3.4E-08 
Number of Cycles Used -------------  4 
Starting Wavelength (Angstroms) ---  2950 
Final Wavelength (Angstoms) -------  2984 
Wavelength Increment (Angstroms) --  .25 
Filter Wheel #1 Position ---------- (1) Ground quartz diffuser (ND=2.32)
Filter Wheel #2 Position ---------- (1) Neutral Density 0.494



************************************************************
HS scan start time = 17:07:20
Dark Count =  .9 


Time (GMT)  Wavelength (Ang)  Step Number  Raw Counts  Counts/Second

 1028.24        2950.00           2144        1106.00      4818.14
 1028.43        2950.25           2147        1098.00      4783.25
 1028.46        2950.50           2151        1153.00      5023.09
 1028.49        2950.75           2155        1097.00      4778.89
 1028.52        2951.00           2158        1128.00      4914.07
 1028.55        2951.25           2162        1111.00      4839.94
 1028.58        2951.50           2165        1117.00      4866.11
 1028.62        2951.75           2169        1132.00      4931.52
 1028.65        2952.00           2172        1105.00      4813.78
 1028.68        2952.25           2176        1128.00      4914.07
 1028.71        2952.50           2179        1115.00      4857.39
 1028.74        2952.75           2183        1169.00      5092.86
 1028.77        2953.00           2186        1146.00      4992.57
 1028.80        2953.25           2190        1146.00      4992.57
 1028.83        2953.50           2193        1127.00      4909.71
 1028.86        2953.75           2197        1120.00      4879.19
 1028.89        2954.00           2200        1168.00      5088.50
 1028.92        2954.25           2204        1163.00      5066.70
 1028.95        2954.50           2208        1169.00      5092.86
 1028.98        2954.75           2211        1146.00      4992.57
 1029.01        2955.00           2215        1168.00      5088.50
 1029.04        2955.25           2218        1185.00      5162.63
 1029.07        2955.50           2222        1188.00      5175.71
 1029.10        2955.75           2225        1177.00      5127.75
 1029.14        2956.00           2229        1185.00      5162.63
 1029.17        2956.25           2232        1170.00      5097.22
 1029.20        2956.50           2236        1193.00      5197.52
 1029.23        2956.75           2239        1213.00      5284.73
 1029.26        2957.00           2243        1222.00      5323.98
 1029.29        2957.25           2246        1208.00      5262.93
 1029.32        2957.50           2250        1214.00      5289.09
 1029.35        2957.75           2254        1264.00      5507.13
 1029.38        2958.00           2257        1239.00      5398.11
 1029.41        2958.25           2261        1281.00      5581.27
 1029.44        2958.50           2264        1309.00      5703.37
 1029.47        2958.75           2268        1302.00      5672.85
 1029.50        2959.00           2271        1306.00      5690.29
 1029.53        2959.25           2275        1339.00      5834.20
 1029.56        2959.50           2278        1328.00      5786.23
 1029.59        2959.75           2282        1335.00      5816.76
 1029.62        2960.00           2285        1337.00      5825.48
 1029.65        2960.25           2289        1372.00      5978.11
 1029.69        2960.50           2293        1427.00      6217.97
 1029.72        2960.75           2296        1468.00      6396.77
 1029.75        2961.00           2300        1476.00      6431.66
 1029.78        2961.25           2303        1739.00      7578.68
 1029.81        2961.50           2307        4286.00     18691.48
 1029.84        2961.75           2310       10452.00     45629.15
 1029.87        2962.00           2314       22581.00     98762.21
 1029.90        2962.25           2317       33283.00    145804.30
 1029.93        2962.50           2321       49024.00    215271.30
 1029.96        2962.75           2324       61058.00    268601.90
 1029.99        2963.00           2328       77278.00    340792.20
 1030.02        2963.25           2331       89552.00    395657.90
 1030.05        2963.50           2335      106853.00    473346.50
 1030.09        2963.75           2339      125339.00    556816.00
 1030.12        2964.00           2342      139121.00    619358.30
 1030.15        2964.25           2346      155359.00    693392.50
 1030.18        2964.50           2349      167055.00    746953.00
 1030.21        2964.75           2353      184074.00    825244.10
 1030.24        2965.00           2356      196823.00    884170.70
 1030.27        2965.25           2360      213394.00    961122.90
 1030.30        2965.50           2363      226252.00   1021116.00
 1030.33        2965.75           2367      241097.00   1090692.00
 1030.36        2966.00           2370      252471.00   1144227.00
 1030.39        2966.25           2374      267180.00   1213756.00
 1030.42        2966.50           2378      281019.00   1279481.00
 1030.45        2966.75           2381      286051.00   1303453.00
 1030.48        2967.00           2385      288974.00   1317397.00
 1030.51        2967.25           2388      288717.00   1316171.00
 1030.54        2967.50           2392      289049.00   1317755.00
 1030.57        2967.75           2395      288844.00   1316777.00
 1030.61        2968.00           2399      286790.00   1306978.00
 1030.64        2968.25           2402      282220.00   1285199.00
 1030.67        2968.50           2406      270289.00   1228495.00
 1030.70        2968.75           2409      258847.00   1174325.00
 1030.73        2969.00           2413      240599.00   1088352.00
 1030.76        2969.25           2417      221913.00   1000843.00
 1030.79        2969.50           2420      209464.00    942835.80
 1030.82        2969.75           2424      193080.00    866845.50
 1030.85        2970.00           2427      180985.00    811002.70
 1030.88        2970.25           2431      161988.00    723725.00
 1030.91        2970.50           2434      148476.00    661964.60
 1030.94        2970.75           2438      131936.00    586719.40
 1030.97        2971.00           2441      119082.00    528510.30
 1031.00        2971.25           2445      101557.00    449521.30
 1031.03        2971.50           2449       84749.00    374163.60
 1031.06        2971.75           2452       71410.00    314634.30
 1031.09        2972.00           2456       55357.00    243312.80
 1031.13        2972.25           2459       42680.00    187234.80
 1031.16        2972.50           2463       25575.00    111907.50
 1031.19        2972.75           2466       14159.00     61847.88
 1031.22        2973.00           2470        4680.00     20411.29
 1031.25        2973.25           2473        2435.00     10614.56
 1031.28        2973.50           2477        1632.00      7112.01
 1031.31        2973.75           2481        1506.00      6562.49
 1031.34        2974.00           2484        1472.00      6414.22
 1031.37        2974.25           2488        1375.00      5991.19
 1031.40        2974.50           2491        1414.00      6161.27
 1031.43        2974.75           2495        1391.00      6060.97
 1031.46        2975.00           2498        1337.00      5825.48
 1031.49        2975.25           2502        1331.00      5799.31
 1031.52        2975.50           2505        1312.00      5716.46
 1031.55        2975.75           2509        1301.00      5668.49
 1031.58        2976.00           2512        1247.00      5433.00
 1031.61        2976.25           2516        1263.00      5502.77
 1031.65        2976.50           2520        1244.00      5419.92
 1031.68        2976.75           2523        1238.00      5393.75
 1031.71        2977.00           2527        1242.00      5411.20
 1031.74        2977.25           2530        1220.00      5315.26
 1031.77        2977.50           2534        1224.00      5332.70
 1031.80        2977.75           2537        1226.00      5341.42
 1031.83        2978.00           2541        1223.00      5328.34
 1031.86        2978.25           2544        1174.00      5114.66
 1031.89        2978.50           2548        1173.00      5110.30
 1031.92        2978.75           2552        1158.00      5044.89
 1031.95        2979.00           2555        1138.00      4957.68
 1031.98        2979.25           2559        1113.00      4848.66
 1032.01        2979.50           2562        1129.00      4918.43
 1032.04        2979.75           2566        1118.00      4870.47
 1032.07        2980.00           2569        1113.00      4848.66
 1032.10        2980.25           2573        1110.00      4835.58
 1032.13        2980.50           2577        1096.00      4774.53
 1032.17        2980.75           2580        1078.00      4696.04
 1032.20        2981.00           2584        1102.00      4800.70
 1032.23        2981.25           2587        1073.00      4674.24
 1032.26        2981.50           2591        1111.00      4839.94
 1032.29        2981.75           2594        1076.00      4687.32
 1032.32        2982.00           2598        1071.00      4665.52
 1032.35        2982.25           2601        1069.00      4656.80
 1032.38        2982.50           2605        1086.00      4730.93
 1032.41        2982.75           2609        1091.00      4752.73
 1032.44        2983.00           2612        1044.00      4547.78
 1032.47        2983.25           2616        1075.00      4682.96
 1032.50        2983.50           2619        1075.00      4682.96
 1032.53        2983.75           2623        1020.00      4443.13
 1032.56        2984.00           2626        1079.00      4700.40
HS scan finished at 17:12:47
end
