************************************************************
  HS Scan of (1) Internal mercury lamp
************************************************************
Integration time is 0.2294 seconds per sample
dh071117Reading 51.44 .94 3pr1000
************************************************************
Dead Time -------------------------  3.4E-08 
Number of Cycles Used -------------  4 
Starting Wavelength (Angstroms) ---  2950 
Final Wavelength (Angstoms) -------  2984 
Wavelength Increment (Angstroms) --  .25 
Filter Wheel #1 Position ---------- (1) Ground quartz diffuser (ND=2.32)
Filter Wheel #2 Position ---------- (1) Neutral Density 0.494



************************************************************
HS scan start time = 04:24:11
Dark Count =  1 


Time (GMT)  Wavelength (Ang)  Step Number  Raw Counts  Counts/Second

  265.08        2950.00           2144         155.00       671.33
  265.28        2950.25           2147         128.00       553.63
  265.31        2950.50           2151         149.00       645.18
  265.34        2950.75           2155         124.00       536.19
  265.37        2951.00           2158         133.00       575.43
  265.40        2951.25           2162         163.00       706.21
  265.43        2951.50           2165         133.00       575.43
  265.46        2951.75           2169         141.00       610.30
  265.49        2952.00           2172         153.00       662.61
  265.52        2952.25           2176         170.00       736.72
  265.55        2952.50           2179         138.00       597.22
  265.58        2952.75           2183         140.00       605.94
  265.61        2953.00           2186         154.00       666.97
  265.64        2953.25           2190         141.00       610.30
  265.68        2953.50           2193         134.00       579.78
  265.71        2953.75           2197         137.00       592.86
  265.74        2954.00           2200         161.00       697.49
  265.77        2954.25           2204         135.00       584.14
  265.80        2954.50           2208         144.00       623.38
  265.83        2954.75           2211         181.00       784.68
  265.86        2955.00           2215         153.00       662.61
  265.89        2955.25           2218         155.00       671.33
  265.92        2955.50           2222         163.00       706.21
  265.95        2955.75           2225         152.00       658.25
  265.98        2956.00           2229         154.00       666.97
  266.01        2956.25           2232         163.00       706.21
  266.04        2956.50           2236         158.00       684.41
  266.07        2956.75           2239         153.00       662.61
  266.10        2957.00           2243         159.00       688.77
  266.13        2957.25           2246         162.00       701.85
  266.16        2957.50           2250         168.00       728.00
  266.20        2957.75           2254         167.00       723.64
  266.23        2958.00           2257         159.00       688.77
  266.26        2958.25           2261         161.00       697.49
  266.29        2958.50           2264         167.00       723.64
  266.32        2958.75           2268         169.00       732.36
  266.35        2959.00           2271         175.00       758.52
  266.38        2959.25           2275         175.00       758.52
  266.41        2959.50           2278         181.00       784.68
  266.44        2959.75           2282         182.00       789.04
  266.47        2960.00           2285         188.00       815.19
  266.50        2960.25           2289         190.00       823.91
  266.53        2960.50           2293         200.00       867.51
  266.56        2960.75           2296         214.00       928.54
  266.59        2961.00           2300         271.00      1177.03
  266.62        2961.25           2303         562.00      2445.71
  266.65        2961.50           2307        2239.00      9759.12
  266.68        2961.75           2310        4143.00     18066.89
  266.71        2962.00           2314        7064.00     30821.30
  266.75        2962.25           2317        9168.00     40015.18
  266.78        2962.50           2321       12143.00     53024.89
  266.81        2962.75           2324       14361.00     62731.74
  266.84        2963.00           2328       17552.00     76708.09
  266.87        2963.25           2331       20266.00     88605.69
  266.90        2963.50           2335       23856.00    104358.30
  266.93        2963.75           2339       27497.00    120352.00
  266.96        2964.00           2342       29829.00    130604.80
  266.99        2964.25           2346       33308.00    145913.90
  267.02        2964.50           2349       35444.00    155321.10
  267.05        2964.75           2353       38878.00    170457.60
  267.08        2965.00           2356       41400.00    181584.10
  267.11        2965.25           2360       44492.00    195236.80
  267.14        2965.50           2363       46626.00    204666.90
  267.17        2965.75           2367       49929.00    219274.70
  267.20        2966.00           2370       52495.00    230633.20
  267.23        2966.25           2374       54635.00    240112.70
  267.27        2966.50           2378       56883.00    250077.20
  267.30        2966.75           2381       56974.00    250480.70
  267.33        2967.00           2385       57383.00    252294.40
  267.36        2967.25           2388       57470.00    252680.30
  267.39        2967.50           2392       57549.00    253030.60
  267.42        2967.75           2395       56910.00    250196.90
  267.45        2968.00           2399       55517.00    244021.50
  267.48        2968.25           2402       53644.00    235722.10
  267.51        2968.50           2406       50916.00    223642.70
  267.54        2968.75           2409       48322.00    212165.80
  267.57        2969.00           2413       44984.00    197410.40
  267.60        2969.25           2417       41062.00    180092.40
  267.63        2969.50           2420       38790.00    170069.50
  267.66        2969.75           2424       35486.00    155506.20
  267.69        2970.00           2427       33257.00    145689.40
  267.72        2970.25           2431       29359.00    128537.90
  267.76        2970.50           2434       26680.00    116761.70
  267.79        2970.75           2438       22890.00    100117.90
  267.82        2971.00           2441       20537.00     89794.22
  267.85        2971.25           2445       17436.00     76199.78
  267.88        2971.50           2449       14331.00     62600.40
  267.91        2971.75           2452       11689.00     51038.80
  267.94        2972.00           2456        8187.00     35727.77
  267.97        2972.25           2459        5973.00     26056.21
  268.00        2972.50           2463        3022.00     13175.04
  268.03        2972.75           2466        1484.00      6466.11
  268.06        2973.00           2470         487.00      2118.72
  268.09        2973.25           2473         268.00      1163.95
  268.12        2973.50           2477         235.00      1020.09
  268.15        2973.75           2481         205.00       889.30
  268.18        2974.00           2484         205.00       889.30
  268.21        2974.25           2488         189.00       819.55
  268.24        2974.50           2491         178.00       771.60
  268.27        2974.75           2495         197.00       854.43
  268.31        2975.00           2498         185.00       802.11
  268.34        2975.25           2502         175.00       758.52
  268.37        2975.50           2505         195.00       845.71
  268.40        2975.75           2509         188.00       815.19
  268.43        2976.00           2512         173.00       749.80
  268.46        2976.25           2516         168.00       728.00
  268.49        2976.50           2520         173.00       749.80
  268.52        2976.75           2523         169.00       732.36
  268.55        2977.00           2527         164.00       710.57
  268.58        2977.25           2530         162.00       701.85
  268.61        2977.50           2534         159.00       688.77
  268.64        2977.75           2537         161.00       697.49
  268.67        2978.00           2541         155.00       671.33
  268.70        2978.25           2544         159.00       688.77
  268.73        2978.50           2548         158.00       684.41
  268.76        2978.75           2552         169.00       732.36
  268.80        2979.00           2555         146.00       632.10
  268.83        2979.25           2559         158.00       684.41
  268.86        2979.50           2562         146.00       632.10
  268.89        2979.75           2566         135.00       584.14
  268.92        2980.00           2569         150.00       649.53
  268.95        2980.25           2573         135.00       584.14
  268.98        2980.50           2577         139.00       601.58
  269.01        2980.75           2580         157.00       680.05
  269.04        2981.00           2584         166.00       719.29
  269.07        2981.25           2587         140.00       605.94
  269.10        2981.50           2591         148.00       640.82
  269.13        2981.75           2594         148.00       640.82
  269.16        2982.00           2598         141.00       610.30
  269.19        2982.25           2601         142.00       614.66
  269.22        2982.50           2605         123.00       531.83
  269.25        2982.75           2609         128.00       553.63
  269.28        2983.00           2612         150.00       649.53
  269.31        2983.25           2616         160.00       693.13
  269.35        2983.50           2619         130.00       562.35
  269.38        2983.75           2623         121.00       523.11
  269.41        2984.00           2626         132.00       571.07
HS scan finished at 04:29:38
end
************************************************************
  HS Scan of (1) Internal mercury lamp
************************************************************
Integration time is 0.2294 seconds per sample
dh071117Reading 51.44 .94 3.07pr1000
************************************************************
Dead Time -------------------------  3.4E-08 
Number of Cycles Used -------------  4 
Starting Wavelength (Angstroms) ---  2950 
Final Wavelength (Angstoms) -------  2984 
Wavelength Increment (Angstroms) --  .25 
Filter Wheel #1 Position ---------- (1) Ground quartz diffuser (ND=2.32)
Filter Wheel #2 Position ---------- (1) Neutral Density 0.494



************************************************************
HS scan start time = 17:07:30
Dark Count =  .8 


Time (GMT)  Wavelength (Ang)  Step Number  Raw Counts  Counts/Second

 1028.40        2950.00           2144         112.00       484.75
 1028.59        2950.25           2147         126.00       545.78
 1028.62        2950.50           2151         163.00       707.08
 1028.65        2950.75           2155         162.00       702.72
 1028.68        2951.00           2158         137.00       593.73
 1028.71        2951.25           2162         125.00       541.42
 1028.74        2951.50           2165         144.00       624.25
 1028.77        2951.75           2169         127.00       550.14
 1028.80        2952.00           2172         127.00       550.14
 1028.83        2952.25           2176         108.00       467.31
 1028.87        2952.50           2179         133.00       576.30
 1028.90        2952.75           2183         108.00       467.31
 1028.93        2953.00           2186         131.00       567.58
 1028.96        2953.25           2190         139.00       602.45
 1028.99        2953.50           2193         116.00       502.19
 1029.02        2953.75           2197         186.00       807.35
 1029.05        2954.00           2200         120.00       519.63
 1029.08        2954.25           2204         116.00       502.19
 1029.11        2954.50           2208         118.00       510.91
 1029.14        2954.75           2211         138.00       598.09
 1029.17        2955.00           2215         144.00       624.25
 1029.20        2955.25           2218         154.00       667.84
 1029.23        2955.50           2222         138.00       598.09
 1029.26        2955.75           2225         139.00       602.45
 1029.29        2956.00           2229         113.00       489.11
 1029.32        2956.25           2232         140.00       606.81
 1029.35        2956.50           2236         126.00       545.78
 1029.39        2956.75           2239         136.00       589.38
 1029.42        2957.00           2243         149.00       646.05
 1029.45        2957.25           2246         146.00       632.97
 1029.48        2957.50           2250         147.00       637.33
 1029.51        2957.75           2254         157.00       680.92
 1029.54        2958.00           2257         145.00       628.61
 1029.57        2958.25           2261         153.00       663.48
 1029.60        2958.50           2264         167.00       724.52
 1029.63        2958.75           2268         144.00       624.25
 1029.66        2959.00           2271         143.00       619.89
 1029.69        2959.25           2275         144.00       624.25
 1029.72        2959.50           2278         146.00       632.97
 1029.75        2959.75           2282         157.00       680.92
 1029.78        2960.00           2285         169.00       733.24
 1029.81        2960.25           2289         157.00       680.92
 1029.84        2960.50           2293         166.00       720.16
 1029.87        2960.75           2296         162.00       702.72
 1029.91        2961.00           2300         184.00       798.63
 1029.94        2961.25           2303         380.00      1653.10
 1029.97        2961.50           2307        1457.00      6349.23
 1030.00        2961.75           2310        2973.00     12962.12
 1030.03        2962.00           2314        5281.00     23035.47
 1030.06        2962.25           2317        7024.00     30647.44
 1030.09        2962.50           2321        9546.00     41668.41
 1030.12        2962.75           2324       11585.00     50584.75
 1030.15        2963.00           2328       14197.00     62014.67
 1030.18        2963.25           2331       16190.00     70741.88
 1030.21        2963.50           2335       18911.00     82665.31
 1030.24        2963.75           2339       21591.00     94418.58
 1030.27        2964.00           2342       23833.00    104258.20
 1030.30        2964.25           2346       26608.00    116446.20
 1030.33        2964.50           2349       28609.00    125241.00
 1030.36        2964.75           2353       31043.00    135946.00
 1030.39        2965.00           2356       33040.00    144734.90
 1030.43        2965.25           2360       35663.00    156286.90
 1030.46        2965.50           2363       37862.00    165978.50
 1030.49        2965.75           2367       40343.00    176920.70
 1030.52        2966.00           2370       42290.00    185513.40
 1030.55        2966.25           2374       44303.00    194402.80
 1030.58        2966.50           2378       46264.00    203067.70
 1030.61        2966.75           2381       46500.00    204110.80
 1030.64        2967.00           2385       47039.00    206493.50
 1030.67        2967.25           2388       46677.00    204893.20
 1030.70        2967.50           2392       46945.00    206077.90
 1030.73        2967.75           2395       46399.00    203664.40
 1030.76        2968.00           2399       45264.00    198648.40
 1030.79        2968.25           2402       43627.00    191417.00
 1030.82        2968.50           2406       41329.00    181271.60
 1030.85        2968.75           2409       39458.00    173016.60
 1030.88        2969.00           2413       36748.00    161068.00
 1030.91        2969.25           2417       33763.00    147918.10
 1030.95        2969.50           2420       31842.00    139461.80
 1030.98        2969.75           2424       29075.00    127289.90
 1031.01        2970.00           2427       27156.00    118854.20
 1031.04        2970.25           2431       24363.00    106585.20
 1031.07        2970.50           2434       22322.00     97626.04
 1031.10        2970.75           2438       19252.00     84160.27
 1031.13        2971.00           2441       17160.00     74991.31
 1031.16        2971.25           2445       14374.00     62789.53
 1031.19        2971.50           2449       11747.00     51293.39
 1031.22        2971.75           2452        9871.00     43089.24
 1031.25        2972.00           2456        7429.00     32416.71
 1031.28        2972.25           2459        5398.00     23546.31
 1031.31        2972.50           2463        2792.00     12172.43
 1031.34        2972.75           2466        1302.00      5673.28
 1031.37        2973.00           2470         407.00      1770.81
 1031.40        2973.25           2473         236.00      1025.32
 1031.43        2973.50           2477         187.00       811.71
 1031.47        2973.75           2481         183.00       794.27
 1031.50        2974.00           2484         178.00       772.47
 1031.53        2974.25           2488         153.00       663.48
 1031.56        2974.50           2491         161.00       698.36
 1031.59        2974.75           2495         158.00       685.28
 1031.62        2975.00           2498         152.00       659.13
 1031.65        2975.25           2502         149.00       646.05
 1031.68        2975.50           2505         147.00       637.33
 1031.71        2975.75           2509         138.00       598.09
 1031.74        2976.00           2512         154.00       667.84
 1031.77        2976.25           2516         134.00       580.66
 1031.80        2976.50           2520         146.00       632.97
 1031.83        2976.75           2523         154.00       667.84
 1031.86        2977.00           2527         139.00       602.45
 1031.89        2977.25           2530         139.00       602.45
 1031.92        2977.50           2534         142.00       615.53
 1031.95        2977.75           2537         151.00       654.77
 1031.98        2978.00           2541         160.00       694.00
 1032.02        2978.25           2544         153.00       663.48
 1032.05        2978.50           2548         137.00       593.73
 1032.08        2978.75           2552         143.00       619.89
 1032.11        2979.00           2555         120.00       519.63
 1032.14        2979.25           2559         165.00       715.80
 1032.17        2979.50           2562         114.00       493.47
 1032.20        2979.75           2566         123.00       532.70
 1032.23        2980.00           2569         113.00       489.11
 1032.26        2980.25           2573         114.00       493.47
 1032.29        2980.50           2577         136.00       589.38
 1032.32        2980.75           2580         127.00       550.14
 1032.35        2981.00           2584         112.00       484.75
 1032.38        2981.25           2587         107.00       462.95
 1032.41        2981.50           2591         130.00       563.22
 1032.44        2981.75           2594         104.00       449.88
 1032.47        2982.00           2598         100.00       432.44
 1032.50        2982.25           2601         128.00       554.50
 1032.54        2982.50           2605          96.00       415.00
 1032.57        2982.75           2609         130.00       563.22
 1032.60        2983.00           2612         106.00       458.59
 1032.63        2983.25           2616         106.00       458.59
 1032.66        2983.50           2619         112.00       484.75
 1032.69        2983.75           2623         132.00       571.94
 1032.72        2984.00           2626         118.00       510.91
HS scan finished at 17:12:56
end
