************************************************************
  HS Scan of (1) Internal mercury lamp
************************************************************
Integration time is 0.2294 seconds per sample
dh151118Reading 51.44 .94 3.09pr1000
************************************************************
Dead Time -------------------------  3.4E-08 
Number of Cycles Used -------------  4 
Starting Wavelength (Angstroms) ---  2950 
Final Wavelength (Angstoms) -------  2984 
Wavelength Increment (Angstroms) --  .25 
Filter Wheel #1 Position ---------- (1) Ground quartz diffuser (ND=2.32)
Filter Wheel #2 Position ---------- (1) Neutral Density 0.494



************************************************************
HS scan start time = 04:35:42
Dark Count =  .9 


Time (GMT)  Wavelength (Ang)  Step Number  Raw Counts  Counts/Second

  276.60        2950.00           2144        1532.00      6675.88
  276.79        2950.25           2147        1533.00      6680.24
  276.82        2950.50           2151        1489.00      6488.35
  276.86        2950.75           2155        1529.00      6662.80
  276.89        2951.00           2158        1579.00      6880.86
  276.92        2951.25           2162        1552.00      6763.11
  276.95        2951.50           2165        1528.00      6658.44
  276.98        2951.75           2169        1538.00      6702.05
  277.01        2952.00           2172        1535.00      6688.97
  277.04        2952.25           2176        1567.00      6828.53
  277.07        2952.50           2179        1562.00      6806.72
  277.10        2952.75           2183        1583.00      6898.31
  277.13        2953.00           2186        1563.00      6811.08
  277.16        2953.25           2190        1572.00      6850.33
  277.19        2953.50           2193        1555.00      6776.19
  277.22        2953.75           2197        1577.00      6872.14
  277.25        2954.00           2200        1573.00      6854.69
  277.28        2954.25           2204        1568.00      6832.89
  277.31        2954.50           2208        1611.00      7020.42
  277.34        2954.75           2211        1597.00      6959.36
  277.38        2955.00           2215        1633.00      7116.37
  277.41        2955.25           2218        1622.00      7068.39
  277.44        2955.50           2222        1612.00      7024.78
  277.47        2955.75           2225        1655.00      7212.32
  277.50        2956.00           2229        1663.00      7247.21
  277.53        2956.25           2232        1649.00      7186.15
  277.56        2956.50           2236        1642.00      7155.62
  277.59        2956.75           2239        1651.00      7194.87
  277.62        2957.00           2243        1682.00      7330.07
  277.65        2957.25           2246        1723.00      7508.89
  277.68        2957.50           2250        1714.00      7469.64
  277.71        2957.75           2254        1759.00      7665.90
  277.74        2958.00           2257        1739.00      7578.68
  277.77        2958.25           2261        1744.00      7600.48
  277.80        2958.50           2264        1757.00      7657.18
  277.83        2958.75           2268        1780.00      7757.50
  277.86        2959.00           2271        1797.00      7831.64
  277.90        2959.25           2275        1848.00      8054.08
  277.93        2959.50           2278        1852.00      8071.53
  277.96        2959.75           2282        1902.00      8289.61
  277.99        2960.00           2285        1878.00      8184.93
  278.02        2960.25           2289        1922.00      8376.84
  278.05        2960.50           2293        1976.00      8612.37
  278.08        2960.75           2296        2009.00      8756.31
  278.11        2961.00           2300        2049.00      8930.79
  278.14        2961.25           2303        2516.00     10967.91
  278.17        2961.50           2307        6735.00     29384.62
  278.20        2961.75           2310       15886.00     69409.91
  278.23        2962.00           2314       34369.00    150586.40
  278.26        2962.25           2317       50502.00    221810.80
  278.29        2962.50           2321       73305.00    323076.50
  278.32        2962.75           2324       90822.00    401346.70
  278.35        2963.00           2328      113914.00    505172.50
  278.38        2963.25           2331      131557.00    584999.80
  278.42        2963.50           2335      157248.00    702029.60
  278.45        2963.75           2339      183407.00    822167.90
  278.48        2964.00           2342      202849.00    912106.80
  278.51        2964.25           2346      226809.00   1023721.00
  278.54        2964.50           2349      244315.00   1105818.00
  278.57        2964.75           2353      266612.00   1211065.00
  278.60        2965.00           2356      284200.00   1294630.00
  278.63        2965.25           2360      307049.00   1403923.00
  278.66        2965.50           2363      323520.00   1483228.00
  278.69        2965.75           2367      343406.00   1579564.00
  278.72        2966.00           2370      358540.00   1653317.00
  278.75        2966.25           2374      379118.00   1754215.00
  278.78        2966.50           2378      391468.00   1815114.00
  278.81        2966.75           2381      396036.00   1837705.00
  278.84        2967.00           2385      397316.00   1844042.00
  278.87        2967.25           2388      397199.00   1843463.00
  278.90        2967.50           2392      397635.00   1845622.00
  278.93        2967.75           2395      395119.00   1833167.00
  278.97        2968.00           2399      387124.00   1793664.00
  279.00        2968.25           2402      377032.00   1743954.00
  279.03        2968.50           2406      359483.00   1657925.00
  279.06        2968.75           2409      342651.00   1575894.00
  279.09        2969.00           2413      318228.00   1457700.00
  279.12        2969.25           2417      295877.00   1350381.00
  279.15        2969.50           2420      280910.00   1278962.00
  279.18        2969.75           2424      260147.00   1180470.00
  279.21        2970.00           2427      242036.00   1095104.00
  279.24        2970.25           2431      217918.00    982202.70
  279.27        2970.50           2434      201296.00    904902.10
  279.30        2970.75           2438      177109.00    793152.50
  279.33        2971.00           2441      159766.00    713550.60
  279.36        2971.25           2445      135271.00    601860.00
  279.39        2971.50           2449      110203.00    488437.20
  279.42        2971.75           2452       92989.00    411058.50
  279.45        2972.00           2456       71198.00    313690.10
  279.49        2972.25           2459       54664.00    240241.70
  279.52        2972.50           2463       33011.00    144606.80
  279.55        2972.75           2466       18184.00     79478.22
  279.58        2973.00           2470        5977.00     26074.11
  279.61        2973.25           2473        3058.00     13332.55
  279.64        2973.50           2477        2191.00      9550.18
  279.67        2973.75           2481        2075.00      9044.19
  279.70        2974.00           2484        2063.00      8991.85
  279.73        2974.25           2488        1990.00      8673.44
  279.76        2974.50           2491        1917.00      8355.03
  279.79        2974.75           2495        1888.00      8228.54
  279.82        2975.00           2498        1877.00      8180.57
  279.85        2975.25           2502        1875.00      8171.84
  279.88        2975.50           2505        1842.00      8027.91
  279.91        2975.75           2509        1774.00      7731.33
  279.94        2976.00           2512        1763.00      7683.35
  279.97        2976.25           2516        1801.00      7849.09
  280.01        2976.50           2520        1722.00      7504.53
  280.04        2976.75           2523        1705.00      7430.39
  280.07        2977.00           2527        1709.00      7447.83
  280.10        2977.25           2530        1698.00      7399.86
  280.13        2977.50           2534        1643.00      7159.98
  280.16        2977.75           2537        1656.00      7216.68
  280.19        2978.00           2541        1665.00      7255.93
  280.22        2978.25           2544        1612.00      7024.78
  280.25        2978.50           2548        1581.00      6889.58
  280.28        2978.75           2552        1606.00      6998.61
  280.31        2979.00           2555        1581.00      6889.58
  280.34        2979.25           2559        1595.00      6950.64
  280.37        2979.50           2562        1558.00      6789.27
  280.40        2979.75           2566        1575.00      6863.42
  280.43        2980.00           2569        1533.00      6680.24
  280.46        2980.25           2573        1522.00      6632.27
  280.50        2980.50           2577        1532.00      6675.88
  280.53        2980.75           2580        1549.00      6750.02
  280.56        2981.00           2584        1514.00      6597.38
  280.59        2981.25           2587        1541.00      6715.13
  280.62        2981.50           2591        1487.00      6479.63
  280.65        2981.75           2594        1506.00      6562.49
  280.68        2982.00           2598        1483.00      6462.19
  280.71        2982.25           2601        1478.00      6440.38
  280.74        2982.50           2605        1450.00      6318.27
  280.77        2982.75           2609        1508.00      6571.22
  280.80        2983.00           2612        1493.00      6505.80
  280.83        2983.25           2616        1466.00      6388.05
  280.86        2983.50           2619        1473.00      6418.58
  280.89        2983.75           2623        1458.00      6353.16
  280.92        2984.00           2626        1481.00      6453.47
HS scan finished at 04:41:09
end
************************************************************
  HS Scan of (1) Internal mercury lamp
************************************************************
Integration time is 0.2294 seconds per sample
dh151118Reading 51.44 .94 3.35pr1000
************************************************************
Dead Time -------------------------  3.4E-08 
Number of Cycles Used -------------  4 
Starting Wavelength (Angstroms) ---  2950 
Final Wavelength (Angstoms) -------  2984 
Wavelength Increment (Angstroms) --  .25 
Filter Wheel #1 Position ---------- (1) Ground quartz diffuser (ND=2.32)
Filter Wheel #2 Position ---------- (1) Neutral Density 0.494



************************************************************
HS scan start time = 17:07:18
Dark Count =  2.2 


Time (GMT)  Wavelength (Ang)  Step Number  Raw Counts  Counts/Second

 1028.21        2950.00           2144        1208.00      5257.26
 1028.40        2950.25           2147        1225.00      5331.39
 1028.43        2950.50           2151        1238.00      5388.08
 1028.46        2950.75           2155        1213.00      5279.07
 1028.49        2951.00           2158        1262.00      5492.74
 1028.52        2951.25           2162        1228.00      5344.48
 1028.55        2951.50           2165        1247.00      5427.33
 1028.58        2951.75           2169        1250.00      5440.41
 1028.61        2952.00           2172        1283.00      5584.32
 1028.64        2952.25           2176        1245.00      5418.61
 1028.67        2952.50           2179        1265.00      5505.83
 1028.71        2952.75           2183        1285.00      5593.04
 1028.74        2953.00           2186        1265.00      5505.83
 1028.77        2953.25           2190        1266.00      5510.19
 1028.80        2953.50           2193        1264.00      5501.47
 1028.83        2953.75           2197        1251.00      5444.77
 1028.86        2954.00           2200        1278.00      5562.52
 1028.89        2954.25           2204        1305.00      5680.26
 1028.92        2954.50           2208        1285.00      5593.04
 1028.95        2954.75           2211        1314.00      5719.51
 1028.98        2955.00           2215        1304.00      5675.90
 1029.01        2955.25           2218        1305.00      5680.26
 1029.04        2955.50           2222        1317.00      5732.59
 1029.07        2955.75           2225        1298.00      5649.73
 1029.10        2956.00           2229        1342.00      5841.61
 1029.13        2956.25           2232        1373.00      5976.80
 1029.16        2956.50           2236        1330.00      5789.28
 1029.19        2956.75           2239        1367.00      5950.64
 1029.23        2957.00           2243        1394.00      6068.38
 1029.26        2957.25           2246        1380.00      6007.33
 1029.29        2957.50           2250        1373.00      5976.80
 1029.32        2957.75           2254        1420.00      6181.77
 1029.35        2958.00           2257        1407.00      6125.08
 1029.38        2958.25           2261        1430.00      6225.38
 1029.41        2958.50           2264        1429.00      6221.02
 1029.44        2958.75           2268        1456.00      6338.77
 1029.47        2959.00           2271        1460.00      6356.21
 1029.50        2959.25           2275        1446.00      6295.16
 1029.53        2959.50           2278        1499.00      6526.30
 1029.56        2959.75           2282        1496.00      6513.21
 1029.59        2960.00           2285        1554.00      6766.16
 1029.62        2960.25           2289        1555.00      6770.52
 1029.65        2960.50           2293        1600.00      6966.78
 1029.68        2960.75           2296        1642.00      7149.95
 1029.71        2961.00           2300        1688.00      7350.57
 1029.75        2961.25           2303        1936.00      8432.23
 1029.78        2961.50           2307        4165.00     18157.67
 1029.81        2961.75           2310       10922.00     47678.80
 1029.84        2962.00           2314       26741.00    117024.40
 1029.87        2962.25           2317       41653.00    182695.40
 1029.90        2962.50           2321       61396.00    270096.80
 1029.93        2962.75           2324       74643.00    329034.50
 1029.96        2963.00           2328       93333.00    412595.00
 1029.99        2963.25           2331      109106.00    483488.00
 1030.02        2963.50           2335      131187.00    583315.30
 1030.05        2963.75           2339      153454.00    684681.50
 1030.08        2964.00           2342      168907.00    755446.10
 1030.11        2964.25           2346      189122.00    848541.60
 1030.14        2964.50           2349      204433.00    919453.10
 1030.17        2964.75           2353      224718.00   1013940.00
 1030.20        2965.00           2356      239240.00   1081964.00
 1030.23        2965.25           2360      257612.00   1168484.00
 1030.27        2965.50           2363      271540.00   1234424.00
 1030.30        2965.75           2367      292630.00   1334851.00
 1030.33        2966.00           2370      306255.00   1400105.00
 1030.36        2966.25           2374      323680.00   1483994.00
 1030.39        2966.50           2378      334334.00   1535529.00
 1030.42        2966.75           2381      339839.00   1562230.00
 1030.45        2967.00           2385      341569.00   1570631.00
 1030.48        2967.25           2388      341760.00   1571559.00
 1030.51        2967.50           2392      341740.00   1571462.00
 1030.54        2967.75           2395      341371.00   1569669.00
 1030.57        2968.00           2399      337861.00   1552630.00
 1030.60        2968.25           2402      330293.00   1515960.00
 1030.63        2968.50           2406      313869.00   1436701.00
 1030.66        2968.75           2409      300566.00   1372823.00
 1030.69        2969.00           2413      282420.00   1286145.00
 1030.72        2969.25           2417      264816.00   1202553.00
 1030.75        2969.50           2420      251430.00   1139313.00
 1030.79        2969.75           2424      232557.00   1050619.00
 1030.82        2970.00           2427      216713.00    976578.80
 1030.85        2970.25           2431      197069.00    885304.00
 1030.88        2970.50           2434      181538.00    813545.20
 1030.91        2970.75           2438      161137.00    719821.50
 1030.94        2971.00           2441      144600.00    644290.70
 1030.97        2971.25           2445      123149.00    546896.60
 1031.00        2971.50           2449      103368.00    457658.20
 1031.03        2971.75           2452       89115.00    393695.10
 1031.07        2972.00           2456       69619.00    306654.00
 1031.10        2972.25           2459       54082.00    237657.20
 1031.13        2972.50           2463       33629.00    147322.00
 1031.16        2972.75           2466       20430.00     89319.68
 1031.19        2973.00           2470        7572.00     33035.34
 1031.22        2973.25           2473        3442.00     15002.42
 1031.25        2973.50           2477        1912.00      8327.55
 1031.28        2973.75           2481        1711.00      7450.89
 1031.31        2974.00           2484        1659.00      7224.09
 1031.34        2974.25           2488        1637.00      7128.14
 1031.37        2974.50           2491        1603.00      6979.86
 1031.40        2974.75           2495        1563.00      6805.41
 1031.43        2975.00           2498        1556.00      6774.88
 1031.46        2975.25           2502        1524.00      6635.32
 1031.50        2975.50           2505        1515.00      6596.07
 1031.53        2975.75           2509        1531.00      6665.85
 1031.56        2976.00           2512        1441.00      6273.35
 1031.59        2976.25           2516        1453.00      6325.68
 1031.62        2976.50           2520        1400.00      6094.55
 1031.65        2976.75           2523        1377.00      5994.25
 1031.68        2977.00           2527        1389.00      6046.58
 1031.71        2977.25           2530        1387.00      6037.86
 1031.74        2977.50           2534        1376.00      5989.89
 1031.77        2977.75           2537        1344.00      5850.34
 1031.80        2978.00           2541        1328.00      5780.56
 1031.83        2978.25           2544        1361.00      5924.47
 1031.86        2978.50           2548        1339.00      5828.53
 1031.89        2978.75           2552        1312.00      5710.79
 1031.92        2979.00           2555        1264.00      5501.47
 1031.95        2979.25           2559        1286.00      5597.40
 1031.98        2979.50           2562        1287.00      5601.76
 1032.02        2979.75           2566        1259.00      5479.66
 1032.05        2980.00           2569        1240.00      5396.81
 1032.08        2980.25           2573        1249.00      5436.05
 1032.11        2980.50           2577        1264.00      5501.47
 1032.14        2980.75           2580        1250.00      5440.41
 1032.17        2981.00           2584        1244.00      5414.25
 1032.20        2981.25           2587        1256.00      5466.58
 1032.23        2981.50           2591        1224.00      5327.03
 1032.26        2981.75           2594        1215.00      5287.79
 1032.29        2982.00           2598        1208.00      5257.26
 1032.32        2982.25           2601        1205.00      5244.18
 1032.35        2982.50           2605        1204.00      5239.82
 1032.38        2982.75           2609        1195.00      5200.57
 1032.41        2983.00           2612        1180.00      5135.16
 1032.44        2983.25           2616        1190.00      5178.77
 1032.47        2983.50           2619        1156.00      5030.50
 1032.50        2983.75           2623        1183.00      5148.24
 1032.53        2984.00           2626        1169.00      5087.19
HS scan finished at 17:12:46
end
