************************************************************
  HS Scan of (1) Internal mercury lamp
************************************************************
Integration time is 0.2294 seconds per sample
dh101118Reading 51.44 .94 2.88pr1000
************************************************************
Dead Time -------------------------  3.4E-08 
Number of Cycles Used -------------  4 
Starting Wavelength (Angstroms) ---  2950 
Final Wavelength (Angstoms) -------  2984 
Wavelength Increment (Angstroms) --  .25 
Filter Wheel #1 Position ---------- (1) Ground quartz diffuser (ND=2.32)
Filter Wheel #2 Position ---------- (1) Neutral Density 0.494



************************************************************
HS scan start time = 04:28:20
Dark Count =  .6 


Time (GMT)  Wavelength (Ang)  Step Number  Raw Counts  Counts/Second

  269.23        2950.00           2144        1465.00      6385.00
  269.43        2950.25           2147        1486.00      6476.58
  269.46        2950.50           2151        1484.00      6467.86
  269.49        2950.75           2155        1528.00      6659.75
  269.52        2951.00           2158        1521.00      6629.22
  269.55        2951.25           2162        1529.00      6664.11
  269.58        2951.50           2165        1509.00      6576.89
  269.61        2951.75           2169        1508.00      6572.52
  269.64        2952.00           2172        1535.00      6690.28
  269.67        2952.25           2176        1502.00      6546.36
  269.70        2952.50           2179        1539.00      6707.72
  269.73        2952.75           2183        1516.00      6607.41
  269.76        2953.00           2186        1550.00      6755.69
  269.79        2953.25           2190        1540.00      6712.08
  269.83        2953.50           2193        1554.00      6773.14
  269.86        2953.75           2197        1561.00      6803.67
  269.89        2954.00           2200        1580.00      6886.53
  269.92        2954.25           2204        1583.00      6899.61
  269.95        2954.50           2208        1569.00      6838.56
  269.98        2954.75           2211        1597.00      6960.67
  270.01        2955.00           2215        1593.00      6943.23
  270.04        2955.25           2218        1565.00      6821.11
  270.07        2955.50           2222        1593.00      6943.23
  270.10        2955.75           2225        1600.00      6973.76
  270.13        2956.00           2229        1633.00      7117.68
  270.16        2956.25           2232        1655.00      7213.63
  270.19        2956.50           2236        1651.00      7196.18
  270.22        2956.75           2239        1669.00      7274.69
  270.25        2957.00           2243        1693.00      7379.36
  270.30        2957.25           2246        1721.00      7501.48
  270.33        2957.50           2250        1699.00      7405.53
  270.36        2957.75           2254        1692.00      7375.00
  270.39        2958.00           2257        1701.00      7414.25
  270.42        2958.25           2261        1733.00      7553.82
  270.45        2958.50           2264        1759.00      7667.21
  270.48        2958.75           2268        1741.00      7588.71
  270.51        2959.00           2271        1763.00      7684.66
  270.54        2959.25           2275        1809.00      7885.29
  270.58        2959.50           2278        1805.00      7867.84
  270.61        2959.75           2282        1876.00      8177.51
  270.64        2960.00           2285        1843.00      8033.58
  270.67        2960.25           2289        1888.00      8229.85
  270.70        2960.50           2293        1926.00      8395.60
  270.73        2960.75           2296        1982.00      8639.85
  270.76        2961.00           2300        2011.00      8766.34
  270.79        2961.25           2303        2325.00     10136.01
  270.82        2961.50           2307        5856.00     25547.03
  270.85        2961.75           2310       15336.00     67002.52
  270.88        2962.00           2314       34093.00    149372.20
  270.91        2962.25           2317       49434.00    217086.40
  270.94        2962.50           2321       69173.00    304676.00
  270.97        2962.75           2324       85444.00    377273.20
  271.00        2963.00           2328      108185.00    479346.20
  271.03        2963.25           2331      126431.00    561763.00
  271.06        2963.50           2335      150237.00    670000.40
  271.10        2963.75           2339      173081.00    774627.10
  271.13        2964.00           2342      189643.00    850956.40
  271.16        2964.25           2346      212930.00    958964.00
  271.19        2964.50           2349      228232.00   1030378.00
  271.22        2964.75           2353      248884.00   1127324.00
  271.25        2965.00           2356      267169.00   1213706.00
  271.28        2965.25           2360      290148.00   1323003.00
  271.31        2965.50           2363      307104.00   1404189.00
  271.34        2965.75           2367      327611.00   1502995.00
  271.37        2966.00           2370      342426.00   1574803.00
  271.40        2966.25           2374      359635.00   1658669.00
  271.43        2966.50           2378      372389.00   1721144.00
  271.46        2966.75           2381      376001.00   1738887.00
  271.49        2967.00           2385      378968.00   1753478.00
  271.52        2967.25           2388      378181.00   1749606.00
  271.55        2967.50           2392      378220.00   1749798.00
  271.58        2967.75           2395      376917.00   1743390.00
  271.61        2968.00           2399      371286.00   1715730.00
  271.65        2968.25           2402      360897.00   1664839.00
  271.68        2968.50           2406      344594.00   1585341.00
  271.71        2968.75           2409      330336.00   1516176.00
  271.74        2969.00           2413      310183.00   1418981.00
  271.77        2969.25           2417      288154.00   1313486.00
  271.80        2969.50           2420      272756.00   1240203.00
  271.83        2969.75           2424      251430.00   1139320.00
  271.86        2970.00           2427      236132.00   1067386.00
  271.89        2970.25           2431      212883.00    958745.20
  271.92        2970.50           2434      195650.00    878740.40
  271.95        2970.75           2438      172857.00    773597.50
  271.98        2971.00           2441      155351.00    693357.40
  272.01        2971.25           2445      133449.00    593587.80
  272.04        2971.50           2449      112326.00    498010.20
  272.07        2971.75           2452       96542.00    426997.40
  272.10        2972.00           2456       74330.00    327646.30
  272.13        2972.25           2459       57174.00    251369.40
  272.17        2972.50           2463       34258.00    150098.90
  272.20        2972.75           2466       20348.00     88967.06
  272.23        2973.00           2470        7008.00     30578.42
  272.26        2973.25           2473        3218.00     14031.98
  272.29        2973.50           2477        2183.00      9516.59
  272.32        2973.75           2481        1966.00      8570.07
  272.35        2974.00           2484        1974.00      8604.96
  272.38        2974.25           2488        1912.00      8334.53
  272.41        2974.50           2491        1897.00      8269.11
  272.44        2974.75           2495        1835.00      7998.69
  272.47        2975.00           2498        1829.00      7972.52
  272.50        2975.25           2502        1768.00      7706.47
  272.53        2975.50           2505        1751.00      7632.32
  272.56        2975.75           2509        1778.00      7750.08
  272.59        2976.00           2512        1713.00      7466.59
  272.62        2976.25           2516        1766.00      7697.74
  272.65        2976.50           2520        1706.00      7436.06
  272.69        2976.75           2523        1686.00      7348.83
  272.72        2977.00           2527        1671.00      7283.41
  272.75        2977.25           2530        1678.00      7313.94
  272.78        2977.50           2534        1626.00      7087.15
  272.82        2977.75           2537        1631.00      7108.95
  272.85        2978.00           2541        1625.00      7082.79
  272.88        2978.25           2544        1580.00      6886.53
  272.91        2978.50           2548        1606.00      6999.92
  272.94        2978.75           2552        1592.00      6938.86
  272.97        2979.00           2555        1556.00      6781.86
  273.00        2979.25           2559        1547.00      6742.61
  273.03        2979.50           2562        1564.00      6816.75
  273.06        2979.75           2566        1526.00      6651.02
  273.09        2980.00           2569        1521.00      6629.22
  273.12        2980.25           2573        1547.00      6742.61
  273.15        2980.50           2577        1520.00      6624.86
  273.18        2980.75           2580        1510.00      6581.25
  273.21        2981.00           2584        1488.00      6485.30
  273.24        2981.25           2587        1469.00      6402.44
  273.28        2981.50           2591        1471.00      6411.16
  273.31        2981.75           2594        1451.00      6323.94
  273.34        2982.00           2598        1453.00      6332.66
  273.37        2982.25           2601        1473.00      6419.88
  273.40        2982.50           2605        1464.00      6380.64
  273.43        2982.75           2609        1446.00      6302.14
  273.46        2983.00           2612        1444.00      6293.41
  273.50        2983.25           2616        1448.00      6310.86
  273.54        2983.50           2619        1429.00      6228.00
  273.57        2983.75           2623        1407.00      6132.05
  273.60        2984.00           2626        1423.00      6201.83
HS scan finished at 04:33:49
end
************************************************************
  HS Scan of (1) Internal mercury lamp
************************************************************
Integration time is 0.2294 seconds per sample
dh101118Reading 51.44 .94 3.01pr1000
************************************************************
Dead Time -------------------------  3.4E-08 
Number of Cycles Used -------------  4 
Starting Wavelength (Angstroms) ---  2950 
Final Wavelength (Angstoms) -------  2984 
Wavelength Increment (Angstroms) --  .25 
Filter Wheel #1 Position ---------- (1) Ground quartz diffuser (ND=2.32)
Filter Wheel #2 Position ---------- (1) Neutral Density 0.494



************************************************************
HS scan start time = 17:07:33
Dark Count =  .5 


Time (GMT)  Wavelength (Ang)  Step Number  Raw Counts  Counts/Second

 1028.44        2950.00           2144         997.00      4344.58
 1028.64        2950.25           2147         989.00      4309.70
 1028.67        2950.50           2151         982.00      4279.18
 1028.70        2950.75           2155        1012.00      4409.99
 1028.73        2951.00           2158         969.00      4222.49
 1028.76        2951.25           2162         987.00      4300.98
 1028.79        2951.50           2165         981.00      4274.82
 1028.82        2951.75           2169        1011.00      4405.63
 1028.85        2952.00           2172        1036.00      4514.64
 1028.88        2952.25           2176        1014.00      4418.71
 1028.91        2952.50           2179         978.00      4261.73
 1028.94        2952.75           2183        1032.00      4497.20
 1028.97        2953.00           2186        1001.00      4362.02
 1029.00        2953.25           2190        1007.00      4388.19
 1029.03        2953.50           2193        1021.00      4449.23
 1029.06        2953.75           2197        1020.00      4444.87
 1029.09        2954.00           2200        1036.00      4514.64
 1029.12        2954.25           2204        1032.00      4497.20
 1029.16        2954.50           2208        1017.00      4431.79
 1029.19        2954.75           2211        1034.00      4505.92
 1029.22        2955.00           2215        1005.00      4379.47
 1029.25        2955.25           2218        1027.00      4475.40
 1029.28        2955.50           2222        1045.00      4553.89
 1029.31        2955.75           2225        1066.00      4645.46
 1029.34        2956.00           2229        1062.00      4628.02
 1029.37        2956.25           2232        1067.00      4649.82
 1029.40        2956.50           2236        1079.00      4702.15
 1029.43        2956.75           2239        1115.00      4859.13
 1029.46        2957.00           2243        1103.00      4806.80
 1029.49        2957.25           2246        1093.00      4763.20
 1029.52        2957.50           2250        1110.00      4837.33
 1029.55        2957.75           2254        1134.00      4941.98
 1029.58        2958.00           2257        1136.00      4950.70
 1029.61        2958.25           2261        1153.00      5024.83
 1029.64        2958.50           2264        1174.00      5116.41
 1029.68        2958.75           2268        1164.00      5072.80
 1029.71        2959.00           2271        1198.00      5221.07
 1029.74        2959.25           2275        1195.00      5207.98
 1029.77        2959.50           2278        1189.00      5181.82
 1029.80        2959.75           2282        1212.00      5282.12
 1029.83        2960.00           2285        1232.00      5369.33
 1029.86        2960.25           2289        1254.00      5465.27
 1029.89        2960.50           2293        1279.00      5574.29
 1029.92        2960.75           2296        1299.00      5661.51
 1029.95        2961.00           2300        1370.00      5971.13
 1029.98        2961.25           2303        1530.00      6668.91
 1030.01        2961.50           2307        3553.00     15494.21
 1030.04        2961.75           2310        9037.00     39444.76
 1030.07        2962.00           2314       20361.00     89024.50
 1030.10        2962.25           2317       30324.00    132784.30
 1030.13        2962.50           2321       43988.00    193012.70
 1030.16        2962.75           2324       54998.00    241723.50
 1030.20        2963.00           2328       69931.00    308050.50
 1030.23        2963.25           2331       81485.00    359576.30
 1030.26        2963.50           2335       99356.00    439632.90
 1030.29        2963.75           2339      114728.00    508847.70
 1030.32        2964.00           2342      125607.00    558031.40
 1030.35        2964.25           2346      140051.00    623590.10
 1030.38        2964.50           2349      152007.00    678080.60
 1030.41        2964.75           2353      169388.00    757662.10
 1030.44        2965.00           2356      181148.00    811755.70
 1030.47        2965.25           2360      194934.00    875426.40
 1030.50        2965.50           2363      205394.00    923923.40
 1030.53        2965.75           2367      215867.00    972644.00
 1030.56        2966.00           2370      228919.00   1033593.00
 1030.59        2966.25           2374      243828.00   1103530.00
 1030.62        2966.50           2378      256741.00   1164379.00
 1030.65        2966.75           2381      261785.00   1188217.00
 1030.68        2967.00           2385      264052.00   1198944.00
 1030.72        2967.25           2388      264432.00   1200743.00
 1030.75        2967.50           2392      264405.00   1200615.00
 1030.78        2967.75           2395      264163.00   1199469.00
 1030.81        2968.00           2399      263538.00   1196511.00
 1030.84        2968.25           2402      259400.00   1176940.00
 1030.87        2968.50           2406      247096.00   1118905.00
 1030.90        2968.75           2409      236700.00   1070051.00
 1030.93        2969.00           2413      222452.00   1003362.00
 1030.96        2969.25           2417      207381.00    933154.30
 1030.99        2969.50           2420      196853.00    884311.50
 1031.02        2969.75           2424      181855.00    815014.10
 1031.05        2970.00           2427      168413.00    753186.40
 1031.08        2970.25           2431      150433.00    670895.30
 1031.11        2970.50           2434      138501.00    616540.80
 1031.14        2970.75           2438      122277.00    542958.90
 1031.17        2971.00           2441      109978.00    487425.00
 1031.20        2971.25           2445       94966.00    419926.30
 1031.24        2971.50           2449       79628.00    351282.70
 1031.27        2971.75           2452       66909.00    294603.60
 1031.30        2972.00           2456       51041.00    224198.10
 1031.33        2972.25           2459       38947.00    170764.10
 1031.37        2972.50           2463       23837.00    104277.10
 1031.40        2972.75           2466       13761.00     60107.46
 1031.43        2973.00           2470        4888.00     21321.03
 1031.46        2973.25           2473        2361.00     10293.49
 1031.49        2973.50           2477        1501.00      6542.43
 1031.52        2973.75           2481        1340.00      5840.31
 1031.55        2974.00           2484        1318.00      5744.37
 1031.58        2974.25           2488        1279.00      5574.29
 1031.62        2974.50           2491        1277.00      5565.57
 1031.65        2974.75           2495        1219.00      5312.64
 1031.68        2975.00           2498        1249.00      5443.47
 1031.71        2975.25           2502        1232.00      5369.33
 1031.74        2975.50           2505        1167.00      5085.88
 1031.77        2975.75           2509        1191.00      5190.54
 1031.80        2976.00           2512        1143.00      4981.23
 1031.83        2976.25           2516        1171.00      5103.33
 1031.86        2976.50           2520        1154.00      5029.20
 1031.89        2976.75           2523        1154.00      5029.20
 1031.92        2977.00           2527        1106.00      4819.88
 1031.95        2977.25           2530        1082.00      4715.23
 1031.98        2977.50           2534        1088.00      4741.39
 1032.01        2977.75           2537        1083.00      4719.59
 1032.04        2978.00           2541        1085.00      4728.31
 1032.07        2978.25           2544        1078.00      4697.79
 1032.10        2978.50           2548        1059.00      4614.93
 1032.14        2978.75           2552        1022.00      4453.60
 1032.17        2979.00           2555        1054.00      4593.13
 1032.20        2979.25           2559        1024.00      4462.32
 1032.23        2979.50           2562        1013.00      4414.35
 1032.26        2979.75           2566        1023.00      4457.96
 1032.29        2980.00           2569        1007.00      4388.19
 1032.32        2980.25           2573        1009.00      4396.91
 1032.35        2980.50           2577         988.00      4305.34
 1032.38        2980.75           2580         987.00      4300.98
 1032.41        2981.00           2584         994.00      4331.50
 1032.44        2981.25           2587         977.00      4257.37
 1032.47        2981.50           2591         964.00      4200.69
 1032.50        2981.75           2594         965.00      4205.05
 1032.53        2982.00           2598         975.00      4248.65
 1032.56        2982.25           2601         984.00      4287.90
 1032.59        2982.50           2605         977.00      4257.37
 1032.62        2982.75           2609         962.00      4191.97
 1032.66        2983.00           2612         969.00      4222.49
 1032.69        2983.25           2616         968.00      4218.13
 1032.72        2983.50           2619         966.00      4209.41
 1032.75        2983.75           2623         961.00      4187.61
 1032.78        2984.00           2626         956.00      4165.80
HS scan finished at 17:13:00
end
