************************************************************
  HS Scan of (1) Internal mercury lamp
************************************************************
Integration time is 0.2294 seconds per sample
dh091117Reading 51.44 .94 2.6pr1000
************************************************************
Dead Time -------------------------  3.4E-08 
Number of Cycles Used -------------  4 
Starting Wavelength (Angstroms) ---  2950 
Final Wavelength (Angstoms) -------  2984 
Wavelength Increment (Angstroms) --  .25 
Filter Wheel #1 Position ---------- (1) Ground quartz diffuser (ND=2.32)
Filter Wheel #2 Position ---------- (1) Neutral Density 0.494



************************************************************
HS scan start time = 04:27:14
Dark Count =  .5 


Time (GMT)  Wavelength (Ang)  Step Number  Raw Counts  Counts/Second

  268.14        2950.00           2144         149.00       647.36
  268.33        2950.25           2147         156.00       677.87
  268.36        2950.50           2151         155.00       673.51
  268.39        2950.75           2155         155.00       673.51
  268.42        2951.00           2158         153.00       664.79
  268.45        2951.25           2162         157.00       682.23
  268.48        2951.50           2165         147.00       638.64
  268.52        2951.75           2169         157.00       682.23
  268.55        2952.00           2172         155.00       673.51
  268.58        2952.25           2176         157.00       682.23
  268.61        2952.50           2179         151.00       656.07
  268.64        2952.75           2183         164.00       712.75
  268.67        2953.00           2186         148.00       643.00
  268.70        2953.25           2190         149.00       647.36
  268.73        2953.50           2193         142.00       616.84
  268.76        2953.75           2197         156.00       677.87
  268.79        2954.00           2200         160.00       695.31
  268.82        2954.25           2204         156.00       677.87
  268.85        2954.50           2208         152.00       660.43
  268.88        2954.75           2211         158.00       686.59
  268.91        2955.00           2215         164.00       712.75
  268.94        2955.25           2218         160.00       695.31
  268.97        2955.50           2222         158.00       686.59
  269.00        2955.75           2225         172.00       747.62
  269.03        2956.00           2229         165.00       717.11
  269.07        2956.25           2232         162.00       704.03
  269.10        2956.50           2236         175.00       760.70
  269.13        2956.75           2239         176.00       765.06
  269.16        2957.00           2243         177.00       769.42
  269.19        2957.25           2246         179.00       778.14
  269.22        2957.50           2250         166.00       721.46
  269.25        2957.75           2254         179.00       778.14
  269.28        2958.00           2257         184.00       799.93
  269.31        2958.25           2261         176.00       765.06
  269.34        2958.50           2264         187.00       813.01
  269.37        2958.75           2268         195.00       847.89
  269.40        2959.00           2271         189.00       821.73
  269.43        2959.25           2275         203.00       882.76
  269.46        2959.50           2278         184.00       799.93
  269.49        2959.75           2282         220.00       956.88
  269.52        2960.00           2285         192.00       834.81
  269.55        2960.25           2289         203.00       882.76
  269.59        2960.50           2293         220.00       956.88
  269.62        2960.75           2296         239.00      1039.71
  269.65        2961.00           2300         277.00      1205.37
  269.68        2961.25           2303         436.00      1898.55
  269.71        2961.50           2307        1699.00      7405.96
  269.74        2961.75           2310        3605.00     15721.13
  269.77        2962.00           2314        6824.00     29775.12
  269.80        2962.25           2317        9413.00     41088.31
  269.83        2962.50           2321       12234.00     53425.21
  269.86        2962.75           2324       14599.00     63775.89
  269.89        2963.00           2328       17963.00     78511.40
  269.92        2963.25           2331       20921.00     91480.69
  269.95        2963.50           2335       24826.00    108619.70
  269.98        2963.75           2339       27900.00    122125.50
  270.01        2964.00           2342       30650.00    134218.30
  270.04        2964.25           2346       33986.00    148901.50
  270.08        2964.50           2349       36313.00    159152.30
  270.11        2964.75           2353       40133.00    175995.50
  270.14        2965.00           2356       43000.00    188649.50
  270.17        2965.25           2360       46380.00    203581.70
  270.20        2965.50           2363       48849.00    214498.90
  270.23        2965.75           2367       51997.00    228430.30
  270.26        2966.00           2370       54259.00    238448.90
  270.29        2966.25           2374       56913.00    250212.50
  270.32        2966.50           2378       58503.00    257264.50
  270.35        2966.75           2381       58972.00    259345.30
  270.38        2967.00           2385       58983.00    259394.10
  270.41        2967.25           2388       59060.00    259735.70
  270.44        2967.50           2392       58727.00    258258.20
  270.47        2967.75           2395       58770.00    258449.00
  270.50        2968.00           2399       56997.00    250584.90
  270.53        2968.25           2402       54912.00    241342.40
  270.56        2968.50           2406       51509.00    226269.80
  270.59        2968.75           2409       49060.00    215432.30
  270.63        2969.00           2413       45871.00    201332.10
  270.66        2969.25           2417       42657.00    187135.00
  270.69        2969.50           2420       40349.00    176948.50
  270.72        2969.75           2424       37109.00    162660.40
  270.75        2970.00           2427       34717.00    152120.90
  270.78        2970.25           2431       30964.00    135599.80
  270.81        2970.50           2434       28048.00    122776.10
  270.84        2970.75           2438       24604.00    107644.80
  270.87        2971.00           2441       22148.00     96863.81
  270.90        2971.25           2445       18703.00     81754.84
  270.93        2971.50           2449       15528.00     67843.76
  270.96        2971.75           2452       13014.00     56838.16
  270.99        2972.00           2456        9857.00     43029.34
  271.02        2972.25           2459        7468.00     32588.40
  271.05        2972.50           2463        4149.00     18095.26
  271.08        2972.75           2466        2097.00      9141.90
  271.11        2973.00           2470         536.00      2334.54
  271.15        2973.25           2473         302.00      1314.36
  271.18        2973.50           2477         261.00      1135.61
  271.21        2973.75           2481         221.00       961.23
  271.24        2974.00           2484         218.00       948.16
  271.27        2974.25           2488         201.00       874.05
  271.30        2974.50           2491         205.00       891.48
  271.33        2974.75           2495         204.00       887.12
  271.36        2975.00           2498         195.00       847.89
  271.39        2975.25           2502         187.00       813.01
  271.42        2975.50           2505         184.00       799.93
  271.45        2975.75           2509         198.00       860.97
  271.48        2976.00           2512         190.00       826.09
  271.51        2976.25           2516         190.00       826.09
  271.54        2976.50           2520         187.00       813.01
  271.57        2976.75           2523         174.00       756.34
  271.60        2977.00           2527         183.00       795.58
  271.64        2977.25           2530         186.00       808.65
  271.67        2977.50           2534         165.00       717.11
  271.70        2977.75           2537         174.00       756.34
  271.73        2978.00           2541         152.00       660.43
  271.76        2978.25           2544         160.00       695.31
  271.79        2978.50           2548         161.00       699.67
  271.82        2978.75           2552         163.00       708.39
  271.86        2979.00           2555         171.00       743.26
  271.89        2979.25           2559         160.00       695.31
  271.92        2979.50           2562         152.00       660.43
  271.95        2979.75           2566         157.00       682.23
  271.98        2980.00           2569         153.00       664.79
  272.01        2980.25           2573         159.00       690.95
  272.04        2980.50           2577         172.00       747.62
  272.07        2980.75           2580         151.00       656.07
  272.10        2981.00           2584         152.00       660.43
  272.13        2981.25           2587         151.00       656.07
  272.16        2981.50           2591         151.00       656.07
  272.19        2981.75           2594         156.00       677.87
  272.22        2982.00           2598         146.00       634.28
  272.25        2982.25           2601         151.00       656.07
  272.28        2982.50           2605         153.00       664.79
  272.31        2982.75           2609         151.00       656.07
  272.34        2983.00           2612         155.00       673.51
  272.37        2983.25           2616         144.00       625.56
  272.41        2983.50           2619         142.00       616.84
  272.44        2983.75           2623         136.00       590.68
  272.47        2984.00           2626         141.00       612.48
HS scan finished at 04:32:41
end
************************************************************
  HS Scan of (1) Internal mercury lamp
************************************************************
Integration time is 0.2294 seconds per sample
dh091117Reading 51.44 .94 3.37pr1000
************************************************************
Dead Time -------------------------  3.4E-08 
Number of Cycles Used -------------  4 
Starting Wavelength (Angstroms) ---  2950 
Final Wavelength (Angstoms) -------  2984 
Wavelength Increment (Angstroms) --  .25 
Filter Wheel #1 Position ---------- (1) Ground quartz diffuser (ND=2.32)
Filter Wheel #2 Position ---------- (1) Neutral Density 0.494



************************************************************
HS scan start time = 17:07:28
Dark Count =  1.9 


Time (GMT)  Wavelength (Ang)  Step Number  Raw Counts  Counts/Second

 1028.37        2950.00           2144          93.00       397.13
 1028.56        2950.25           2147          90.00       384.05
 1028.59        2950.50           2151         100.00       427.64
 1028.62        2950.75           2155         107.00       458.16
 1028.65        2951.00           2158          98.00       418.92
 1028.68        2951.25           2162          95.00       405.85
 1028.72        2951.50           2165          92.00       392.77
 1028.75        2951.75           2169         111.00       475.60
 1028.78        2952.00           2172          98.00       418.92
 1028.81        2952.25           2176          97.00       414.57
 1028.84        2952.50           2179          99.00       423.28
 1028.87        2952.75           2183          93.00       397.13
 1028.90        2953.00           2186          99.00       423.28
 1028.93        2953.25           2190          89.00       379.69
 1028.96        2953.50           2193         101.00       432.00
 1028.99        2953.75           2197         103.00       440.72
 1029.02        2954.00           2200         110.00       471.24
 1029.05        2954.25           2204         141.00       606.38
 1029.09        2954.50           2208         102.00       436.36
 1029.13        2954.75           2211         136.00       584.58
 1029.16        2955.00           2215         104.00       445.08
 1029.19        2955.25           2218         102.00       436.36
 1029.22        2955.50           2222         123.00       527.91
 1029.25        2955.75           2225         144.00       619.46
 1029.28        2956.00           2229         109.00       466.88
 1029.32        2956.25           2232         112.00       479.96
 1029.35        2956.50           2236         122.00       523.55
 1029.38        2956.75           2239         170.00       732.80
 1029.41        2957.00           2243         110.00       471.24
 1029.44        2957.25           2246         116.00       497.39
 1029.47        2957.50           2250         112.00       479.96
 1029.50        2957.75           2254         120.00       514.83
 1029.53        2958.00           2257         150.00       645.61
 1029.56        2958.25           2261         110.00       471.24
 1029.59        2958.50           2264         151.00       649.97
 1029.62        2958.75           2268         131.00       562.78
 1029.65        2959.00           2271         120.00       514.83
 1029.68        2959.25           2275         144.00       619.46
 1029.72        2959.50           2278         156.00       671.77
 1029.75        2959.75           2282         140.00       602.02
 1029.78        2960.00           2285         155.00       667.41
 1029.81        2960.25           2289         179.00       772.03
 1029.84        2960.50           2293         149.00       641.25
 1029.87        2960.75           2296         150.00       645.61
 1029.90        2961.00           2300         184.00       793.83
 1029.93        2961.25           2303         361.00      1565.47
 1029.96        2961.50           2307        1333.00      5803.67
 1029.99        2961.75           2310        2740.00     11940.77
 1030.02        2962.00           2314        5129.00     22367.05
 1030.05        2962.25           2317        6957.00     30349.96
 1030.08        2962.50           2321        9144.00     39906.33
 1030.11        2962.75           2324       10998.00     48012.49
 1030.14        2963.00           2328       13540.00     59134.03
 1030.17        2963.25           2331       15442.00     67461.01
 1030.20        2963.50           2335       17882.00     78150.28
 1030.24        2963.75           2339       20364.00     89031.52
 1030.27        2964.00           2342       21913.00     95826.53
 1030.30        2964.25           2346       24883.00    108863.90
 1030.33        2964.50           2349       26416.00    115597.70
 1030.36        2964.75           2353       28842.00    126260.60
 1030.39        2965.00           2356       30652.00    134221.00
 1030.42        2965.25           2360       32877.00    144012.50
 1030.45        2965.50           2363       34789.00    152431.80
 1030.48        2965.75           2367       37008.00    162209.10
 1030.51        2966.00           2370       38785.00    170043.50
 1030.54        2966.25           2374       40637.00    178213.00
 1030.57        2966.50           2378       41548.00    182233.30
 1030.60        2966.75           2381       41660.00    182727.60
 1030.63        2967.00           2385       41747.00    183111.70
 1030.66        2967.25           2388       41917.00    183862.00
 1030.69        2967.50           2392       41659.00    182723.20
 1030.72        2967.75           2395       41171.00    180569.50
 1030.76        2968.00           2399       40109.00    175883.40
 1030.79        2968.25           2402       38557.00    169038.10
 1030.82        2968.50           2406       35960.00    157590.60
 1030.85        2968.75           2409       34362.00    150551.10
 1030.88        2969.00           2413       31916.00    139782.60
 1030.91        2969.25           2417       30030.00    131484.90
 1030.94        2969.50           2420       28169.00    123301.80
 1030.97        2969.75           2424       25830.00    113023.30
 1031.00        2970.00           2427       23991.00    104947.00
 1031.03        2970.25           2431       21530.00     94146.13
 1031.06        2970.50           2434       19698.00     86110.94
 1031.09        2970.75           2438       16854.00     73645.81
 1031.12        2971.00           2441       15182.00     66322.45
 1031.15        2971.25           2445       12702.00     55466.76
 1031.18        2971.50           2449       10377.00     45296.82
 1031.21        2971.75           2452        8718.00     38044.38
 1031.24        2972.00           2456        6457.00     28166.02
 1031.28        2972.25           2459        4586.00     19996.59
 1031.31        2972.50           2463        2360.00     10283.02
 1031.34        2972.75           2466        1206.00      5249.85
 1031.37        2973.00           2470         405.00      1757.30
 1031.40        2973.25           2473         212.00       915.90
 1031.43        2973.50           2477         175.00       754.60
 1031.46        2973.75           2481         156.00       671.77
 1031.49        2974.00           2484         147.00       632.53
 1031.52        2974.25           2488         138.00       593.30
 1031.55        2974.50           2491         165.00       711.00
 1031.58        2974.75           2495         142.00       610.74
 1031.61        2975.00           2498         160.00       689.21
 1031.64        2975.25           2502         142.00       610.74
 1031.67        2975.50           2505         148.00       636.89
 1031.70        2975.75           2509         152.00       654.33
 1031.73        2976.00           2512         171.00       737.16
 1031.76        2976.25           2516         117.00       501.75
 1031.80        2976.50           2520         149.00       641.25
 1031.83        2976.75           2523         136.00       584.58
 1031.86        2977.00           2527         110.00       471.24
 1031.89        2977.25           2530         110.00       471.24
 1031.92        2977.50           2534         129.00       554.06
 1031.95        2977.75           2537         113.00       484.31
 1031.98        2978.00           2541         109.00       466.88
 1032.01        2978.25           2544         122.00       523.55
 1032.04        2978.50           2548         117.00       501.75
 1032.07        2978.75           2552         111.00       475.60
 1032.10        2979.00           2555         127.00       545.35
 1032.13        2979.25           2559         102.00       436.36
 1032.16        2979.50           2562          97.00       414.57
 1032.19        2979.75           2566         119.00       510.47
 1032.22        2980.00           2569         104.00       445.08
 1032.25        2980.25           2573          99.00       423.28
 1032.28        2980.50           2577          98.00       418.92
 1032.32        2980.75           2580          93.00       397.13
 1032.35        2981.00           2584          99.00       423.28
 1032.38        2981.25           2587         108.00       462.52
 1032.41        2981.50           2591          93.00       397.13
 1032.44        2981.75           2594          91.00       388.41
 1032.47        2982.00           2598         118.00       506.11
 1032.50        2982.25           2601          92.00       392.77
 1032.53        2982.50           2605         100.00       427.64
 1032.56        2982.75           2609         119.00       510.47
 1032.59        2983.00           2612          94.00       401.49
 1032.62        2983.25           2616          94.00       401.49
 1032.65        2983.50           2619         101.00       432.00
 1032.68        2983.75           2623          91.00       388.41
 1032.71        2984.00           2626          99.00       423.28
HS scan finished at 17:12:56
end
