************************************************************
  HS Scan of (1) Internal mercury lamp
************************************************************
Integration time is 0.2294 seconds per sample
dh151117Reading 51.44 .94 3.09pr1000
************************************************************
Dead Time -------------------------  3.4E-08 
Number of Cycles Used -------------  4 
Starting Wavelength (Angstroms) ---  2950 
Final Wavelength (Angstoms) -------  2984 
Wavelength Increment (Angstroms) --  .25 
Filter Wheel #1 Position ---------- (1) Ground quartz diffuser (ND=2.32)
Filter Wheel #2 Position ---------- (1) Neutral Density 0.494



************************************************************
HS scan start time = 04:36:03
Dark Count =  1.1 


Time (GMT)  Wavelength (Ang)  Step Number  Raw Counts  Counts/Second

  276.95        2950.00           2144         107.00       461.65
  277.14        2950.25           2147         122.00       527.04
  277.17        2950.50           2151          98.00       422.41
  277.20        2950.75           2155         122.00       527.04
  277.23        2951.00           2158          96.00       413.69
  277.26        2951.25           2162         104.00       448.57
  277.29        2951.50           2165         126.00       544.47
  277.32        2951.75           2169         121.00       522.68
  277.35        2952.00           2172         114.00       492.16
  277.38        2952.25           2176         122.00       527.04
  277.41        2952.50           2179         109.00       470.37
  277.44        2952.75           2183         103.00       444.21
  277.47        2953.00           2186         108.00       466.01
  277.51        2953.25           2190         128.00       553.19
  277.54        2953.50           2193         128.00       553.19
  277.57        2953.75           2197         123.00       531.40
  277.60        2954.00           2200         120.00       518.32
  277.63        2954.25           2204         121.00       522.68
  277.66        2954.50           2208          99.00       426.77
  277.69        2954.75           2211         111.00       479.08
  277.72        2955.00           2215         130.00       561.91
  277.75        2955.25           2218          98.00       422.41
  277.78        2955.50           2222         103.00       444.21
  277.81        2955.75           2225         114.00       492.16
  277.84        2956.00           2229         134.00       579.35
  277.87        2956.25           2232         133.00       574.99
  277.90        2956.50           2236         120.00       518.32
  277.93        2956.75           2239         150.00       649.10
  277.96        2957.00           2243         133.00       574.99
  277.99        2957.25           2246         158.00       683.97
  278.03        2957.50           2250         127.00       548.83
  278.06        2957.75           2254         127.00       548.83
  278.09        2958.00           2257         117.00       505.24
  278.12        2958.25           2261         131.00       566.27
  278.15        2958.50           2264         130.00       561.91
  278.18        2958.75           2268         131.00       566.27
  278.21        2959.00           2271         142.00       614.22
  278.24        2959.25           2275         139.00       601.15
  278.27        2959.50           2278         161.00       697.05
  278.30        2959.75           2282         132.00       570.63
  278.33        2960.00           2285         136.00       588.07
  278.36        2960.25           2289         148.00       640.38
  278.39        2960.50           2293         151.00       653.46
  278.42        2960.75           2296         161.00       697.05
  278.45        2961.00           2300         182.00       788.60
  278.48        2961.25           2303         348.00      1512.28
  278.51        2961.50           2307        1282.00      5584.76
  278.54        2961.75           2310        2517.00     10971.40
  278.58        2962.00           2314        4429.00     19314.77
  278.61        2962.25           2317        5846.00     25501.18
  278.64        2962.50           2321        7700.00     33599.39
  278.67        2962.75           2324        9162.00     39988.51
  278.70        2963.00           2328       11285.00     49271.23
  278.73        2963.25           2331       12800.00     55899.08
  278.76        2963.50           2335       14959.00     65349.49
  278.79        2963.75           2339       16829.00     73539.80
  278.82        2964.00           2342       18380.00     80336.40
  278.85        2964.25           2346       20619.00     90153.42
  278.88        2964.50           2349       22035.00     96365.35
  278.91        2964.75           2353       24171.00    105740.90
  278.94        2965.00           2356       25795.00    112873.10
  278.97        2965.25           2360       27697.00    121230.60
  279.00        2965.50           2363       29552.00    129386.20
  279.03        2965.75           2367       31427.00    137634.30
  279.07        2966.00           2370       33045.00    144755.60
  279.10        2966.25           2374       34303.00    150294.80
  279.13        2966.50           2378       35146.00    154007.90
  279.16        2966.75           2381       35123.00    153906.60
  279.19        2967.00           2385       35210.00    154289.80
  279.22        2967.25           2388       35142.00    153990.30
  279.25        2967.50           2392       35222.00    154342.70
  279.28        2967.75           2395       34892.00    152889.00
  279.31        2968.00           2399       33686.00    147577.80
  279.34        2968.25           2402       32455.00    142158.40
  279.37        2968.50           2406       30502.00    133564.60
  279.40        2968.75           2409       28964.00    126800.50
  279.43        2969.00           2413       26975.00    118057.50
  279.46        2969.25           2417       25346.00    110900.80
  279.49        2969.50           2420       23677.00    103572.00
  279.52        2969.75           2424       21447.00     93785.52
  279.55        2970.00           2427       20075.00     87767.62
  279.59        2970.25           2431       17881.00     78149.40
  279.62        2970.50           2434       16246.00     70985.86
  279.65        2970.75           2438       14248.00     62236.61
  279.68        2971.00           2441       12716.00     55531.52
  279.71        2971.25           2445       10672.00     46590.32
  279.74        2971.50           2449        8873.00     38725.33
  279.77        2971.75           2452        7429.00     32415.39
  279.80        2972.00           2456        5594.00     24400.79
  279.83        2972.25           2459        3999.00     17437.97
  279.86        2972.50           2463        2044.00      8908.10
  279.89        2972.75           2466        1019.00      4437.90
  279.92        2973.00           2470         332.00      1442.53
  279.95        2973.25           2473         214.00       928.10
  279.98        2973.50           2477         156.00       675.26
  280.01        2973.75           2481         158.00       683.97
  280.04        2974.00           2484         169.00       731.93
  280.07        2974.25           2488         143.00       618.58
  280.10        2974.50           2491         147.00       636.02
  280.14        2974.75           2495         155.00       670.90
  280.17        2975.00           2498         138.00       596.79
  280.20        2975.25           2502         155.00       670.90
  280.23        2975.50           2505         140.00       605.51
  280.26        2975.75           2509         125.00       540.11
  280.29        2976.00           2512         126.00       544.47
  280.32        2976.25           2516         134.00       579.35
  280.35        2976.50           2520         145.00       627.30
  280.38        2976.75           2523         121.00       522.68
  280.41        2977.00           2527         151.00       653.46
  280.44        2977.25           2530         125.00       540.11
  280.47        2977.50           2534         143.00       618.58
  280.50        2977.75           2537         132.00       570.63
  280.53        2978.00           2541         126.00       544.47
  280.56        2978.25           2544         104.00       448.57
  280.59        2978.50           2548         134.00       579.35
  280.63        2978.75           2552         109.00       470.37
  280.66        2979.00           2555         112.00       483.44
  280.69        2979.25           2559         123.00       531.40
  280.72        2979.50           2562         125.00       540.11
  280.75        2979.75           2566         103.00       444.21
  280.78        2980.00           2569         122.00       527.04
  280.81        2980.25           2573         106.00       457.29
  280.84        2980.50           2577         109.00       470.37
  280.87        2980.75           2580         120.00       518.32
  280.90        2981.00           2584         139.00       601.15
  280.93        2981.25           2587         103.00       444.21
  280.96        2981.50           2591         104.00       448.57
  280.99        2981.75           2594         103.00       444.21
  281.02        2982.00           2598          93.00       400.62
  281.05        2982.25           2601         100.00       431.13
  281.08        2982.50           2605         102.00       439.85
  281.11        2982.75           2609         122.00       527.04
  281.15        2983.00           2612         100.00       431.13
  281.18        2983.25           2616         103.00       444.21
  281.21        2983.50           2619         110.00       474.72
  281.24        2983.75           2623         102.00       439.85
  281.27        2984.00           2626          98.00       422.41
HS scan finished at 04:41:29
end
************************************************************
  HS Scan of (1) Internal mercury lamp
************************************************************
Integration time is 0.2294 seconds per sample
dh151117Reading 51.44 .94 3.31pr1000
************************************************************
Dead Time -------------------------  3.4E-08 
Number of Cycles Used -------------  4 
Starting Wavelength (Angstroms) ---  2950 
Final Wavelength (Angstoms) -------  2984 
Wavelength Increment (Angstroms) --  .25 
Filter Wheel #1 Position ---------- (1) Ground quartz diffuser (ND=2.32)
Filter Wheel #2 Position ---------- (1) Neutral Density 0.494



************************************************************
HS scan start time = 17:07:21
Dark Count =  1.6 


Time (GMT)  Wavelength (Ang)  Step Number  Raw Counts  Counts/Second

 1028.25        2950.00           2144          85.00       363.56
 1028.44        2950.25           2147          69.00       293.81
 1028.47        2950.50           2151          72.00       306.89
 1028.50        2950.75           2155          79.00       337.41
 1028.53        2951.00           2158          81.00       346.12
 1028.57        2951.25           2162          75.00       319.97
 1028.60        2951.50           2165          87.00       372.28
 1028.63        2951.75           2169          86.00       367.92
 1028.66        2952.00           2172          80.00       341.77
 1028.69        2952.25           2176          86.00       367.92
 1028.72        2952.50           2179          84.00       359.20
 1028.75        2952.75           2183          82.00       350.48
 1028.78        2953.00           2186          82.00       350.48
 1028.81        2953.25           2190          87.00       372.28
 1028.84        2953.50           2193          86.00       367.92
 1028.87        2953.75           2197          82.00       350.48
 1028.90        2954.00           2200          88.00       376.64
 1028.93        2954.25           2204          84.00       359.20
 1028.96        2954.50           2208          89.00       381.00
 1028.99        2954.75           2211          84.00       359.20
 1029.02        2955.00           2215          87.00       372.28
 1029.05        2955.25           2218          89.00       381.00
 1029.09        2955.50           2222          88.00       376.64
 1029.12        2955.75           2225          88.00       376.64
 1029.15        2956.00           2229          97.00       415.87
 1029.18        2956.25           2232          84.00       359.20
 1029.21        2956.50           2236          91.00       389.72
 1029.24        2956.75           2239          87.00       372.28
 1029.27        2957.00           2243          86.00       367.92
 1029.30        2957.25           2246          83.00       354.84
 1029.33        2957.50           2250          93.00       398.44
 1029.36        2957.75           2254          89.00       381.00
 1029.39        2958.00           2257          92.00       394.08
 1029.42        2958.25           2261          96.00       411.51
 1029.45        2958.50           2264         102.00       437.67
 1029.48        2958.75           2268          98.00       420.23
 1029.51        2959.00           2271          97.00       415.87
 1029.54        2959.25           2275         115.00       494.34
 1029.57        2959.50           2278          99.00       424.59
 1029.61        2959.75           2282         103.00       442.03
 1029.64        2960.00           2285         117.00       503.06
 1029.67        2960.25           2289         124.00       533.58
 1029.70        2960.50           2293         107.00       459.47
 1029.73        2960.75           2296         118.00       507.42
 1029.76        2961.00           2300         153.00       660.00
 1029.79        2961.25           2303         293.00      1270.33
 1029.82        2961.50           2307         988.00      4300.54
 1029.85        2961.75           2310        1930.00      8408.68
 1029.88        2962.00           2314        3432.00     14961.40
 1029.91        2962.25           2317        4548.00     19832.03
 1029.94        2962.50           2321        6087.00     26551.42
 1029.97        2962.75           2324        7274.00     31736.06
 1030.00        2963.00           2328        8828.00     38526.46
 1030.03        2963.25           2331        9933.00     43356.81
 1030.06        2963.50           2335       11821.00     51613.60
 1030.09        2963.75           2339       13318.00     58163.74
 1030.13        2964.00           2342       14604.00     63792.97
 1030.16        2964.25           2346       16300.00     71220.21
 1030.19        2964.50           2349       17332.00     75741.45
 1030.22        2964.75           2353       18978.00     82955.53
 1030.25        2965.00           2356       20279.00     88660.06
 1030.28        2965.25           2360       21914.00     95832.24
 1030.31        2965.50           2363       22946.00    100361.10
 1030.34        2965.75           2367       24350.00    106524.60
 1030.37        2966.00           2370       25539.00    111746.40
 1030.40        2966.25           2374       26747.00    117053.40
 1030.43        2966.50           2378       27368.00    119782.40
 1030.46        2966.75           2381       27457.00    120173.50
 1030.50        2967.00           2385       27553.00    120595.50
 1030.53        2967.25           2388       27650.00    121021.80
 1030.56        2967.50           2392       27438.00    120090.00
 1030.59        2967.75           2395       27080.00    118516.70
 1030.62        2968.00           2399       26475.00    115858.30
 1030.65        2968.25           2402       25403.00    111149.00
 1030.68        2968.50           2406       23961.00    104816.70
 1030.72        2968.75           2409       22926.00    100273.30
 1030.75        2969.00           2413       21224.00     92805.02
 1030.78        2969.25           2417       19701.00     86125.41
 1030.81        2969.50           2420       18547.00     81066.21
 1030.84        2969.75           2424       16943.00     74037.06
 1030.87        2970.00           2427       15678.00     68495.87
 1030.90        2970.25           2431       14318.00     62540.87
 1030.93        2970.50           2434       13050.00     56990.89
 1030.96        2970.75           2438       11214.00     48958.50
 1030.99        2971.00           2441        9870.00     43081.37
 1031.02        2971.25           2445        8327.00     36336.93
 1031.05        2971.50           2449        6847.00     29870.78
 1031.08        2971.75           2452        5614.00     24485.94
 1031.11        2972.00           2456        4213.00     18369.80
 1031.14        2972.25           2459        3151.00     13735.27
 1031.17        2972.50           2463        1731.00      7540.73
 1031.20        2972.75           2466         801.00      3485.16
 1031.24        2973.00           2470         233.00      1008.75
 1031.27        2973.25           2473         141.00       607.68
 1031.30        2973.50           2477         140.00       603.33
 1031.33        2973.75           2481         113.00       485.62
 1031.36        2974.00           2484         169.00       729.75
 1031.39        2974.25           2488         126.00       542.29
 1031.42        2974.50           2491         112.00       481.26
 1031.45        2974.75           2495         103.00       442.03
 1031.48        2975.00           2498         110.00       472.54
 1031.51        2975.25           2502          96.00       411.51
 1031.54        2975.50           2505         102.00       437.67
 1031.57        2975.75           2509          95.00       407.15
 1031.60        2976.00           2512          88.00       376.64
 1031.63        2976.25           2516          94.00       402.80
 1031.66        2976.50           2520          96.00       411.51
 1031.69        2976.75           2523          94.00       402.80
 1031.72        2977.00           2527          98.00       420.23
 1031.76        2977.25           2530          93.00       398.44
 1031.79        2977.50           2534          97.00       415.87
 1031.82        2977.75           2537          90.00       385.36
 1031.85        2978.00           2541          91.00       389.72
 1031.88        2978.25           2544          84.00       359.20
 1031.91        2978.50           2548          95.00       407.15
 1031.94        2978.75           2552          82.00       350.48
 1031.97        2979.00           2555          78.00       333.05
 1032.01        2979.25           2559          78.00       333.05
 1032.04        2979.50           2562          85.00       363.56
 1032.07        2979.75           2566          88.00       376.64
 1032.10        2980.00           2569          79.00       337.41
 1032.13        2980.25           2573          85.00       363.56
 1032.16        2980.50           2577          81.00       346.12
 1032.19        2980.75           2580          79.00       337.41
 1032.22        2981.00           2584          84.00       359.20
 1032.25        2981.25           2587          87.00       372.28
 1032.28        2981.50           2591          75.00       319.97
 1032.31        2981.75           2594          86.00       367.92
 1032.34        2982.00           2598          88.00       376.64
 1032.37        2982.25           2601          69.00       293.81
 1032.40        2982.50           2605          71.00       302.53
 1032.43        2982.75           2609          78.00       333.05
 1032.46        2983.00           2612          73.00       311.25
 1032.50        2983.25           2616          76.00       324.33
 1032.53        2983.50           2619          73.00       311.25
 1032.56        2983.75           2623          75.00       319.97
 1032.59        2984.00           2626          73.00       311.25
HS scan finished at 17:12:49
end
