************************************************************
  HS Scan of (1) Internal mercury lamp
************************************************************
Integration time is 0.2294 seconds per sample
dh141118Reading 51.44 .94 3.07pr1000
************************************************************
Dead Time -------------------------  3.4E-08 
Number of Cycles Used -------------  4 
Starting Wavelength (Angstroms) ---  2950 
Final Wavelength (Angstoms) -------  2984 
Wavelength Increment (Angstroms) --  .25 
Filter Wheel #1 Position ---------- (1) Ground quartz diffuser (ND=2.32)
Filter Wheel #2 Position ---------- (1) Neutral Density 0.494



************************************************************
HS scan start time = 04:34:14
Dark Count =  .9 


Time (GMT)  Wavelength (Ang)  Step Number  Raw Counts  Counts/Second

  275.14        2950.00           2144        1497.00      6523.24
  275.33        2950.25           2147        1457.00      6348.80
  275.36        2950.50           2151        1456.00      6344.44
  275.40        2950.75           2155        1451.00      6322.63
  275.43        2951.00           2158        1438.00      6265.94
  275.46        2951.25           2162        1467.00      6392.41
  275.49        2951.50           2165        1451.00      6322.63
  275.52        2951.75           2169        1463.00      6374.97
  275.55        2952.00           2172        1474.00      6422.94
  275.58        2952.25           2176        1521.00      6627.91
  275.61        2952.50           2179        1542.00      6719.50
  275.64        2952.75           2183        1502.00      6545.05
  275.67        2953.00           2186        1511.00      6584.30
  275.70        2953.25           2190        1509.00      6575.58
  275.73        2953.50           2193        1515.00      6601.74
  275.76        2953.75           2197        1561.00      6802.36
  275.79        2954.00           2200        1561.00      6802.36
  275.82        2954.25           2204        1567.00      6828.53
  275.85        2954.50           2208        1541.00      6715.13
  275.88        2954.75           2211        1588.00      6920.11
  275.91        2955.00           2215        1584.00      6902.67
  275.95        2955.25           2218        1571.00      6845.97
  275.98        2955.50           2222        1581.00      6889.58
  276.01        2955.75           2225        1596.00      6955.00
  276.04        2956.00           2229        1617.00      7046.59
  276.07        2956.25           2232        1652.00      7199.23
  276.10        2956.50           2236        1612.00      7024.78
  276.13        2956.75           2239        1661.00      7238.49
  276.16        2957.00           2243        1650.00      7190.51
  276.19        2957.25           2246        1682.00      7330.07
  276.22        2957.50           2250        1717.00      7482.72
  276.25        2957.75           2254        1717.00      7482.72
  276.28        2958.00           2257        1704.00      7426.02
  276.31        2958.25           2261        1748.00      7617.93
  276.34        2958.50           2264        1792.00      7809.83
  276.37        2958.75           2268        1773.00      7726.96
  276.40        2959.00           2271        1787.00      7788.03
  276.43        2959.25           2275        1781.00      7761.86
  276.47        2959.50           2278        1808.00      7879.62
  276.50        2959.75           2282        1842.00      8027.91
  276.53        2960.00           2285        1932.00      8420.46
  276.56        2960.25           2289        1988.00      8664.72
  276.59        2960.50           2293        1950.00      8498.97
  276.62        2960.75           2296        1991.00      8677.80
  276.65        2961.00           2300        2092.00      9118.35
  276.68        2961.25           2303        2292.00      9990.75
  276.71        2961.50           2307        5249.00     22895.33
  276.74        2961.75           2310       14792.00     64619.15
  276.77        2962.00           2314       34024.00    149067.10
  276.81        2962.25           2317       50050.00    219810.60
  276.84        2962.50           2321       72725.00    320492.10
  276.87        2962.75           2324       89721.00    396414.80
  276.90        2963.00           2328      113912.00    505163.40
  276.93        2963.25           2331      131603.00    585208.40
  276.96        2963.50           2335      156016.00    696395.90
  276.99        2963.75           2339      181041.00    811260.70
  277.02        2964.00           2342      200562.00    901498.10
  277.05        2964.25           2346      227875.00   1028706.00
  277.08        2964.50           2349      248217.00   1124181.00
  277.11        2964.75           2353      270865.00   1231228.00
  277.14        2965.00           2356      287328.00   1309544.00
  277.18        2965.25           2360      307259.00   1404932.00
  277.21        2965.50           2363      324997.00   1490361.00
  277.24        2965.75           2367      349518.00   1609304.00
  277.27        2966.00           2370      368257.00   1700872.00
  277.30        2966.25           2374      390644.00   1811042.00
  277.33        2966.50           2378      408124.00   1897661.00
  277.36        2966.75           2381      414003.00   1926912.00
  277.39        2967.00           2385      416837.00   1941035.00
  277.42        2967.25           2388      416956.00   1941628.00
  277.45        2967.50           2392      417016.00   1941927.00
  277.48        2967.75           2395      415674.00   1935238.00
  277.51        2968.00           2399      411842.00   1916153.00
  277.54        2968.25           2402      399906.00   1856873.00
  277.57        2968.50           2406      380518.00   1761105.00
  277.60        2968.75           2409      365443.00   1687084.00
  277.63        2969.00           2413      344422.00   1584503.00
  277.66        2969.25           2417      322003.00   1475906.00
  277.70        2969.50           2420      301483.00   1377223.00
  277.73        2969.75           2424      277149.00   1261071.00
  277.76        2970.00           2427      258630.00   1173300.00
  277.79        2970.25           2431      232744.00   1051502.00
  277.82        2970.50           2434      215304.00    970018.80
  277.85        2970.75           2438      189182.00    848824.90
  277.88        2971.00           2441      169018.00    755961.70
  277.91        2971.25           2445      143845.00    640857.60
  277.94        2971.50           2449      119268.00    529350.90
  277.97        2971.75           2452      100477.00    444667.50
  278.00        2972.00           2456       77458.00    341595.30
  278.03        2972.25           2459       60623.00    266670.70
  278.06        2972.50           2463       38304.00    167926.90
  278.09        2972.75           2466       20511.00     89680.62
  278.12        2973.00           2470        6523.00     28458.65
  278.15        2973.25           2473        3187.00     13895.40
  278.18        2973.50           2477        2198.00      9580.72
  278.21        2973.75           2481        2073.00      9035.47
  278.25        2974.00           2484        2078.00      9057.28
  278.28        2974.25           2488        1955.00      8520.78
  278.31        2974.50           2491        1965.00      8564.39
  278.34        2974.75           2495        1872.00      8158.76
  278.37        2975.00           2498        1887.00      8224.18
  278.40        2975.25           2502        1849.00      8058.44
  278.43        2975.50           2505        1848.00      8054.08
  278.46        2975.75           2509        1793.00      7814.19
  278.49        2976.00           2512        1827.00      7962.49
  278.52        2976.25           2516        1756.00      7652.82
  278.55        2976.50           2520        1759.00      7665.90
  278.58        2976.75           2523        1749.00      7622.29
  278.61        2977.00           2527        1664.00      7251.57
  278.64        2977.25           2530        1717.00      7482.72
  278.67        2977.50           2534        1670.00      7277.74
  278.70        2977.75           2537        1659.00      7229.76
  278.73        2978.00           2541        1590.00      6928.83
  278.77        2978.25           2544        1664.00      7251.57
  278.80        2978.50           2548        1630.00      7103.28
  278.83        2978.75           2552        1596.00      6955.00
  278.86        2979.00           2555        1615.00      7037.87
  278.89        2979.25           2559        1570.00      6841.61
  278.92        2979.50           2562        1571.00      6845.97
  278.95        2979.75           2566        1574.00      6859.05
  278.98        2980.00           2569        1625.00      7081.48
  279.01        2980.25           2573        1556.00      6780.55
  279.04        2980.50           2577        1535.00      6688.97
  279.07        2980.75           2580        1522.00      6632.27
  279.10        2981.00           2584        1544.00      6728.22
  279.13        2981.25           2587        1492.00      6501.44
  279.16        2981.50           2591        1458.00      6353.16
  279.19        2981.75           2594        1487.00      6479.63
  279.22        2982.00           2598        1503.00      6549.41
  279.25        2982.25           2601        1471.00      6409.85
  279.29        2982.50           2605        1454.00      6335.72
  279.32        2982.75           2609        1449.00      6313.91
  279.35        2983.00           2612        1446.00      6300.83
  279.38        2983.25           2616        1491.00      6497.08
  279.41        2983.50           2619        1492.00      6501.44
  279.44        2983.75           2623        1410.00      6143.83
  279.47        2984.00           2626        1482.00      6457.83
HS scan finished at 04:39:42
end
************************************************************
  HS Scan of (1) Internal mercury lamp
************************************************************
Integration time is 0.2294 seconds per sample
dh141118Reading 51.44 .94 3.25pr1000
************************************************************
Dead Time -------------------------  3.4E-08 
Number of Cycles Used -------------  4 
Starting Wavelength (Angstroms) ---  2950 
Final Wavelength (Angstoms) -------  2984 
Wavelength Increment (Angstroms) --  .25 
Filter Wheel #1 Position ---------- (1) Ground quartz diffuser (ND=2.32)
Filter Wheel #2 Position ---------- (1) Neutral Density 0.494



************************************************************
HS scan start time = 17:07:19
Dark Count =  1.8 


Time (GMT)  Wavelength (Ang)  Step Number  Raw Counts  Counts/Second

 1028.22        2950.00           2144         973.00      4234.26
 1028.41        2950.25           2147        1014.00      4413.04
 1028.44        2950.50           2151        1015.00      4417.40
 1028.47        2950.75           2155        1044.00      4543.86
 1028.50        2951.00           2158        1053.00      4583.10
 1028.53        2951.25           2162        1043.00      4539.50
 1028.56        2951.50           2165        1067.00      4644.15
 1028.59        2951.75           2169        1056.00      4596.18
 1028.62        2952.00           2172        1036.00      4508.97
 1028.65        2952.25           2176        1059.00      4609.27
 1028.68        2952.50           2179        1035.00      4504.61
 1028.72        2952.75           2183        1046.00      4552.58
 1028.75        2953.00           2186        1067.00      4644.15
 1028.78        2953.25           2190        1073.00      4670.31
 1028.81        2953.50           2193        1062.00      4622.35
 1028.84        2953.75           2197        1096.00      4770.61
 1028.87        2954.00           2200        1085.00      4722.64
 1028.90        2954.25           2204        1108.00      4822.94
 1028.93        2954.50           2208        1079.00      4696.48
 1028.96        2954.75           2211        1047.00      4556.94
 1028.99        2955.00           2215        1092.00      4753.17
 1029.02        2955.25           2218        1091.00      4748.81
 1029.05        2955.50           2222        1110.00      4831.66
 1029.08        2955.75           2225        1132.00      4927.59
 1029.11        2956.00           2229        1105.00      4809.85
 1029.14        2956.25           2232        1133.00      4931.95
 1029.17        2956.50           2236        1171.00      5097.66
 1029.20        2956.75           2239        1154.00      5023.53
 1029.24        2957.00           2243        1161.00      5054.05
 1029.27        2957.25           2246        1133.00      4931.95
 1029.30        2957.50           2250        1133.00      4931.95
 1029.33        2957.75           2254        1172.00      5102.02
 1029.36        2958.00           2257        1208.00      5259.01
 1029.39        2958.25           2261        1201.00      5228.48
 1029.42        2958.50           2264        1218.00      5302.61
 1029.45        2958.75           2268        1218.00      5302.61
 1029.48        2959.00           2271        1247.00      5429.08
 1029.51        2959.25           2275        1252.00      5450.88
 1029.54        2959.50           2278        1285.00      5594.79
 1029.57        2959.75           2282        1263.00      5498.85
 1029.60        2960.00           2285        1334.00      5808.47
 1029.63        2960.25           2289        1322.00      5756.14
 1029.66        2960.50           2293        1315.00      5725.61
 1029.69        2960.75           2296        1391.00      6057.05
 1029.72        2961.00           2300        1407.00      6126.82
 1029.76        2961.25           2303        1509.00      6571.65
 1029.79        2961.50           2307        2698.00     11757.97
 1029.82        2961.75           2310        7079.00     30883.33
 1029.85        2962.00           2314       16856.00     73655.02
 1029.88        2962.25           2317       26651.00    116630.70
 1029.91        2962.50           2321       42950.00    188423.00
 1029.94        2962.75           2324       55773.00    245152.60
 1029.97        2963.00           2328       72853.00    321058.50
 1030.00        2963.25           2331       85760.00    378681.40
 1030.03        2963.50           2335      101717.00    450236.50
 1030.06        2963.75           2339      118634.00    526481.60
 1030.09        2964.00           2342      132105.00    587482.20
 1030.12        2964.25           2346      148853.00    663680.20
 1030.15        2964.50           2349      162043.00    723972.80
 1030.18        2964.75           2353      179030.00    801992.50
 1030.21        2965.00           2356      192286.00    863168.90
 1030.24        2965.25           2360      210346.00    946933.80
 1030.27        2965.50           2363      223494.00   1008223.00
 1030.31        2965.75           2367      239514.00   1083252.00
 1030.34        2966.00           2370      249627.00   1130818.00
 1030.37        2966.25           2374      264067.00   1199009.00
 1030.40        2966.50           2378      277770.00   1264019.00
 1030.43        2966.75           2381      281737.00   1282895.00
 1030.46        2967.00           2385      283301.00   1290343.00
 1030.49        2967.25           2388      283783.00   1292639.00
 1030.52        2967.50           2392      283650.00   1292006.00
 1030.55        2967.75           2395      283185.00   1289790.00
 1030.58        2968.00           2399      281402.00   1281300.00
 1030.61        2968.25           2402      274531.00   1248626.00
 1030.64        2968.50           2406      260881.00   1183936.00
 1030.67        2968.75           2409      249212.00   1128863.00
 1030.70        2969.00           2413      233429.00   1054707.00
 1030.73        2969.25           2417      218464.00    984744.70
 1030.76        2969.50           2420      206977.00    931270.90
 1030.80        2969.75           2424      192618.00    864704.40
 1030.83        2970.00           2427      180479.00    808667.00
 1030.86        2970.25           2431      162608.00    726561.00
 1030.89        2970.50           2434      149272.00    665591.60
 1030.92        2970.75           2438      131399.00    584278.90
 1030.95        2971.00           2441      118374.00    525306.80
 1030.98        2971.25           2445      101965.00    451351.30
 1031.01        2971.50           2449       85335.00    376780.30
 1031.04        2971.75           2452       72994.00    321686.70
 1031.07        2972.00           2456       55439.00    243672.20
 1031.10        2972.25           2459       42743.00    187509.00
 1031.13        2972.50           2463       26419.00    115611.40
 1031.16        2972.75           2466       15645.00     68350.46
 1031.19        2973.00           2470        5640.00     24598.60
 1031.22        2973.25           2473        2547.00     11099.22
 1031.25        2973.50           2477        1599.00      6964.16
 1031.28        2973.75           2481        1455.00      6336.15
 1031.32        2974.00           2484        1410.00      6139.90
 1031.35        2974.25           2488        1352.00      5886.97
 1031.38        2974.50           2491        1344.00      5852.08
 1031.41        2974.75           2495        1277.00      5559.90
 1031.44        2975.00           2498        1319.00      5743.06
 1031.47        2975.25           2502        1267.00      5516.29
 1031.50        2975.50           2505        1274.00      5546.82
 1031.53        2975.75           2509        1231.00      5359.30
 1031.56        2976.00           2512        1209.00      5263.37
 1031.59        2976.25           2516        1236.00      5381.11
 1031.62        2976.50           2520        1204.00      5241.56
 1031.65        2976.75           2523        1162.00      5058.41
 1031.68        2977.00           2527        1183.00      5149.99
 1031.71        2977.25           2530        1157.00      5036.61
 1031.74        2977.50           2534        1129.00      4914.51
 1031.77        2977.75           2537        1103.00      4801.13
 1031.80        2978.00           2541        1124.00      4892.71
 1031.83        2978.25           2544        1114.00      4849.10
 1031.87        2978.50           2548        1108.00      4822.94
 1031.90        2978.75           2552        1091.00      4748.81
 1031.93        2979.00           2555        1080.00      4700.84
 1031.96        2979.25           2559        1071.00      4661.59
 1031.99        2979.50           2562        1088.00      4735.72
 1032.02        2979.75           2566        1045.00      4548.22
 1032.05        2980.00           2569        1076.00      4683.40
 1032.08        2980.25           2573        1039.00      4522.06
 1032.11        2980.50           2577        1051.00      4574.38
 1032.14        2980.75           2580        1047.00      4556.94
 1032.17        2981.00           2584        1039.00      4522.06
 1032.20        2981.25           2587        1024.00      4456.65
 1032.23        2981.50           2591        1035.00      4504.61
 1032.26        2981.75           2594        1023.00      4452.29
 1032.29        2982.00           2598        1020.00      4439.21
 1032.32        2982.25           2601        1048.00      4561.30
 1032.35        2982.50           2605        1040.00      4526.42
 1032.39        2982.75           2609        1057.00      4600.55
 1032.42        2983.00           2612        1005.00      4373.80
 1032.45        2983.25           2616         978.00      4256.07
 1032.48        2983.50           2619         994.00      4325.83
 1032.51        2983.75           2623        1013.00      4408.68
 1032.54        2984.00           2626        1009.00      4391.24
HS scan finished at 17:12:46
end
