************************************************************
  HS Scan of (1) Internal mercury lamp
************************************************************
Integration time is 0.2294 seconds per sample
dh111117Reading 51.44 .94 2.94pr1000
************************************************************
Dead Time -------------------------  3.4E-08 
Number of Cycles Used -------------  4 
Starting Wavelength (Angstroms) ---  2950 
Final Wavelength (Angstoms) -------  2984 
Wavelength Increment (Angstroms) --  .25 
Filter Wheel #1 Position ---------- (1) Ground quartz diffuser (ND=2.32)
Filter Wheel #2 Position ---------- (1) Neutral Density 0.494



************************************************************
HS scan start time = 04:30:13
Dark Count =  .6 


Time (GMT)  Wavelength (Ang)  Step Number  Raw Counts  Counts/Second

  271.11        2950.00           2144          92.00       398.44
  271.30        2950.25           2147          86.00       372.28
  271.33        2950.50           2151          96.00       415.87
  271.36        2950.75           2155          92.00       398.44
  271.39        2951.00           2158          89.00       385.36
  271.42        2951.25           2162          90.00       389.72
  271.45        2951.50           2165          97.00       420.23
  271.49        2951.75           2169          93.00       402.80
  271.52        2952.00           2172          90.00       389.72
  271.55        2952.25           2176          97.00       420.23
  271.58        2952.50           2179          92.00       398.44
  271.61        2952.75           2183          93.00       402.80
  271.64        2953.00           2186          94.00       407.15
  271.67        2953.25           2190          89.00       385.36
  271.70        2953.50           2193          99.00       428.95
  271.73        2953.75           2197         102.00       442.03
  271.76        2954.00           2200         121.00       524.86
  271.79        2954.25           2204          97.00       420.23
  271.82        2954.50           2208          99.00       428.95
  271.85        2954.75           2211         102.00       442.03
  271.88        2955.00           2215          97.00       420.23
  271.91        2955.25           2218         115.00       498.70
  271.94        2955.50           2222         119.00       516.14
  271.97        2955.75           2225          94.00       407.15
  272.00        2956.00           2229         101.00       437.67
  272.04        2956.25           2232         118.00       511.78
  272.07        2956.50           2236         122.00       529.22
  272.10        2956.75           2239          97.00       420.23
  272.13        2957.00           2243         101.00       437.67
  272.16        2957.25           2246         105.00       455.11
  272.19        2957.50           2250         105.00       455.11
  272.22        2957.75           2254         121.00       524.86
  272.25        2958.00           2257         109.00       472.54
  272.28        2958.25           2261         126.00       546.65
  272.31        2958.50           2264         135.00       585.89
  272.34        2958.75           2268         134.00       581.53
  272.37        2959.00           2271         114.00       494.34
  272.40        2959.25           2275         147.00       638.20
  272.43        2959.50           2278         132.00       572.81
  272.46        2959.75           2282         122.00       529.22
  272.49        2960.00           2285         163.00       707.95
  272.52        2960.25           2289         144.00       625.12
  272.56        2960.50           2293         139.00       603.33
  272.59        2960.75           2296         139.00       603.33
  272.62        2961.00           2300         182.00       790.78
  272.65        2961.25           2303         354.00      1540.62
  272.68        2961.50           2307        1308.00      5700.32
  272.71        2961.75           2310        2451.00     10685.66
  272.74        2962.00           2314        4163.00     18155.93
  272.77        2962.25           2317        5552.00     24219.59
  272.80        2962.50           2321        7512.00     32780.20
  272.83        2962.75           2324        8732.00     38111.26
  272.86        2963.00           2328       10726.00     46828.65
  272.89        2963.25           2331       12268.00     53573.53
  272.92        2963.50           2335       14269.00     62330.74
  272.95        2963.75           2339       16308.00     71259.63
  272.98        2964.00           2342       17896.00     78217.33
  273.01        2964.25           2346       19966.00     87291.83
  273.04        2964.50           2349       21309.00     93182.29
  273.08        2964.75           2353       23105.00    101063.30
  273.11        2965.00           2356       24614.00    107688.30
  273.14        2965.25           2360       26470.00    115840.70
  273.17        2965.50           2363       27909.00    122164.60
  273.20        2965.75           2367       29651.00    129823.70
  273.23        2966.00           2370       30617.00    134072.70
  273.26        2966.25           2374       32419.00    142002.20
  273.29        2966.50           2378       33073.00    144881.10
  273.32        2966.75           2381       33175.00    145330.10
  273.35        2967.00           2385       33037.00    144722.60
  273.38        2967.25           2388       32558.00    142614.00
  273.41        2967.50           2392       32903.00    144132.70
  273.44        2967.75           2395       32434.00    142068.20
  273.47        2968.00           2399       31561.00    138226.10
  273.50        2968.25           2402       30231.00    132374.70
  273.53        2968.50           2406       28719.00    125725.50
  273.56        2968.75           2409       27213.00    119105.60
  273.60        2969.00           2413       25862.00    113169.60
  273.63        2969.25           2417       23971.00    104864.90
  273.66        2969.50           2420       22243.00     97280.25
  273.69        2969.75           2424       20254.00     88554.81
  273.72        2970.00           2427       18929.00     82745.11
  273.75        2970.25           2431       17225.00     75276.99
  273.78        2970.50           2434       15740.00     68771.78
  273.81        2970.75           2438       13373.00     58408.82
  273.84        2971.00           2441       11943.00     52151.69
  273.87        2971.25           2445        9864.00     43059.51
  273.90        2971.50           2449        8184.00     35716.41
  273.93        2971.75           2452        6588.00     28743.86
  273.96        2972.00           2456        4695.00     20478.07
  273.99        2972.25           2459        3377.00     14725.77
  274.02        2972.50           2463        1770.00      7715.19
  274.05        2972.75           2466         831.00      3620.32
  274.08        2973.00           2470         264.00      1148.26
  274.12        2973.25           2473         165.00       716.67
  274.15        2973.50           2477         149.00       646.92
  274.18        2973.75           2481         157.00       681.79
  274.21        2974.00           2484         148.00       642.56
  274.24        2974.25           2488         139.00       603.33
  274.27        2974.50           2491         173.00       751.54
  274.30        2974.75           2495         137.00       594.61
  274.33        2975.00           2498         150.00       651.28
  274.36        2975.25           2502         140.00       607.68
  274.39        2975.50           2505         138.00       598.97
  274.42        2975.75           2509         114.00       494.34
  274.45        2976.00           2512         103.00       446.39
  274.48        2976.25           2516         129.00       559.73
  274.51        2976.50           2520         112.00       485.62
  274.54        2976.75           2523         130.00       564.09
  274.57        2977.00           2527         135.00       585.89
  274.60        2977.25           2530         116.00       503.06
  274.64        2977.50           2534         105.00       455.11
  274.67        2977.75           2537         100.00       433.31
  274.70        2978.00           2541          96.00       415.87
  274.73        2978.25           2544         103.00       446.39
  274.76        2978.50           2548          98.00       424.59
  274.79        2978.75           2552          92.00       398.44
  274.82        2979.00           2555          98.00       424.59
  274.85        2979.25           2559          96.00       415.87
  274.88        2979.50           2562          96.00       415.87
  274.91        2979.75           2566          88.00       381.00
  274.94        2980.00           2569          90.00       389.72
  274.97        2980.25           2573          96.00       415.87
  275.00        2980.50           2577         112.00       485.62
  275.03        2980.75           2580          88.00       381.00
  275.06        2981.00           2584          91.00       394.08
  275.09        2981.25           2587          94.00       407.15
  275.12        2981.50           2591          92.00       398.44
  275.16        2981.75           2594          93.00       402.80
  275.19        2982.00           2598          87.00       376.64
  275.22        2982.25           2601          90.00       389.72
  275.25        2982.50           2605          83.00       359.20
  275.28        2982.75           2609          81.00       350.48
  275.31        2983.00           2612          90.00       389.72
  275.34        2983.25           2616          83.00       359.20
  275.37        2983.50           2619          84.00       363.56
  275.40        2983.75           2623          94.00       407.15
  275.43        2984.00           2626         104.00       450.75
HS scan finished at 04:35:39
end
************************************************************
  HS Scan of (1) Internal mercury lamp
************************************************************
Integration time is 0.2294 seconds per sample
dh111117Reading 51.44 .94 3.07pr1000
************************************************************
Dead Time -------------------------  3.4E-08 
Number of Cycles Used -------------  4 
Starting Wavelength (Angstroms) ---  2950 
Final Wavelength (Angstoms) -------  2984 
Wavelength Increment (Angstroms) --  .25 
Filter Wheel #1 Position ---------- (1) Ground quartz diffuser (ND=2.32)
Filter Wheel #2 Position ---------- (1) Neutral Density 0.494



************************************************************
HS scan start time = 17:07:30
Dark Count =  .9 


Time (GMT)  Wavelength (Ang)  Step Number  Raw Counts  Counts/Second

 1028.40        2950.00           2144          67.00       288.15
 1028.59        2950.25           2147          58.00       248.91
 1028.63        2950.50           2151          61.00       261.99
 1028.66        2950.75           2155          73.00       314.30
 1028.69        2951.00           2158          60.00       257.63
 1028.72        2951.25           2162          61.00       261.99
 1028.75        2951.50           2165          63.00       270.71
 1028.78        2951.75           2169          65.00       279.43
 1028.81        2952.00           2172          65.00       279.43
 1028.84        2952.25           2176          60.00       257.63
 1028.87        2952.50           2179          61.00       261.99
 1028.90        2952.75           2183          66.00       283.79
 1028.93        2953.00           2186          62.00       266.35
 1028.96        2953.25           2190          60.00       257.63
 1028.99        2953.50           2193          63.00       270.71
 1029.02        2953.75           2197          66.00       283.79
 1029.05        2954.00           2200          71.00       305.58
 1029.08        2954.25           2204          67.00       288.15
 1029.11        2954.50           2208          60.00       257.63
 1029.14        2954.75           2211          72.00       309.94
 1029.18        2955.00           2215          67.00       288.15
 1029.21        2955.25           2218          68.00       292.51
 1029.24        2955.50           2222          71.00       305.58
 1029.27        2955.75           2225          70.00       301.22
 1029.30        2956.00           2229          63.00       270.71
 1029.33        2956.25           2232          64.00       275.07
 1029.36        2956.50           2236          69.00       296.86
 1029.39        2956.75           2239          71.00       305.58
 1029.42        2957.00           2243          64.00       275.07
 1029.45        2957.25           2246          69.00       296.86
 1029.48        2957.50           2250          70.00       301.22
 1029.51        2957.75           2254          78.00       336.10
 1029.54        2958.00           2257          67.00       288.15
 1029.57        2958.25           2261          70.00       301.22
 1029.60        2958.50           2264          76.00       327.38
 1029.63        2958.75           2268          73.00       314.30
 1029.66        2959.00           2271          73.00       314.30
 1029.70        2959.25           2275          77.00       331.74
 1029.73        2959.50           2278          78.00       336.10
 1029.76        2959.75           2282          70.00       301.22
 1029.79        2960.00           2285          92.00       397.13
 1029.82        2960.25           2289         155.00       671.77
 1029.85        2960.50           2293         144.00       623.81
 1029.88        2960.75           2296         130.00       562.78
 1029.91        2961.00           2300         184.00       798.19
 1029.94        2961.25           2303         407.00      1770.38
 1029.97        2961.50           2307        1334.00      5812.40
 1030.00        2961.75           2310        2384.00     10392.08
 1030.03        2962.00           2314        4014.00     17504.31
 1030.06        2962.25           2317        5489.00     23943.20
 1030.09        2962.50           2321        7028.00     30664.47
 1030.12        2962.75           2324        8228.00     35907.36
 1030.15        2963.00           2328       10018.00     43731.49
 1030.18        2963.25           2331       11396.00     49757.61
 1030.22        2963.50           2335       13251.00     57873.58
 1030.25        2963.75           2339       15202.00     66414.41
 1030.29        2964.00           2342       16495.00     72077.47
 1030.32        2964.25           2346       18298.00     79977.87
 1030.35        2964.50           2349       19709.00     86163.56
 1030.38        2964.75           2353       21425.00     93689.86
 1030.41        2965.00           2356       22909.00    100201.70
 1030.44        2965.25           2360       24755.00    108306.10
 1030.48        2965.50           2363       26186.00    114591.60
 1030.51        2965.75           2367       28113.00    123060.00
 1030.54        2966.00           2370       29432.00    128859.30
 1030.57        2966.25           2374       30502.00    133565.50
 1030.60        2966.50           2378       31067.00    136051.20
 1030.63        2966.75           2381       31194.00    136609.90
 1030.66        2967.00           2385       31651.00    138620.90
 1030.69        2967.25           2388       31464.00    137798.00
 1030.72        2967.50           2392       31268.00    136935.60
 1030.75        2967.75           2395       31241.00    136816.80
 1030.78        2968.00           2399       29933.00    131062.70
 1030.81        2968.25           2402       28537.00    124924.00
 1030.84        2968.50           2406       26980.00    118080.40
 1030.87        2968.75           2409       25425.00    111248.70
 1030.90        2969.00           2413       23745.00    103871.40
 1030.93        2969.25           2417       22018.00     96291.64
 1030.96        2969.50           2420       20482.00     89553.44
 1031.00        2969.75           2424       18977.00     82954.22
 1031.03        2970.00           2427       17485.00     76414.94
 1031.06        2970.25           2431       15760.00     68858.06
 1031.09        2970.50           2434       14430.00     63034.25
 1031.12        2970.75           2438       12788.00     55847.45
 1031.15        2971.00           2441       11530.00     50343.73
 1031.18        2971.25           2445        9734.00     42489.85
 1031.21        2971.50           2449        7897.00     34461.02
 1031.24        2971.75           2452        6500.00     28358.20
 1031.27        2972.00           2456        4821.00     21026.80
 1031.30        2972.25           2459        3561.00     15527.38
 1031.33        2972.50           2463        1789.00      7796.75
 1031.36        2972.75           2466         765.00      3331.24
 1031.39        2973.00           2470         254.00      1103.35
 1031.42        2973.25           2473         160.00       693.56
 1031.45        2973.50           2477         146.00       632.53
 1031.48        2973.75           2481         172.00       745.88
 1031.52        2974.00           2484         134.00       580.22
 1031.55        2974.25           2488         160.00       693.56
 1031.58        2974.50           2491         169.00       732.80
 1031.61        2974.75           2495         140.00       606.38
 1031.64        2975.00           2498         137.00       593.30
 1031.67        2975.25           2502         118.00       510.47
 1031.70        2975.50           2505         154.00       667.41
 1031.73        2975.75           2509         119.00       514.83
 1031.76        2976.00           2512         149.00       645.61
 1031.79        2976.25           2516         147.00       636.89
 1031.82        2976.50           2520         111.00       479.96
 1031.85        2976.75           2523         109.00       471.24
 1031.88        2977.00           2527         112.00       484.31
 1031.91        2977.25           2530          96.00       414.57
 1031.94        2977.50           2534         118.00       510.47
 1031.97        2977.75           2537         118.00       510.47
 1032.00        2978.00           2541         119.00       514.83
 1032.04        2978.25           2544         108.00       466.88
 1032.07        2978.50           2548         101.00       436.36
 1032.10        2978.75           2552         114.00       493.03
 1032.13        2979.00           2555         101.00       436.36
 1032.16        2979.25           2559         113.00       488.67
 1032.19        2979.50           2562          95.00       410.21
 1032.22        2979.75           2566         116.00       501.75
 1032.25        2980.00           2569         115.00       497.39
 1032.28        2980.25           2573          97.00       418.92
 1032.31        2980.50           2577          95.00       410.21
 1032.34        2980.75           2580          94.00       405.85
 1032.37        2981.00           2584          90.00       388.41
 1032.40        2981.25           2587          86.00       370.97
 1032.43        2981.50           2591          96.00       414.57
 1032.46        2981.75           2594          86.00       370.97
 1032.49        2982.00           2598          87.00       375.33
 1032.52        2982.25           2601          81.00       349.18
 1032.56        2982.50           2605          95.00       410.21
 1032.59        2982.75           2609          91.00       392.77
 1032.62        2983.00           2612          91.00       392.77
 1032.65        2983.25           2616          88.00       379.69
 1032.68        2983.50           2619          88.00       379.69
 1032.71        2983.75           2623          80.00       344.82
 1032.74        2984.00           2626         109.00       471.24
HS scan finished at 17:12:58
end
