************************************************************
  HS Scan of (1) Internal mercury lamp
************************************************************
Integration time is 0.2294 seconds per sample
dh121118Reading 51.44 .94 2.88pr1000
************************************************************
Dead Time -------------------------  3.4E-08 
Number of Cycles Used -------------  4 
Starting Wavelength (Angstroms) ---  2950 
Final Wavelength (Angstoms) -------  2984 
Wavelength Increment (Angstroms) --  .25 
Filter Wheel #1 Position ---------- (1) Ground quartz diffuser (ND=2.32)
Filter Wheel #2 Position ---------- (1) Neutral Density 0.494



************************************************************
HS scan start time = 04:31:19
Dark Count =  .7 


Time (GMT)  Wavelength (Ang)  Step Number  Raw Counts  Counts/Second

  272.22        2950.00           2144        1503.00      6550.28
  272.41        2950.25           2147        1562.00      6807.59
  272.45        2950.50           2151        1564.00      6816.31
  272.48        2950.75           2155        1549.00      6750.90
  272.51        2951.00           2158        1516.00      6606.98
  272.54        2951.25           2162        1566.00      6825.04
  272.57        2951.50           2165        1621.00      7064.91
  272.60        2951.75           2169        1604.00      6990.76
  272.63        2952.00           2172        1561.00      6803.23
  272.66        2952.25           2176        1592.00      6938.43
  272.69        2952.50           2179        1561.00      6803.23
  272.72        2952.75           2183        1567.00      6829.40
  272.75        2953.00           2186        1566.00      6825.04
  272.78        2953.25           2190        1562.00      6807.59
  272.81        2953.50           2193        1606.00      6999.49
  272.84        2953.75           2197        1596.00      6955.87
  272.87        2954.00           2200        1598.00      6964.60
  272.91        2954.25           2204        1600.00      6973.32
  272.94        2954.50           2208        1602.00      6982.04
  272.97        2954.75           2211        1607.00      7003.85
  273.00        2955.00           2215        1625.00      7082.35
  273.03        2955.25           2218        1613.00      7030.01
  273.06        2955.50           2222        1647.00      7178.30
  273.09        2955.75           2225        1692.00      7374.56
  273.12        2956.00           2229        1630.00      7104.16
  273.15        2956.25           2232        1703.00      7422.54
  273.18        2956.50           2236        1670.00      7278.61
  273.21        2956.75           2239        1684.00      7339.67
  273.24        2957.00           2243        1697.00      7396.37
  273.27        2957.25           2246        1692.00      7374.56
  273.30        2957.50           2250        1721.00      7501.04
  273.33        2957.75           2254        1778.00      7749.65
  273.36        2958.00           2257        1751.00      7631.88
  273.39        2958.25           2261        1777.00      7745.28
  273.43        2958.50           2264        1766.00      7697.31
  273.46        2958.75           2268        1791.00      7806.34
  273.49        2959.00           2271        1793.00      7815.07
  273.52        2959.25           2275        1852.00      8072.40
  273.55        2959.50           2278        1854.00      8081.12
  273.58        2959.75           2282        1884.00      8211.97
  273.61        2960.00           2285        1888.00      8229.42
  273.64        2960.25           2289        1927.00      8399.52
  273.67        2960.50           2293        1998.00      8709.20
  273.70        2960.75           2296        1996.00      8700.48
  273.73        2961.00           2300        2120.00      9241.35
  273.76        2961.25           2303        2735.00     11924.19
  273.79        2961.50           2307        7410.00     32334.13
  273.82        2961.75           2310       16090.00     70304.30
  273.85        2962.00           2314       33056.00    144805.80
  273.88        2962.25           2317       48186.00    211565.70
  273.91        2962.50           2321       69483.00    306055.40
  273.94        2962.75           2324       85366.00    376923.80
  273.98        2963.00           2328      107817.00    477688.30
  274.01        2963.25           2331      124038.00    550926.80
  274.04        2963.50           2335      147091.00    655649.90
  274.07        2963.75           2339      167941.00    751019.20
  274.10        2964.00           2342      185442.00    831556.60
  274.13        2964.25           2346      210223.00    946366.60
  274.16        2964.50           2349      227095.00   1025059.00
  274.19        2964.75           2353      250383.00   1134385.00
  274.22        2965.00           2356      265298.00   1204842.00
  274.25        2965.25           2360      285940.00   1302925.00
  274.28        2965.50           2363      300339.00   1371742.00
  274.31        2965.75           2367      321843.00   1475134.00
  274.34        2966.00           2370      338071.00   1553656.00
  274.37        2966.25           2374      358051.00   1650929.00
  274.40        2966.50           2378      370085.00   1709837.00
  274.43        2966.75           2381      374242.00   1730243.00
  274.46        2967.00           2385      375543.00   1736635.00
  274.50        2967.25           2388      375947.00   1738621.00
  274.53        2967.50           2392      375477.00   1736311.00
  274.56        2967.75           2395      374202.00   1730047.00
  274.59        2968.00           2399      366102.00   1690313.00
  274.62        2968.25           2402      353603.00   1629216.00
  274.65        2968.50           2406      337135.00   1549116.00
  274.68        2968.75           2409      322858.00   1480033.00
  274.71        2969.00           2413      303441.00   1386611.00
  274.74        2969.25           2417      283165.00   1289700.00
  274.77        2969.50           2420      266279.00   1209488.00
  274.80        2969.75           2424      241914.00   1094531.00
  274.83        2970.00           2427      224612.00   1013451.00
  274.86        2970.25           2431      202930.00    912483.60
  274.89        2970.50           2434      186651.00    837136.80
  274.92        2970.75           2438      164860.00    736887.00
  274.95        2971.00           2441      146269.00    651902.80
  274.98        2971.25           2445      122979.00    546134.10
  275.02        2971.50           2449      100474.00    444654.90
  275.05        2971.75           2452       84151.00    371490.50
  275.08        2972.00           2456       62911.00    276831.90
  275.11        2972.25           2459       47759.00    209677.40
  275.14        2972.50           2463       27453.00    120159.90
  275.17        2972.75           2466       14491.00     63302.19
  275.20        2973.00           2470        4589.00     20014.92
  275.23        2973.25           2473        2596.00     11317.78
  275.26        2973.50           2477        2067.00      9010.17
  275.29        2973.75           2481        2036.00      8874.95
  275.32        2974.00           2484        1961.00      8547.82
  275.35        2974.25           2488        1919.00      8364.63
  275.38        2974.50           2491        1928.00      8403.88
  275.41        2974.75           2495        1830.00      7976.44
  275.44        2975.00           2498        1796.00      7828.15
  275.47        2975.25           2502        1814.00      7906.66
  275.50        2975.50           2505        1779.00      7754.01
  275.54        2975.75           2509        1747.00      7614.44
  275.57        2976.00           2512        1729.00      7535.93
  275.60        2976.25           2516        1778.00      7749.65
  275.63        2976.50           2520        1701.00      7413.81
  275.66        2976.75           2523        1690.00      7365.84
  275.69        2977.00           2527        1727.00      7527.21
  275.72        2977.25           2530        1646.00      7173.94
  275.75        2977.50           2534        1641.00      7152.13
  275.78        2977.75           2537        1640.00      7147.77
  275.81        2978.00           2541        1642.00      7156.49
  275.84        2978.25           2544        1628.00      7095.43
  275.87        2978.50           2548        1601.00      6977.68
  275.90        2978.75           2552        1611.00      7021.29
  275.93        2979.00           2555        1600.00      6973.32
  275.96        2979.25           2559        1553.00      6768.34
  275.99        2979.50           2562        1536.00      6694.20
  276.02        2979.75           2566        1525.00      6646.23
  276.06        2980.00           2569        1558.00      6790.15
  276.09        2980.25           2573        1545.00      6733.45
  276.12        2980.50           2577        1560.00      6798.87
  276.15        2980.75           2580        1491.00      6497.95
  276.18        2981.00           2584        1545.00      6733.45
  276.21        2981.25           2587        1472.00      6415.09
  276.24        2981.50           2591        1497.00      6524.12
  276.27        2981.75           2594        1482.00      6458.70
  276.30        2982.00           2598        1478.00      6441.25
  276.33        2982.25           2601        1485.00      6471.78
  276.36        2982.50           2605        1469.00      6402.00
  276.39        2982.75           2609        1447.00      6306.06
  276.42        2983.00           2612        1445.00      6297.34
  276.45        2983.25           2616        1475.00      6428.17
  276.48        2983.50           2619        1449.00      6314.78
  276.51        2983.75           2623        1468.00      6397.64
  276.54        2984.00           2626        1462.00      6371.48
HS scan finished at 04:36:46
end
************************************************************
  HS Scan of (1) Internal mercury lamp
************************************************************
Integration time is 0.2294 seconds per sample
dh121118Reading 51.44 .94 3.13pr1000
************************************************************
Dead Time -------------------------  3.4E-08 
Number of Cycles Used -------------  4 
Starting Wavelength (Angstroms) ---  2950 
Final Wavelength (Angstoms) -------  2984 
Wavelength Increment (Angstroms) --  .25 
Filter Wheel #1 Position ---------- (1) Ground quartz diffuser (ND=2.32)
Filter Wheel #2 Position ---------- (1) Neutral Density 0.494



************************************************************
HS scan start time = 17:07:21
Dark Count =  1 


Time (GMT)  Wavelength (Ang)  Step Number  Raw Counts  Counts/Second

 1028.25        2950.00           2144         952.00      4146.18
 1028.44        2950.25           2147         957.00      4167.98
 1028.47        2950.50           2151         953.00      4150.54
 1028.50        2950.75           2155         967.00      4211.59
 1028.53        2951.00           2158         955.00      4159.26
 1028.56        2951.25           2162         954.00      4154.90
 1028.59        2951.50           2165         963.00      4194.15
 1028.62        2951.75           2169         963.00      4194.15
 1028.65        2952.00           2172         964.00      4198.51
 1028.68        2952.25           2176         956.00      4163.62
 1028.72        2952.50           2179         968.00      4215.95
 1028.75        2952.75           2183         985.00      4290.08
 1028.78        2953.00           2186         991.00      4316.24
 1028.81        2953.25           2190         999.00      4351.12
 1028.84        2953.50           2193        1008.00      4390.37
 1028.87        2953.75           2197        1017.00      4429.61
 1028.90        2954.00           2200         966.00      4207.23
 1028.93        2954.25           2204        1017.00      4429.61
 1028.96        2954.50           2208         996.00      4338.04
 1028.99        2954.75           2211        1005.00      4377.29
 1029.02        2955.00           2215        1049.00      4569.15
 1029.05        2955.25           2218        1048.00      4564.79
 1029.08        2955.50           2222        1035.00      4508.10
 1029.11        2955.75           2225        1034.00      4503.74
 1029.14        2956.00           2229        1024.00      4460.14
 1029.17        2956.25           2232        1050.00      4573.51
 1029.20        2956.50           2236        1041.00      4534.26
 1029.24        2956.75           2239        1072.00      4669.44
 1029.27        2957.00           2243        1058.00      4608.39
 1029.30        2957.25           2246        1103.00      4804.62
 1029.33        2957.50           2250        1109.00      4830.78
 1029.36        2957.75           2254        1094.00      4765.38
 1029.39        2958.00           2257        1101.00      4795.90
 1029.42        2958.25           2261        1108.00      4826.42
 1029.45        2958.50           2264        1135.00      4944.16
 1029.48        2958.75           2268        1114.00      4852.59
 1029.51        2959.00           2271        1135.00      4944.16
 1029.54        2959.25           2275        1160.00      5053.18
 1029.57        2959.50           2278        1181.00      5144.75
 1029.60        2959.75           2282        1167.00      5083.70
 1029.63        2960.00           2285        1186.00      5166.56
 1029.66        2960.25           2289        1196.00      5210.16
 1029.69        2960.50           2293        1258.00      5480.53
 1029.72        2960.75           2296        1253.00      5458.73
 1029.76        2961.00           2300        1363.00      5938.43
 1029.79        2961.25           2303        1460.00      6361.45
 1029.82        2961.50           2307        3251.00     14174.22
 1029.85        2961.75           2310        8253.00     36016.18
 1029.88        2962.00           2314       19722.00     86220.12
 1029.91        2962.25           2317       30308.00    132711.70
 1029.94        2962.50           2321       45906.00    201484.50
 1029.97        2962.75           2324       57558.00    253070.50
 1030.00        2963.00           2328       72359.00    318861.00
 1030.03        2963.25           2331       82808.00    365485.80
 1030.06        2963.50           2335       98185.00    434371.50
 1030.09        2963.75           2339      114428.00    507491.50
 1030.12        2964.00           2342      125972.00    559682.20
 1030.15        2964.25           2346      140833.00    627145.60
 1030.18        2964.50           2349      153146.00    683280.00
 1030.21        2964.75           2353      167272.00    747948.10
 1030.24        2965.00           2356      178275.00    798519.60
 1030.27        2965.25           2360      194530.00    873554.20
 1030.31        2965.50           2363      206259.00    927938.80
 1030.34        2965.75           2367      220615.00    994783.80
 1030.37        2966.00           2370      231377.00   1045098.00
 1030.40        2966.25           2374      244585.00   1107087.00
 1030.43        2966.50           2378      253766.00   1150335.00
 1030.46        2966.75           2381      256832.00   1164806.00
 1030.49        2967.00           2385      257885.00   1169779.00
 1030.52        2967.25           2388      258195.00   1171244.00
 1030.55        2967.50           2392      258352.00   1171986.00
 1030.58        2967.75           2395      258488.00   1172628.00
 1030.61        2968.00           2399      256186.00   1161756.00
 1030.64        2968.25           2402      248494.00   1125485.00
 1030.67        2968.50           2406      237309.00   1072906.00
 1030.70        2968.75           2409      229020.00   1034063.00
 1030.73        2969.00           2413      215642.00    971593.30
 1030.76        2969.25           2417      200288.00    900227.20
 1030.79        2969.50           2420      188864.00    847355.20
 1030.83        2969.75           2424      174448.00    780910.10
 1030.86        2970.00           2427      163505.00    730674.80
 1030.89        2970.25           2431      149234.00    665421.90
 1030.92        2970.50           2434      138277.00    615520.00
 1030.95        2970.75           2438      121182.00    538003.80
 1030.98        2971.00           2441      109062.00    483295.20
 1031.01        2971.25           2445       93651.00    414026.30
 1031.04        2971.50           2449       78582.00    346610.90
 1031.07        2971.75           2452       67240.00    296073.60
 1031.10        2972.00           2456       52274.00    229654.60
 1031.13        2972.25           2459       41087.00    180202.70
 1031.16        2972.50           2463       26704.00    116867.10
 1031.19        2972.75           2466       16235.00     70938.11
 1031.22        2973.00           2470        5369.00     23418.82
 1031.25        2973.25           2473        2335.00     10177.89
 1031.28        2973.50           2477        1400.00      6099.78
 1031.31        2973.75           2481        1284.00      5593.92
 1031.35        2974.00           2484        1263.00      5502.34
 1031.38        2974.25           2488        1244.00      5419.48
 1031.41        2974.50           2491        1189.00      5179.64
 1031.44        2974.75           2495        1208.00      5262.49
 1031.47        2975.00           2498        1177.00      5127.31
 1031.50        2975.25           2502        1157.00      5040.10
 1031.53        2975.50           2505        1182.00      5149.11
 1031.56        2975.75           2509        1130.00      4922.36
 1031.59        2976.00           2512        1163.00      5066.26
 1031.62        2976.25           2516        1116.00      4861.31
 1031.65        2976.50           2520        1094.00      4765.38
 1031.68        2976.75           2523        1080.00      4704.33
 1031.71        2977.00           2527        1034.00      4503.74
 1031.74        2977.25           2530        1049.00      4569.15
 1031.77        2977.50           2534        1052.00      4582.23
 1031.80        2977.75           2537        1049.00      4569.15
 1031.83        2978.00           2541        1052.00      4582.23
 1031.87        2978.25           2544        1054.00      4590.95
 1031.90        2978.50           2548        1041.00      4534.26
 1031.93        2978.75           2552         998.00      4346.76
 1031.96        2979.00           2555         988.00      4303.16
 1031.99        2979.25           2559        1006.00      4381.65
 1032.02        2979.50           2562         982.00      4277.00
 1032.05        2979.75           2566         974.00      4242.11
 1032.08        2980.00           2569         975.00      4246.47
 1032.11        2980.25           2573         970.00      4224.67
 1032.14        2980.50           2577         960.00      4181.07
 1032.17        2980.75           2580         976.00      4250.83
 1032.20        2981.00           2584         942.00      4102.58
 1032.23        2981.25           2587         939.00      4089.50
 1032.26        2981.50           2591         958.00      4172.34
 1032.29        2981.75           2594         990.00      4311.88
 1032.32        2982.00           2598         954.00      4154.90
 1032.35        2982.25           2601         937.00      4080.78
 1032.39        2982.50           2605         948.00      4128.74
 1032.42        2982.75           2609         934.00      4067.69
 1032.45        2983.00           2612         939.00      4089.50
 1032.48        2983.25           2616         923.00      4019.73
 1032.51        2983.50           2619         911.00      3967.41
 1032.54        2983.75           2623         927.00      4037.17
 1032.57        2984.00           2626         906.00      3945.60
HS scan finished at 17:12:48
end
