************************************************************
  HS Scan of (1) Internal mercury lamp
************************************************************
Integration time is 0.2294 seconds per sample
dh201118Reading 51.44 .94 2.68pr1000
************************************************************
Dead Time -------------------------  3.4E-08 
Number of Cycles Used -------------  4 
Starting Wavelength (Angstroms) ---  2950 
Final Wavelength (Angstoms) -------  2984 
Wavelength Increment (Angstroms) --  .25 
Filter Wheel #1 Position ---------- (1) Ground quartz diffuser (ND=2.32)
Filter Wheel #2 Position ---------- (1) Neutral Density 0.494



************************************************************
HS scan start time = 04:42:38
Dark Count =  .3 


Time (GMT)  Wavelength (Ang)  Step Number  Raw Counts  Counts/Second

  283.53        2950.00           2144        1592.00      6940.17
  283.73        2950.25           2147        1583.00      6900.92
  283.76        2950.50           2151        1607.00      7005.59
  283.79        2950.75           2155        1636.00      7132.07
  283.82        2951.00           2158        1615.00      7040.48
  283.85        2951.25           2162        1618.00      7053.57
  283.88        2951.50           2165        1595.00      6953.26
  283.91        2951.75           2169        1596.00      6957.62
  283.94        2952.00           2172        1591.00      6935.81
  283.97        2952.25           2176        1637.00      7136.43
  284.00        2952.50           2179        1583.00      6900.92
  284.03        2952.75           2183        1647.00      7180.04
  284.06        2953.00           2186        1639.00      7145.15
  284.09        2953.25           2190        1622.00      7071.01
  284.12        2953.50           2193        1656.00      7219.30
  284.15        2953.75           2197        1640.00      7149.51
  284.18        2954.00           2200        1696.00      7393.75
  284.22        2954.25           2204        1634.00      7123.35
  284.25        2954.50           2208        1662.00      7245.46
  284.28        2954.75           2211        1692.00      7376.30
  284.31        2955.00           2215        1682.00      7332.69
  284.34        2955.25           2218        1665.00      7258.55
  284.37        2955.50           2222        1649.00      7188.77
  284.40        2955.75           2225        1687.00      7354.50
  284.43        2956.00           2229        1705.00      7433.00
  284.46        2956.25           2232        1718.00      7489.70
  284.49        2956.50           2236        1714.00      7472.26
  284.52        2956.75           2239        1710.00      7454.81
  284.55        2957.00           2243        1777.00      7747.03
  284.58        2957.25           2246        1722.00      7507.15
  284.61        2957.50           2250        1768.00      7707.77
  284.64        2957.75           2254        1783.00      7773.20
  284.67        2958.00           2257        1796.00      7829.90
  284.70        2958.25           2261        1809.00      7886.60
  284.74        2958.50           2264        1855.00      8087.23
  284.77        2958.75           2268        1849.00      8061.06
  284.80        2959.00           2271        1879.00      8191.91
  284.83        2959.25           2275        1864.00      8126.48
  284.86        2959.50           2278        1882.00      8204.99
  284.89        2959.75           2282        1907.00      8314.03
  284.92        2960.00           2285        1890.00      8239.88
  284.95        2960.25           2289        1991.00      8680.42
  284.98        2960.50           2293        1980.00      8632.44
  285.01        2960.75           2296        2006.00      8745.84
  285.04        2961.00           2300        2097.00      9142.77
  285.07        2961.25           2303        2361.00     10294.36
  285.10        2961.50           2307        4677.00     20400.81
  285.13        2961.75           2310       11637.00     50814.39
  285.16        2962.00           2314       26807.00    117322.80
  285.19        2962.25           2317       39631.00    173781.80
  285.22        2962.50           2321       59166.00    260206.90
  285.26        2962.75           2324       74382.00    327879.50
  285.29        2963.00           2328       95725.00    423332.50
  285.32        2963.25           2331      112562.00    499075.90
  285.35        2963.50           2335      133019.00    591637.10
  285.38        2963.75           2339      152427.00    679999.50
  285.41        2964.00           2342      168687.00    754445.10
  285.44        2964.25           2346      190890.00    856721.10
  285.47        2964.50           2349      207798.00    935093.20
  285.50        2964.75           2353      230500.00   1040994.00
  285.53        2965.00           2356      245121.00   1109612.00
  285.56        2965.25           2360      263181.00   1194823.00
  285.59        2965.50           2363      277725.00   1263812.00
  285.62        2965.75           2367      299503.00   1367739.00
  285.65        2966.00           2370      315326.00   1443723.00
  285.68        2966.25           2374      334051.00   1534167.00
  285.71        2966.50           2378      348057.00   1602192.00
  285.74        2966.75           2381      352209.00   1622420.00
  285.78        2967.00           2385      354247.00   1632360.00
  285.81        2967.25           2388      354283.00   1632535.00
  285.84        2967.50           2392      354696.00   1634550.00
  285.87        2967.75           2395      353434.00   1628394.00
  285.90        2968.00           2399      347810.00   1600990.00
  285.93        2968.25           2402      337483.00   1550805.00
  285.96        2968.50           2406      321412.00   1473057.00
  285.99        2968.75           2409      308561.00   1411188.00
  286.02        2969.00           2413      290920.00   1326691.00
  286.05        2969.25           2417      272507.00   1239023.00
  286.08        2969.50           2420      257205.00   1166571.00
  286.11        2969.75           2424      234191.00   1058286.00
  286.14        2970.00           2427      217231.00    979002.40
  286.17        2970.25           2431      195791.00    879394.60
  286.20        2970.50           2434      180234.00    807545.10
  286.23        2970.75           2438      158903.00    709603.80
  286.26        2971.00           2441      141604.00    630657.40
  286.29        2971.25           2445      119681.00    531220.40
  286.33        2971.50           2449       99156.00    438735.40
  286.36        2971.75           2452       83858.00    370182.40
  286.39        2972.00           2456       64509.00    283934.00
  286.42        2972.25           2459       50346.00    221123.10
  286.45        2972.50           2463       28936.00    126680.90
  286.48        2972.75           2466       15816.00     69105.95
  286.52        2973.00           2470        5430.00     23688.21
  286.55        2973.25           2473        2795.00     12187.70
  286.58        2973.50           2477        2101.00      9160.22
  286.61        2973.75           2481        2038.00      8885.42
  286.64        2974.00           2484        2032.00      8859.25
  286.67        2974.25           2488        1997.00      8706.59
  286.70        2974.50           2491        1922.00      8379.46
  286.73        2974.75           2495        1928.00      8405.63
  286.76        2975.00           2498        1882.00      8204.99
  286.79        2975.25           2502        1830.00      7978.19
  286.82        2975.50           2505        1793.00      7816.81
  286.85        2975.75           2509        1788.00      7795.00
  286.88        2976.00           2512        1826.00      7960.74
  286.91        2976.25           2516        1750.00      7629.27
  286.94        2976.50           2520        1754.00      7646.71
  286.97        2976.75           2523        1732.00      7550.76
  287.00        2977.00           2527        1742.00      7594.38
  287.04        2977.25           2530        1691.00      7371.94
  287.07        2977.50           2534        1673.00      7293.44
  287.10        2977.75           2537        1654.00      7210.57
  287.13        2978.00           2541        1675.00      7302.16
  287.16        2978.25           2544        1660.00      7236.74
  287.19        2978.50           2548        1642.00      7158.24
  287.22        2978.75           2552        1625.00      7084.09
  287.25        2979.00           2555        1651.00      7197.49
  287.28        2979.25           2559        1604.00      6992.51
  287.31        2979.50           2562        1560.00      6800.61
  287.34        2979.75           2566        1599.00      6970.70
  287.37        2980.00           2569        1583.00      6900.92
  287.40        2980.25           2573        1619.00      7057.93
  287.43        2980.50           2577        1552.00      6765.72
  287.46        2980.75           2580        1547.00      6743.92
  287.49        2981.00           2584        1559.00      6796.25
  287.52        2981.25           2587        1532.00      6678.50
  287.56        2981.50           2591        1545.00      6735.20
  287.59        2981.75           2594        1529.00      6665.42
  287.62        2982.00           2598        1514.00      6600.00
  287.65        2982.25           2601        1536.00      6695.95
  287.68        2982.50           2605        1510.00      6582.55
  287.71        2982.75           2609        1463.00      6377.58
  287.74        2983.00           2612        1455.00      6342.69
  287.77        2983.25           2616        1537.00      6700.31
  287.80        2983.50           2619        1471.00      6412.47
  287.83        2983.75           2623        1464.00      6381.94
  287.86        2984.00           2626        1518.00      6617.44
HS scan finished at 04:48:05
end
************************************************************
  HS Scan of (1) Internal mercury lamp
************************************************************
Integration time is 0.2294 seconds per sample
dh201118Reading 51.44 .94 2.76pr1000
************************************************************
Dead Time -------------------------  3.4E-08 
Number of Cycles Used -------------  4 
Starting Wavelength (Angstroms) ---  2950 
Final Wavelength (Angstoms) -------  2984 
Wavelength Increment (Angstroms) --  .25 
Filter Wheel #1 Position ---------- (1) Ground quartz diffuser (ND=2.32)
Filter Wheel #2 Position ---------- (1) Neutral Density 0.494



************************************************************
HS scan start time = 17:07:19
Dark Count =  .3 


Time (GMT)  Wavelength (Ang)  Step Number  Raw Counts  Counts/Second

 1028.22        2950.00           2144        1517.00      6613.08
 1028.41        2950.25           2147        1526.00      6652.33
 1028.44        2950.50           2151        1523.00      6639.25
 1028.47        2950.75           2155        1532.00      6678.50
 1028.50        2951.00           2158        1507.00      6569.47
 1028.53        2951.25           2162        1569.00      6839.86
 1028.56        2951.50           2165        1543.00      6726.47
 1028.60        2951.75           2169        1522.00      6634.89
 1028.63        2952.00           2172        1535.00      6691.58
 1028.66        2952.25           2176        1524.00      6643.61
 1028.69        2952.50           2179        1572.00      6852.95
 1028.72        2952.75           2183        1575.00      6866.03
 1028.75        2953.00           2186        1568.00      6835.50
 1028.78        2953.25           2190        1515.00      6604.36
 1028.81        2953.50           2193        1600.00      6975.06
 1028.84        2953.75           2197        1614.00      7036.12
 1028.87        2954.00           2200        1554.00      6774.45
 1028.90        2954.25           2204        1570.00      6844.23
 1028.93        2954.50           2208        1587.00      6918.37
 1028.96        2954.75           2211        1613.00      7031.76
 1028.99        2955.00           2215        1634.00      7123.35
 1029.02        2955.25           2218        1638.00      7140.79
 1029.05        2955.50           2222        1600.00      6975.06
 1029.08        2955.75           2225        1642.00      7158.24
 1029.12        2956.00           2229        1608.00      7009.95
 1029.15        2956.25           2232        1621.00      7066.65
 1029.18        2956.50           2236        1667.00      7267.27
 1029.21        2956.75           2239        1668.00      7271.63
 1029.24        2957.00           2243        1689.00      7363.22
 1029.27        2957.25           2246        1685.00      7345.78
 1029.30        2957.50           2250        1680.00      7323.97
 1029.33        2957.75           2254        1723.00      7511.51
 1029.36        2958.00           2257        1698.00      7402.47
 1029.39        2958.25           2261        1723.00      7511.51
 1029.42        2958.50           2264        1750.00      7629.27
 1029.45        2958.75           2268        1767.00      7703.41
 1029.48        2959.00           2271        1774.00      7733.94
 1029.51        2959.25           2275        1786.00      7786.28
 1029.54        2959.50           2278        1795.00      7825.53
 1029.57        2959.75           2282        1831.00      7982.55
 1029.60        2960.00           2285        1883.00      8209.35
 1029.64        2960.25           2289        1859.00      8104.67
 1029.67        2960.50           2293        1901.00      8287.86
 1029.70        2960.75           2296        1899.00      8279.14
 1029.73        2961.00           2300        1987.00      8662.97
 1029.76        2961.25           2303        2272.00      9906.13
 1029.79        2961.50           2307        5386.00     23496.10
 1029.82        2961.75           2310       12588.00     54974.94
 1029.85        2962.00           2314       27361.00    119757.30
 1029.88        2962.25           2317       39524.00    173309.90
 1029.91        2962.50           2321       58245.00    256120.80
 1029.94        2962.75           2324       73530.00    324081.90
 1029.97        2963.00           2328       95233.00    421125.10
 1030.00        2963.25           2331      110904.00    491599.70
 1030.03        2963.50           2335      131229.00    583514.50
 1030.06        2963.75           2339      150197.00    669819.20
 1030.09        2964.00           2342      164732.00    736302.10
 1030.12        2964.25           2346      184916.00    829131.50
 1030.16        2964.50           2349      200168.00    899674.00
 1030.19        2964.75           2353      219478.00    989481.50
 1030.22        2965.00           2356      234196.00   1058309.00
 1030.25        2965.25           2360      254380.00   1153235.00
 1030.28        2965.50           2363      267787.00   1216636.00
 1030.31        2965.75           2367      284756.00   1297283.00
 1030.34        2966.00           2370      298203.00   1361515.00
 1030.37        2966.25           2374      317548.00   1454426.00
 1030.40        2966.50           2378      331260.00   1520650.00
 1030.43        2966.75           2381      336624.00   1546639.00
 1030.46        2967.00           2385      338709.00   1556754.00
 1030.49        2967.25           2388      339812.00   1562108.00
 1030.52        2967.50           2392      339463.00   1560414.00
 1030.55        2967.75           2395      338962.00   1557982.00
 1030.58        2968.00           2399      337242.00   1549636.00
 1030.61        2968.25           2402      330381.00   1516395.00
 1030.64        2968.50           2406      315350.00   1443839.00
 1030.68        2968.75           2409      302573.00   1382451.00
 1030.71        2969.00           2413      285255.00   1299661.00
 1030.74        2969.25           2417      267701.00   1216228.00
 1030.77        2969.50           2420      254232.00   1152537.00
 1030.80        2969.75           2424      233915.00   1056992.00
 1030.83        2970.00           2427      218776.00    986206.90
 1030.86        2970.25           2431      196826.00    884187.40
 1030.89        2970.50           2434      181328.00    812586.10
 1030.92        2970.75           2438      161359.00    720847.00
 1030.95        2971.00           2441      145790.00    649721.50
 1030.98        2971.25           2445      124460.00    552838.90
 1031.01        2971.50           2449      101839.00    450791.70
 1031.04        2971.75           2452       85380.00    376988.30
 1031.07        2972.00           2456       64216.00    282631.90
 1031.10        2972.25           2459       49848.00    218919.40
 1031.13        2972.50           2463       31719.00    138922.70
 1031.16        2972.75           2466       19016.00     83127.81
 1031.19        2973.00           2470        7259.00     31676.21
 1031.23        2973.25           2473        3628.00     15822.37
 1031.26        2973.50           2477        2138.00      9321.61
 1031.29        2973.75           2481        2018.00      8798.19
 1031.32        2974.00           2484        1955.00      8523.39
 1031.35        2974.25           2488        1907.00      8314.03
 1031.38        2974.50           2491        1887.00      8226.80
 1031.41        2974.75           2495        1833.00      7991.27
 1031.44        2975.00           2498        1797.00      7834.26
 1031.47        2975.25           2502        1742.00      7594.38
 1031.50        2975.50           2505        1790.00      7803.73
 1031.53        2975.75           2509        1762.00      7681.61
 1031.56        2976.00           2512        1786.00      7786.28
 1031.59        2976.25           2516        1690.00      7367.58
 1031.62        2976.50           2520        1648.00      7184.41
 1031.65        2976.75           2523        1671.00      7284.72
 1031.68        2977.00           2527        1665.00      7258.55
 1031.71        2977.25           2530        1631.00      7110.26
 1031.75        2977.50           2534        1665.00      7258.55
 1031.78        2977.75           2537        1619.00      7057.93
 1031.81        2978.00           2541        1572.00      6852.95
 1031.84        2978.25           2544        1587.00      6918.37
 1031.87        2978.50           2548        1590.00      6931.45
 1031.90        2978.75           2552        1581.00      6892.20
 1031.93        2979.00           2555        1564.00      6818.06
 1031.96        2979.25           2559        1534.00      6687.22
 1031.99        2979.50           2562        1561.00      6804.97
 1032.02        2979.75           2566        1542.00      6722.11
 1032.05        2980.00           2569        1513.00      6595.64
 1032.09        2980.25           2573        1536.00      6695.95
 1032.12        2980.50           2577        1487.00      6482.25
 1032.15        2980.75           2580        1515.00      6604.36
 1032.18        2981.00           2584        1475.00      6429.91
 1032.21        2981.25           2587        1499.00      6534.58
 1032.24        2981.50           2591        1493.00      6508.41
 1032.27        2981.75           2594        1436.00      6259.83
 1032.30        2982.00           2598        1461.00      6368.86
 1032.33        2982.25           2601        1459.00      6360.14
 1032.36        2982.50           2605        1498.00      6530.22
 1032.39        2982.75           2609        1451.00      6325.25
 1032.42        2983.00           2612        1435.00      6255.47
 1032.46        2983.25           2616        1472.00      6416.83
 1032.49        2983.50           2619        1395.00      6081.03
 1032.52        2983.75           2623        1464.00      6381.94
 1032.55        2984.00           2626        1436.00      6259.83
HS scan finished at 17:12:46
end
