************************************************************
  HS Scan of (1) Internal mercury lamp
************************************************************
Integration time is 0.2294 seconds per sample
dh191118Reading 51.44 .94 2.72pr1000
************************************************************
Dead Time -------------------------  3.4E-08 
Number of Cycles Used -------------  4 
Starting Wavelength (Angstroms) ---  2950 
Final Wavelength (Angstoms) -------  2984 
Wavelength Increment (Angstroms) --  .25 
Filter Wheel #1 Position ---------- (1) Ground quartz diffuser (ND=2.32)
Filter Wheel #2 Position ---------- (1) Neutral Density 0.494



************************************************************
HS scan start time = 04:41:17
Dark Count =  .6 


Time (GMT)  Wavelength (Ang)  Step Number  Raw Counts  Counts/Second

  282.17        2950.00           2144        1623.00      7074.06
  282.37        2950.25           2147        1582.00      6895.25
  282.40        2950.50           2151        1578.00      6877.81
  282.43        2950.75           2155        1618.00      7052.26
  282.46        2951.00           2158        1591.00      6934.50
  282.50        2951.25           2162        1639.00      7143.85
  282.53        2951.50           2165        1597.00      6960.67
  282.56        2951.75           2169        1628.00      7095.87
  282.59        2952.00           2172        1571.00      6847.28
  282.62        2952.25           2176        1610.00      7017.37
  282.65        2952.50           2179        1595.00      6951.95
  282.68        2952.75           2183        1657.00      7222.35
  282.71        2953.00           2186        1661.00      7239.79
  282.74        2953.25           2190        1636.00      7130.76
  282.77        2953.50           2193        1661.00      7239.79
  282.80        2953.75           2197        1656.00      7217.99
  282.83        2954.00           2200        1687.00      7353.19
  282.86        2954.25           2204        1638.00      7139.48
  282.89        2954.50           2208        1653.00      7204.90
  282.92        2954.75           2211        1662.00      7244.16
  282.95        2955.00           2215        1696.00      7392.44
  282.98        2955.25           2218        1708.00      7444.78
  283.02        2955.50           2222        1709.00      7449.14
  283.05        2955.75           2225        1698.00      7401.16
  283.08        2956.00           2229        1711.00      7457.86
  283.11        2956.25           2232        1728.00      7532.01
  283.14        2956.50           2236        1737.00      7571.26
  283.17        2956.75           2239        1746.00      7610.51
  283.20        2957.00           2243        1739.00      7579.98
  283.23        2957.25           2246        1733.00      7553.82
  283.26        2957.50           2250        1766.00      7697.74
  283.29        2957.75           2254        1782.00      7767.53
  283.32        2958.00           2257        1766.00      7697.74
  283.35        2958.25           2261        1821.00      7937.63
  283.38        2958.50           2264        1842.00      8029.22
  283.41        2958.75           2268        1845.00      8042.30
  283.44        2959.00           2271        1843.00      8033.58
  283.47        2959.25           2275        1886.00      8221.13
  283.50        2959.50           2278        1883.00      8208.05
  283.53        2959.75           2282        1901.00      8286.56
  283.57        2960.00           2285        1947.00      8487.19
  283.60        2960.25           2289        1937.00      8443.58
  283.63        2960.50           2293        1994.00      8692.19
  283.66        2960.75           2296        2044.00      8910.28
  283.69        2961.00           2300        2128.00      9276.68
  283.72        2961.25           2303        2800.00     12208.21
  283.75        2961.50           2307        9051.00     39505.52
  283.78        2961.75           2310       19320.00     84459.28
  283.81        2962.00           2314       36986.00    162117.80
  283.84        2962.25           2317       51577.00    226570.40
  283.87        2962.50           2321       70859.00    312181.80
  283.90        2962.75           2324       84451.00    372832.30
  283.93        2963.00           2328      103240.00    457089.70
  283.96        2963.25           2331      119497.00    530387.30
  283.99        2963.50           2335      143314.00    638440.80
  284.02        2963.75           2339      166709.00    745367.10
  284.05        2964.00           2342      183261.00    821496.00
  284.09        2964.25           2346      202402.00    910034.10
  284.12        2964.50           2349      216125.00    973845.90
  284.15        2964.75           2353      237587.00   1074212.00
  284.18        2965.00           2356      253540.00   1149270.00
  284.21        2965.25           2360      274187.00   1246998.00
  284.24        2965.50           2363      288883.00   1316964.00
  284.27        2965.75           2367      307263.00   1404952.00
  284.30        2966.00           2370      322083.00   1476293.00
  284.33        2966.25           2374      340276.00   1564359.00
  284.36        2966.50           2378      354615.00   1634154.00
  284.39        2966.75           2381      359524.00   1658127.00
  284.42        2967.00           2385      361201.00   1666325.00
  284.45        2967.25           2388      360947.00   1665083.00
  284.48        2967.50           2392      360703.00   1663890.00
  284.53        2967.75           2395      360522.00   1663005.00
  284.56        2968.00           2399      355306.00   1637526.00
  284.59        2968.25           2402      346847.00   1596301.00
  284.62        2968.50           2406      329651.00   1512861.00
  284.65        2968.75           2409      314261.00   1438595.00
  284.68        2969.00           2413      291825.00   1331012.00
  284.71        2969.25           2417      270257.00   1228345.00
  284.74        2969.50           2420      255166.00   1156943.00
  284.77        2969.75           2424      235445.00   1064164.00
  284.80        2970.00           2427      220347.00    993534.90
  284.83        2970.25           2431      195677.00    878865.40
  284.87        2970.50           2434      177782.00    796251.80
  284.90        2970.75           2438      157440.00    702909.10
  284.93        2971.00           2441      141560.00    630455.80
  284.96        2971.25           2445      121372.00    538864.80
  284.99        2971.50           2449      101437.00    448983.20
  285.02        2971.75           2452       85145.00    375935.90
  285.05        2972.00           2456       62257.00    273927.40
  285.08        2972.25           2459       45440.00    199427.00
  285.11        2972.50           2463       24743.00    108254.80
  285.14        2972.75           2466       12397.00     54137.92
  285.17        2973.00           2470        4352.00     18980.86
  285.20        2973.25           2473        2703.00     11785.02
  285.23        2973.50           2477        2169.00      9455.52
  285.26        2973.75           2481        2067.00      9010.61
  285.29        2974.00           2484        2040.00      8892.84
  285.32        2974.25           2488        1965.00      8565.70
  285.35        2974.50           2491        1937.00      8443.58
  285.39        2974.75           2495        1874.00      8168.79
  285.42        2975.00           2498        1825.00      7955.07
  285.45        2975.25           2502        1813.00      7902.73
  285.48        2975.50           2505        1824.00      7950.71
  285.51        2975.75           2509        1808.00      7880.93
  285.54        2976.00           2512        1797.00      7832.95
  285.57        2976.25           2516        1789.00      7798.06
  285.60        2976.50           2520        1760.00      7671.57
  285.63        2976.75           2523        1716.00      7479.67
  285.66        2977.00           2527        1732.00      7549.45
  285.69        2977.25           2530        1723.00      7510.20
  285.72        2977.50           2534        1726.00      7523.28
  285.75        2977.75           2537        1674.00      7296.49
  285.78        2978.00           2541        1668.00      7270.32
  285.81        2978.25           2544        1658.00      7226.71
  285.84        2978.50           2548        1641.00      7152.57
  285.87        2978.75           2552        1649.00      7187.46
  285.91        2979.00           2555        1614.00      7034.81
  285.94        2979.25           2559        1633.00      7117.68
  285.97        2979.50           2562        1599.00      6969.39
  286.00        2979.75           2566        1613.00      7030.45
  286.03        2980.00           2569        1594.00      6947.59
  286.06        2980.25           2573        1569.00      6838.56
  286.09        2980.50           2577        1586.00      6912.70
  286.12        2980.75           2580        1564.00      6816.75
  286.15        2981.00           2584        1596.00      6956.31
  286.18        2981.25           2587        1553.00      6768.78
  286.21        2981.50           2591        1512.00      6589.97
  286.24        2981.75           2594        1529.00      6664.11
  286.27        2982.00           2598        1546.00      6738.25
  286.30        2982.25           2601        1532.00      6677.19
  286.33        2982.50           2605        1498.00      6528.91
  286.36        2982.75           2609        1532.00      6677.19
  286.39        2983.00           2612        1508.00      6572.52
  286.43        2983.25           2616        1528.00      6659.75
  286.46        2983.50           2619        1515.00      6603.05
  286.49        2983.75           2623        1505.00      6559.44
  286.52        2984.00           2626        1480.00      6450.41
HS scan finished at 04:46:44
end
************************************************************
  HS Scan of (1) Internal mercury lamp
************************************************************
Integration time is 0.2294 seconds per sample
dh191118Reading 51.44 .94 2.98pr1000
************************************************************
Dead Time -------------------------  3.4E-08 
Number of Cycles Used -------------  4 
Starting Wavelength (Angstroms) ---  2950 
Final Wavelength (Angstoms) -------  2984 
Wavelength Increment (Angstroms) --  .25 
Filter Wheel #1 Position ---------- (1) Ground quartz diffuser (ND=2.32)
Filter Wheel #2 Position ---------- (1) Neutral Density 0.494



************************************************************
HS scan start time = 17:07:22
Dark Count =  1 


Time (GMT)  Wavelength (Ang)  Step Number  Raw Counts  Counts/Second

 1028.26        2950.00           2144        1366.00      5951.51
 1028.45        2950.25           2147        1304.00      5681.13
 1028.48        2950.50           2151        1312.00      5716.02
 1028.51        2950.75           2155        1318.00      5742.19
 1028.54        2951.00           2158        1322.00      5759.63
 1028.57        2951.25           2162        1360.00      5925.34
 1028.60        2951.50           2165        1302.00      5672.41
 1028.63        2951.75           2169        1330.00      5794.52
 1028.66        2952.00           2172        1315.00      5729.10
 1028.69        2952.25           2176        1345.00      5859.93
 1028.73        2952.50           2179        1359.00      5920.98
 1028.76        2952.75           2183        1340.00      5838.13
 1028.79        2953.00           2186        1342.00      5846.85
 1028.82        2953.25           2190        1328.00      5785.79
 1028.85        2953.50           2193        1358.00      5916.62
 1028.88        2953.75           2197        1334.00      5811.96
 1028.91        2954.00           2200        1361.00      5929.70
 1028.94        2954.25           2204        1374.00      5986.40
 1028.97        2954.50           2208        1337.00      5825.04
 1029.00        2954.75           2211        1368.00      5960.23
 1029.03        2955.00           2215        1389.00      6051.81
 1029.06        2955.25           2218        1394.00      6073.62
 1029.09        2955.50           2222        1411.00      6147.75
 1029.12        2955.75           2225        1412.00      6152.12
 1029.15        2956.00           2229        1395.00      6077.98
 1029.18        2956.25           2232        1397.00      6086.70
 1029.21        2956.50           2236        1471.00      6409.42
 1029.25        2956.75           2239        1435.00      6252.42
 1029.28        2957.00           2243        1432.00      6239.34
 1029.31        2957.25           2246        1482.00      6457.39
 1029.34        2957.50           2250        1490.00      6492.28
 1029.37        2957.75           2254        1490.00      6492.28
 1029.40        2958.00           2257        1483.00      6461.75
 1029.43        2958.25           2261        1527.00      6653.64
 1029.46        2958.50           2264        1525.00      6644.92
 1029.49        2958.75           2268        1562.00      6806.28
 1029.52        2959.00           2271        1522.00      6631.84
 1029.55        2959.25           2275        1559.00      6793.20
 1029.58        2959.50           2278        1549.00      6749.59
 1029.61        2959.75           2282        1620.00      7059.24
 1029.64        2960.00           2285        1652.00      7198.80
 1029.67        2960.25           2289        1650.00      7190.07
 1029.70        2960.50           2293        1647.00      7176.99
 1029.73        2960.75           2296        1719.00      7491.01
 1029.77        2961.00           2300        1789.00      7796.31
 1029.80        2961.25           2303        2099.00      9148.44
 1029.84        2961.50           2307        5715.00     24929.58
 1029.87        2961.75           2310       13389.00     58477.09
 1029.90        2962.00           2314       27442.00    120110.30
 1029.93        2962.25           2317       39171.00    171749.80
 1029.96        2962.50           2321       56441.00    248117.50
 1029.99        2962.75           2324       69651.00    306801.90
 1030.03        2963.00           2328       87528.00    386595.80
 1030.06        2963.25           2331      101455.00    449062.30
 1030.09        2963.50           2335      122487.00    543906.70
 1030.12        2963.75           2339      142376.00    634168.20
 1030.15        2964.00           2342      157173.00    701686.10
 1030.18        2964.25           2346      176280.00    789337.10
 1030.22        2964.50           2349      189641.00    850945.20
 1030.25        2964.75           2353      207509.00    933746.90
 1030.28        2965.00           2356      222085.00   1001646.00
 1030.31        2965.25           2360      240237.00   1086651.00
 1030.34        2965.50           2363      253253.00   1147915.00
 1030.37        2965.75           2367      270513.00   1229557.00
 1030.40        2966.00           2370      282116.00   1284703.00
 1030.43        2966.25           2374      297895.00   1360037.00
 1030.46        2966.50           2378      311797.00   1426739.00
 1030.49        2966.75           2381      316588.00   1449798.00
 1030.52        2967.00           2385      319239.00   1462573.00
 1030.55        2967.25           2388      319513.00   1463894.00
 1030.58        2967.50           2392      319204.00   1462404.00
 1030.61        2967.75           2395      318789.00   1460404.00
 1030.64        2968.00           2399      316757.00   1450612.00
 1030.67        2968.25           2402      309760.00   1416946.00
 1030.70        2968.50           2406      296348.00   1352634.00
 1030.73        2968.75           2409      284063.00   1293977.00
 1030.77        2969.00           2413      266107.00   1208672.00
 1030.80        2969.25           2417      246071.00   1114079.00
 1030.83        2969.50           2420      230658.00   1041731.00
 1030.86        2969.75           2424      212540.00    957146.60
 1030.89        2970.00           2427      199203.00    895197.30
 1030.92        2970.25           2431      179533.00    804312.80
 1030.95        2970.50           2434      164297.00    734304.80
 1030.98        2970.75           2438      143431.00    638971.80
 1031.01        2971.00           2441      129001.00    573407.40
 1031.04        2971.25           2445      110717.00    490753.60
 1031.07        2971.50           2449       92627.00    409435.30
 1031.10        2971.75           2452       78101.00    344464.10
 1031.13        2972.00           2456       59160.00    260177.20
 1031.16        2972.25           2459       44930.00    197171.80
 1031.19        2972.50           2463       25739.00    112627.50
 1031.22        2972.75           2466       14149.00     61803.67
 1031.25        2973.00           2470        4808.00     20969.61
 1031.29        2973.25           2473        2568.00     11194.32
 1031.32        2973.50           2477        1818.00      7922.80
 1031.35        2973.75           2481        1737.00      7569.52
 1031.38        2974.00           2484        1769.00      7709.08
 1031.41        2974.25           2488        1676.00      7303.47
 1031.44        2974.50           2491        1635.00      7124.66
 1031.47        2974.75           2495        1632.00      7111.57
 1031.50        2975.00           2498        1572.00      6849.90
 1031.53        2975.25           2502        1572.00      6849.90
 1031.56        2975.50           2505        1543.00      6723.42
 1031.59        2975.75           2509        1536.00      6692.89
 1031.62        2976.00           2512        1518.00      6614.39
 1031.65        2976.25           2516        1472.00      6413.78
 1031.68        2976.50           2520        1490.00      6492.28
 1031.71        2976.75           2523        1466.00      6387.61
 1031.74        2977.00           2527        1444.00      6291.67
 1031.77        2977.25           2530        1424.00      6204.45
 1031.81        2977.50           2534        1418.00      6178.28
 1031.84        2977.75           2537        1402.00      6108.50
 1031.87        2978.00           2541        1355.00      5903.54
 1031.90        2978.25           2544        1395.00      6077.98
 1031.93        2978.50           2548        1395.00      6077.98
 1031.96        2978.75           2552        1382.00      6021.29
 1031.99        2979.00           2555        1369.00      5964.59
 1032.02        2979.25           2559        1389.00      6051.81
 1032.05        2979.50           2562        1346.00      5864.29
 1032.08        2979.75           2566        1342.00      5846.85
 1032.11        2980.00           2569        1330.00      5794.52
 1032.14        2980.25           2573        1318.00      5742.19
 1032.17        2980.50           2577        1296.00      5646.25
 1032.20        2980.75           2580        1288.00      5611.36
 1032.23        2981.00           2584        1346.00      5864.29
 1032.26        2981.25           2587        1297.00      5650.61
 1032.29        2981.50           2591        1300.00      5663.69
 1032.33        2981.75           2594        1293.00      5633.16
 1032.36        2982.00           2598        1288.00      5611.36
 1032.39        2982.25           2601        1249.00      5441.29
 1032.42        2982.50           2605        1261.00      5493.62
 1032.45        2982.75           2609        1255.00      5467.45
 1032.48        2983.00           2612        1277.00      5563.39
 1032.51        2983.25           2616        1240.00      5402.04
 1032.54        2983.50           2619        1255.00      5467.45
 1032.57        2983.75           2623        1251.00      5450.01
 1032.60        2984.00           2626        1254.00      5463.09
HS scan finished at 17:12:49
end
