************************************************************
  HS Scan of (1) Internal mercury lamp
************************************************************
Integration time is 0.2294 seconds per sample
dh221117Reading 51.44 .94 3.15pr1000
************************************************************
Dead Time -------------------------  3.4E-08 
Number of Cycles Used -------------  4 
Starting Wavelength (Angstroms) ---  2950 
Final Wavelength (Angstoms) -------  2984 
Wavelength Increment (Angstroms) --  .25 
Filter Wheel #1 Position ---------- (1) Ground quartz diffuser (ND=2.32)
Filter Wheel #2 Position ---------- (1) Neutral Density 0.494



************************************************************
HS scan start time = 04:45:34
Dark Count =  1.4 


Time (GMT)  Wavelength (Ang)  Step Number  Raw Counts  Counts/Second

  286.47        2950.00           2144          88.00       377.51
  286.66        2950.25           2147          94.00       403.67
  286.69        2950.50           2151          94.00       403.67
  286.73        2950.75           2155          94.00       403.67
  286.76        2951.00           2158         100.00       429.82
  286.79        2951.25           2162          90.00       386.23
  286.82        2951.50           2165          93.00       399.31
  286.85        2951.75           2169          97.00       416.75
  286.88        2952.00           2172          93.00       399.31
  286.91        2952.25           2176          88.00       377.51
  286.94        2952.50           2179         104.00       447.26
  286.97        2952.75           2183          97.00       416.75
  287.00        2953.00           2186          98.00       421.10
  287.03        2953.25           2190          94.00       403.67
  287.06        2953.50           2193          91.00       390.59
  287.09        2953.75           2197          88.00       377.51
  287.12        2954.00           2200          97.00       416.75
  287.15        2954.25           2204         100.00       429.82
  287.18        2954.50           2208          95.00       408.03
  287.21        2954.75           2211         105.00       451.62
  287.24        2955.00           2215          90.00       386.23
  287.28        2955.25           2218         100.00       429.82
  287.31        2955.50           2222          97.00       416.75
  287.34        2955.75           2225         130.00       560.60
  287.37        2956.00           2229          97.00       416.75
  287.40        2956.25           2232          96.00       412.39
  287.43        2956.50           2236         123.00       530.09
  287.46        2956.75           2239         101.00       434.18
  287.49        2957.00           2243          99.00       425.46
  287.52        2957.25           2246         138.00       595.48
  287.55        2957.50           2250          99.00       425.46
  287.58        2957.75           2254         123.00       530.09
  287.61        2958.00           2257         131.00       564.96
  287.64        2958.25           2261         124.00       534.45
  287.67        2958.50           2264         100.00       429.82
  287.70        2958.75           2268         110.00       473.42
  287.73        2959.00           2271         111.00       477.78
  287.76        2959.25           2275         121.00       521.37
  287.80        2959.50           2278         106.00       455.98
  287.83        2959.75           2282         111.00       477.78
  287.86        2960.00           2285         140.00       604.20
  287.89        2960.25           2289         139.00       599.84
  287.92        2960.50           2293         110.00       473.42
  287.95        2960.75           2296         123.00       530.09
  287.98        2961.00           2300         165.00       713.18
  288.01        2961.25           2303         320.00      1388.91
  288.04        2961.50           2307        1172.00      5103.76
  288.07        2961.75           2310        2141.00      9329.90
  288.10        2962.00           2314        3716.00     16201.60
  288.13        2962.25           2317        4927.00     21487.36
  288.16        2962.50           2321        6720.00     29316.92
  288.19        2962.75           2324        8052.00     35136.11
  288.22        2963.00           2328        9811.00     42824.30
  288.25        2963.25           2331       11223.00     48998.74
  288.29        2963.50           2335       12829.00     56024.66
  288.32        2963.75           2339       14545.00     63535.53
  288.35        2964.00           2342       15813.00     69087.99
  288.38        2964.25           2346       17603.00     76929.81
  288.41        2964.50           2349       18815.00     82241.85
  288.44        2964.75           2353       20452.00     89419.66
  288.47        2965.00           2356       21736.00     95052.11
  288.50        2965.25           2360       23076.00    100932.50
  288.53        2965.50           2363       24444.00    106938.30
  288.56        2965.75           2367       25809.00    112933.20
  288.59        2966.00           2370       27276.00    119379.00
  288.62        2966.25           2374       28798.00    126069.30
  288.65        2966.50           2378       29302.00    128285.50
  288.68        2966.75           2381       29626.00    129710.30
  288.71        2967.00           2385       29597.00    129582.70
  288.74        2967.25           2388       29804.00    130493.10
  288.77        2967.50           2392       29856.00    130721.80
  288.80        2967.75           2395       28995.00    126935.50
  288.84        2968.00           2399       28416.00    124389.80
  288.87        2968.25           2402       27128.00    118728.50
  288.90        2968.50           2406       25740.00    112630.10
  288.93        2968.75           2409       24443.00    106933.90
  288.96        2969.00           2413       22835.00     99874.75
  288.99        2969.25           2417       21279.00     93047.18
  289.02        2969.50           2420       20000.00     87437.41
  289.05        2969.75           2424       18364.00     80264.96
  289.08        2970.00           2427       16821.00     73503.43
  289.11        2970.25           2431       15185.00     66337.78
  289.14        2970.50           2434       13773.00     60156.05
  289.17        2970.75           2438       11847.00     51728.21
  289.20        2971.00           2441       10611.00     46322.24
  289.23        2971.25           2445        8795.00     38383.10
  289.26        2971.50           2449        6928.00     30225.47
  289.29        2971.75           2452        5476.00     23884.26
  289.33        2972.00           2456        4131.00     18012.77
  289.36        2972.25           2459        2984.00     13007.50
  289.39        2972.50           2463        1625.00      7079.30
  289.42        2972.75           2466         856.00      3725.84
  289.45        2973.00           2470         275.00      1192.73
  289.48        2973.25           2473         152.00       656.51
  289.51        2973.50           2477         122.00       525.73
  289.54        2973.75           2481         128.00       551.88
  289.57        2974.00           2484         110.00       473.42
  289.60        2974.25           2488         112.00       482.14
  289.63        2974.50           2491         113.00       486.49
  289.66        2974.75           2495         136.00       586.76
  289.69        2975.00           2498         105.00       451.62
  289.72        2975.25           2502         120.00       517.01
  289.75        2975.50           2505         103.00       442.90
  289.78        2975.75           2509         110.00       473.42
  289.81        2976.00           2512         110.00       473.42
  289.85        2976.25           2516          98.00       421.10
  289.88        2976.50           2520         115.00       495.21
  289.91        2976.75           2523         108.00       464.70
  289.94        2977.00           2527          98.00       421.10
  289.97        2977.25           2530          90.00       386.23
  290.00        2977.50           2534          89.00       381.87
  290.03        2977.75           2537          93.00       399.31
  290.06        2978.00           2541          89.00       381.87
  290.09        2978.25           2544          92.00       394.95
  290.12        2978.50           2548          83.00       355.71
  290.15        2978.75           2552          93.00       399.31
  290.18        2979.00           2555          85.00       364.43
  290.21        2979.25           2559          81.00       347.00
  290.24        2979.50           2562          79.00       338.28
  290.27        2979.75           2566          80.00       342.64
  290.30        2980.00           2569          84.00       360.07
  290.33        2980.25           2573          78.00       333.92
  290.36        2980.50           2577          89.00       381.87
  290.40        2980.75           2580          78.00       333.92
  290.43        2981.00           2584          85.00       364.43
  290.46        2981.25           2587          80.00       342.64
  290.49        2981.50           2591          81.00       347.00
  290.52        2981.75           2594          82.00       351.36
  290.55        2982.00           2598          72.00       307.76
  290.58        2982.25           2601          75.00       320.84
  290.61        2982.50           2605          78.00       333.92
  290.64        2982.75           2609          72.00       307.76
  290.67        2983.00           2612          82.00       351.36
  290.70        2983.25           2616          80.00       342.64
  290.73        2983.50           2619          72.00       307.76
  290.76        2983.75           2623          75.00       320.84
  290.79        2984.00           2626          70.00       299.04
HS scan finished at 04:51:01
end
************************************************************
  HS Scan of (1) Internal mercury lamp
************************************************************
Integration time is 0.2294 seconds per sample
dh221117Reading 51.44 .94 3.25pr1000
************************************************************
Dead Time -------------------------  3.4E-08 
Number of Cycles Used -------------  4 
Starting Wavelength (Angstroms) ---  2950 
Final Wavelength (Angstoms) -------  2984 
Wavelength Increment (Angstroms) --  .25 
Filter Wheel #1 Position ---------- (1) Ground quartz diffuser (ND=2.32)
Filter Wheel #2 Position ---------- (1) Neutral Density 0.494



************************************************************
HS scan start time = 17:07:22
Dark Count =  1.6 


Time (GMT)  Wavelength (Ang)  Step Number  Raw Counts  Counts/Second

 1028.26        2950.00           2144          61.00       258.94
 1028.45        2950.25           2147          59.00       250.22
 1028.48        2950.50           2151          67.00       285.09
 1028.51        2950.75           2155          69.00       293.81
 1028.54        2951.00           2158          76.00       324.33
 1028.57        2951.25           2162          65.00       276.38
 1028.60        2951.50           2165          62.00       263.30
 1028.64        2951.75           2169          67.00       285.09
 1028.67        2952.00           2172          65.00       276.38
 1028.70        2952.25           2176          60.00       254.58
 1028.73        2952.50           2179          62.00       263.30
 1028.76        2952.75           2183          59.00       250.22
 1028.79        2953.00           2186          70.00       298.17
 1028.82        2953.25           2190          65.00       276.38
 1028.85        2953.50           2193          72.00       306.89
 1028.88        2953.75           2197          69.00       293.81
 1028.91        2954.00           2200          68.00       289.45
 1028.94        2954.25           2204          73.00       311.25
 1028.97        2954.50           2208          72.00       306.89
 1029.00        2954.75           2211          69.00       293.81
 1029.03        2955.00           2215          71.00       302.53
 1029.06        2955.25           2218          70.00       298.17
 1029.09        2955.50           2222          69.00       293.81
 1029.13        2955.75           2225          71.00       302.53
 1029.16        2956.00           2229          76.00       324.33
 1029.19        2956.25           2232          78.00       333.05
 1029.22        2956.50           2236          67.00       285.09
 1029.25        2956.75           2239          72.00       306.89
 1029.28        2957.00           2243          69.00       293.81
 1029.31        2957.25           2246          68.00       289.45
 1029.34        2957.50           2250          76.00       324.33
 1029.37        2957.75           2254          74.00       315.61
 1029.40        2958.00           2257          75.00       319.97
 1029.43        2958.25           2261          76.00       324.33
 1029.46        2958.50           2264          78.00       333.05
 1029.49        2958.75           2268          84.00       359.20
 1029.52        2959.00           2271          78.00       333.05
 1029.55        2959.25           2275          81.00       346.12
 1029.58        2959.50           2278          78.00       333.05
 1029.61        2959.75           2282          83.00       354.84
 1029.65        2960.00           2285          87.00       372.28
 1029.68        2960.25           2289          83.00       354.84
 1029.71        2960.50           2293          94.00       402.80
 1029.74        2960.75           2296          87.00       372.28
 1029.77        2961.00           2300         125.00       537.93
 1029.80        2961.25           2303         204.00       882.33
 1029.83        2961.50           2307         706.00      3070.94
 1029.86        2961.75           2310        1384.00      6027.39
 1029.89        2962.00           2314        2459.00     10716.20
 1029.92        2962.25           2317        3224.00     14053.79
 1029.95        2962.50           2321        4299.00     18745.16
 1029.98        2962.75           2324        5156.00     22486.24
 1030.01        2963.00           2328        6313.00     27538.42
 1030.04        2963.25           2331        7319.00     31932.65
 1030.07        2963.50           2335        8521.00     37184.74
 1030.10        2963.75           2339        9657.00     42150.16
 1030.13        2964.00           2342       10521.00     45927.81
 1030.17        2964.25           2346       11603.00     50659.99
 1030.20        2964.50           2349       12520.00     54671.73
 1030.23        2964.75           2353       13720.00     59923.19
 1030.26        2965.00           2356       14625.00     63884.92
 1030.29        2965.25           2360       15894.00     69441.88
 1030.32        2965.50           2363       16863.00     73686.56
 1030.35        2965.75           2367       18209.00     79584.72
 1030.38        2966.00           2370       18790.00     82131.40
 1030.41        2966.25           2374       19241.00     84108.54
 1030.44        2966.50           2378       19880.00     86910.32
 1030.47        2966.75           2381       20260.00     88576.72
 1030.50        2967.00           2385       19883.00     86923.47
 1030.53        2967.25           2388       19944.00     87190.97
 1030.56        2967.50           2392       19875.00     86888.39
 1030.59        2967.75           2395       19694.00     86094.72
 1030.62        2968.00           2399       19301.00     84371.59
 1030.65        2968.25           2402       18422.00     80518.30
 1030.69        2968.50           2406       17118.00     74803.79
 1030.72        2968.75           2409       16179.00     70690.19
 1030.75        2969.00           2413       15312.00     66893.03
 1030.78        2969.25           2417       14176.00     61919.24
 1030.81        2969.50           2420       13472.00     58837.73
 1030.85        2969.75           2424       12309.00     53748.53
 1030.88        2970.00           2427       11703.00     51097.42
 1030.91        2970.25           2431       10420.00     45486.16
 1030.95        2970.50           2434        9508.00     41498.79
 1030.98        2970.75           2438        8269.00     36083.48
 1031.01        2971.00           2441        7423.00     32387.00
 1031.04        2971.25           2445        6250.00     27263.27
 1031.07        2971.50           2449        5110.00     22285.41
 1031.10        2971.75           2452        4270.00     18618.58
 1031.13        2972.00           2456        3250.00     14167.24
 1031.16        2972.25           2459        2394.00     10432.65
 1031.19        2972.50           2463        1295.00      5639.27
 1031.22        2972.75           2466         672.00      2922.70
 1031.25        2973.00           2470         215.00       930.28
 1031.28        2973.25           2473         127.00       546.65
 1031.31        2973.50           2477          92.00       394.08
 1031.34        2973.75           2481          95.00       407.15
 1031.37        2974.00           2484          93.00       398.44
 1031.42        2974.25           2488          96.00       411.51
 1031.45        2974.50           2491          93.00       398.44
 1031.48        2974.75           2495          83.00       354.84
 1031.51        2975.00           2498          80.00       341.77
 1031.54        2975.25           2502          85.00       363.56
 1031.57        2975.50           2505          78.00       333.05
 1031.60        2975.75           2509          79.00       337.41
 1031.63        2976.00           2512          77.00       328.69
 1031.66        2976.25           2516          75.00       319.97
 1031.69        2976.50           2520          74.00       315.61
 1031.72        2976.75           2523          83.00       354.84
 1031.76        2977.00           2527          73.00       311.25
 1031.79        2977.25           2530          74.00       315.61
 1031.82        2977.50           2534          78.00       333.05
 1031.85        2977.75           2537          75.00       319.97
 1031.88        2978.00           2541          70.00       298.17
 1031.91        2978.25           2544          69.00       293.81
 1031.94        2978.50           2548          78.00       333.05
 1031.97        2978.75           2552          69.00       293.81
 1032.00        2979.00           2555          62.00       263.30
 1032.03        2979.25           2559          70.00       298.17
 1032.06        2979.50           2562          67.00       285.09
 1032.09        2979.75           2566          73.00       311.25
 1032.12        2980.00           2569          71.00       302.53
 1032.15        2980.25           2573          70.00       298.17
 1032.18        2980.50           2577          68.00       289.45
 1032.21        2980.75           2580          67.00       285.09
 1032.24        2981.00           2584          70.00       298.17
 1032.28        2981.25           2587          67.00       285.09
 1032.31        2981.50           2591          71.00       302.53
 1032.34        2981.75           2594          70.00       298.17
 1032.37        2982.00           2598          61.00       258.94
 1032.40        2982.25           2601          66.00       280.74
 1032.43        2982.50           2605          58.00       245.86
 1032.46        2982.75           2609          60.00       254.58
 1032.49        2983.00           2612          67.00       285.09
 1032.52        2983.25           2616          60.00       254.58
 1032.55        2983.50           2619          64.00       272.02
 1032.58        2983.75           2623          73.00       311.25
 1032.61        2984.00           2626          66.00       280.74
HS scan finished at 17:12:50
end
