************************************************************
  HS Scan of (1) Internal mercury lamp
************************************************************
Integration time is 0.2294 seconds per sample
dh181118Reading 51.44 .94 2.54pr1000
************************************************************
Dead Time -------------------------  3.4E-08 
Number of Cycles Used -------------  4 
Starting Wavelength (Angstroms) ---  2950 
Final Wavelength (Angstoms) -------  2984 
Wavelength Increment (Angstroms) --  .25 
Filter Wheel #1 Position ---------- (1) Ground quartz diffuser (ND=2.32)
Filter Wheel #2 Position ---------- (1) Neutral Density 0.494



************************************************************
HS scan start time = 04:39:56
Dark Count =  .2 


Time (GMT)  Wavelength (Ang)  Step Number  Raw Counts  Counts/Second

  280.83        2950.00           2144        1589.00      6927.53
  281.03        2950.25           2147        1585.00      6910.08
  281.06        2950.50           2151        1635.00      7128.14
  281.09        2950.75           2155        1640.00      7149.95
  281.12        2951.00           2158        1656.00      7219.73
  281.15        2951.25           2162        1596.00      6958.05
  281.18        2951.50           2165        1607.00      7006.03
  281.21        2951.75           2169        1604.00      6992.95
  281.24        2952.00           2172        1629.00      7101.98
  281.27        2952.25           2176        1622.00      7071.45
  281.30        2952.50           2179        1621.00      7067.09
  281.33        2952.75           2183        1656.00      7219.73
  281.36        2953.00           2186        1625.00      7084.53
  281.39        2953.25           2190        1632.00      7115.06
  281.42        2953.50           2193        1607.00      7006.03
  281.45        2953.75           2197        1622.00      7071.45
  281.48        2954.00           2200        1609.00      7014.75
  281.52        2954.25           2204        1693.00      7381.10
  281.55        2954.50           2208        1660.00      7237.18
  281.58        2954.75           2211        1706.00      7437.80
  281.61        2955.00           2215        1617.00      7049.64
  281.64        2955.25           2218        1667.00      7267.71
  281.67        2955.50           2222        1671.00      7285.15
  281.70        2955.75           2225        1697.00      7398.55
  281.73        2956.00           2229        1674.00      7298.24
  281.76        2956.25           2232        1728.00      7533.75
  281.79        2956.50           2236        1709.00      7450.89
  281.82        2956.75           2239        1727.00      7529.39
  281.85        2957.00           2243        1713.00      7468.33
  281.88        2957.25           2246        1758.00      7664.60
  281.91        2957.50           2250        1767.00      7703.85
  281.94        2957.75           2254        1755.00      7651.51
  281.97        2958.00           2257        1796.00      7830.33
  282.00        2958.25           2261        1827.00      7965.54
  282.04        2958.50           2264        1793.00      7817.25
  282.07        2958.75           2268        1828.00      7969.90
  282.10        2959.00           2271        1853.00      8078.94
  282.13        2959.25           2275        1865.00      8131.28
  282.16        2959.50           2278        1912.00      8336.28
  282.19        2959.75           2282        1907.00      8314.47
  282.22        2960.00           2285        1940.00      8458.41
  282.25        2960.25           2289        1979.00      8628.51
  282.28        2960.50           2293        1975.00      8611.07
  282.31        2960.75           2296        1991.00      8680.85
  282.34        2961.00           2300        2068.00      9016.71
  282.37        2961.25           2303        2459.00     10722.31
  282.40        2961.50           2307        6425.00     28033.68
  282.43        2961.75           2310       15061.00     65800.05
  282.46        2962.00           2314       30206.00    132266.50
  282.49        2962.25           2317       43420.00    190505.50
  282.52        2962.50           2321       60729.00    267144.40
  282.56        2962.75           2324       74535.00    328561.90
  282.59        2963.00           2328       93171.00    411877.60
  282.62        2963.25           2331      109549.00    485493.10
  282.65        2963.50           2335      131375.00    584177.20
  282.68        2963.75           2339      152147.00    678721.20
  282.71        2964.00           2342      166956.00    746502.00
  282.74        2964.25           2346      187736.00    842148.80
  282.77        2964.50           2349      203478.00    915029.20
  282.80        2964.75           2353      223843.00   1009860.00
  282.83        2965.00           2356      237407.00   1073369.00
  282.86        2965.25           2360      255398.00   1158040.00
  282.89        2965.50           2363      269013.00   1222448.00
  282.92        2965.75           2367      286896.00   1307486.00
  282.95        2966.00           2370      300900.00   1374432.00
  282.98        2966.25           2374      317854.00   1455901.00
  283.01        2966.50           2378      331472.00   1521676.00
  283.04        2966.75           2381      336310.00   1545117.00
  283.08        2967.00           2385      338633.00   1556386.00
  283.11        2967.25           2388      338445.00   1555474.00
  283.14        2967.50           2392      338689.00   1556658.00
  283.17        2967.75           2395      338440.00   1555449.00
  283.20        2968.00           2399      335279.00   1540118.00
  283.23        2968.25           2402      327347.00   1501721.00
  283.26        2968.50           2406      310656.00   1421256.00
  283.29        2968.75           2409      297867.00   1359907.00
  283.32        2969.00           2413      279399.00   1271775.00
  283.35        2969.25           2417      261199.00   1185447.00
  283.38        2969.50           2420      247135.00   1119090.00
  283.41        2969.75           2424      226587.00   1022686.00
  283.44        2970.00           2427      209816.00    944476.00
  283.47        2970.25           2431      189250.00    849142.20
  283.50        2970.50           2434      174641.00    781801.30
  283.53        2970.75           2438      153936.00    686892.70
  283.56        2971.00           2441      136852.00    609046.30
  283.59        2971.25           2445      115245.00    511182.60
  283.63        2971.50           2449       95031.00    420219.20
  283.66        2971.75           2452       81009.00    357451.30
  283.69        2972.00           2456       60599.00    266567.30
  283.72        2972.25           2459       44137.00    193672.20
  283.75        2972.50           2463       25280.00    110614.90
  283.78        2972.75           2466       13235.00     57806.62
  283.81        2973.00           2470        5004.00     21828.75
  283.84        2973.25           2473        2782.00     12131.42
  283.87        2973.50           2477        2092.00      9121.40
  283.90        2973.75           2481        2008.00      8755.00
  283.93        2974.00           2484        1966.00      8571.81
  283.96        2974.25           2488        1928.00      8406.06
  283.99        2974.50           2491        1896.00      8266.49
  284.02        2974.75           2495        1915.00      8349.36
  284.05        2975.00           2498        1851.00      8070.22
  284.08        2975.25           2502        1793.00      7817.25
  284.11        2975.50           2505        1790.00      7804.16
  284.15        2975.75           2509        1752.00      7638.43
  284.18        2976.00           2512        1771.00      7721.29
  284.21        2976.25           2516        1788.00      7795.44
  284.24        2976.50           2520        1718.00      7490.14
  284.27        2976.75           2523        1749.00      7625.34
  284.30        2977.00           2527        1708.00      7446.52
  284.33        2977.25           2530        1692.00      7376.74
  284.36        2977.50           2534        1706.00      7437.80
  284.39        2977.75           2537        1681.00      7328.77
  284.42        2978.00           2541        1662.00      7245.90
  284.45        2978.25           2544        1643.00      7163.03
  284.48        2978.50           2548        1671.00      7285.15
  284.51        2978.75           2552        1622.00      7071.45
  284.54        2979.00           2555        1653.00      7206.65
  284.57        2979.25           2559        1616.00      7045.28
  284.60        2979.50           2562        1572.00      6853.38
  284.63        2979.75           2566        1604.00      6992.95
  284.67        2980.00           2569        1567.00      6831.58
  284.70        2980.25           2573        1613.00      7032.20
  284.73        2980.50           2577        1558.00      6792.33
  284.76        2980.75           2580        1571.00      6849.02
  284.79        2981.00           2584        1546.00      6739.99
  284.82        2981.25           2587        1506.00      6565.55
  284.85        2981.50           2591        1509.00      6578.63
  284.88        2981.75           2594        1536.00      6696.38
  284.91        2982.00           2598        1484.00      6469.60
  284.94        2982.25           2601        1473.00      6421.63
  284.97        2982.50           2605        1557.00      6787.97
  285.00        2982.75           2609        1485.00      6473.96
  285.03        2983.00           2612        1522.00      6635.32
  285.06        2983.25           2616        1522.00      6635.32
  285.09        2983.50           2619        1507.00      6569.91
  285.12        2983.75           2623        1475.00      6430.35
  285.15        2984.00           2626        1520.00      6626.60
HS scan finished at 04:45:23
end
************************************************************
  HS Scan of (1) Internal mercury lamp
************************************************************
Integration time is 0.2294 seconds per sample
dh181118Reading 51.44 .94 2.94pr1000
************************************************************
Dead Time -------------------------  3.4E-08 
Number of Cycles Used -------------  4 
Starting Wavelength (Angstroms) ---  2950 
Final Wavelength (Angstoms) -------  2984 
Wavelength Increment (Angstroms) --  .25 
Filter Wheel #1 Position ---------- (1) Ground quartz diffuser (ND=2.32)
Filter Wheel #2 Position ---------- (1) Neutral Density 0.494



************************************************************
HS scan start time = 17:07:27
Dark Count =  .7 


Time (GMT)  Wavelength (Ang)  Step Number  Raw Counts  Counts/Second

 1028.35        2950.00           2144        1510.00      6580.81
 1028.55        2950.25           2147        1486.00      6476.14
 1028.58        2950.50           2151        1464.00      6380.20
 1028.61        2950.75           2155        1513.00      6593.89
 1028.64        2951.00           2158        1546.00      6737.81
 1028.67        2951.25           2162        1504.00      6554.64
 1028.70        2951.50           2165        1520.00      6624.42
 1028.73        2951.75           2169        1523.00      6637.51
 1028.76        2952.00           2172        1527.00      6654.95
 1028.79        2952.25           2176        1579.00      6881.73
 1028.82        2952.50           2179        1546.00      6737.81
 1028.85        2952.75           2183        1571.00      6846.84
 1028.88        2953.00           2186        1525.00      6646.23
 1028.91        2953.25           2190        1558.00      6790.15
 1028.94        2953.50           2193        1522.00      6633.14
 1028.97        2953.75           2197        1568.00      6833.76
 1029.00        2954.00           2200        1568.00      6833.76
 1029.04        2954.25           2204        1590.00      6929.71
 1029.07        2954.50           2208        1612.00      7025.65
 1029.10        2954.75           2211        1594.00      6947.15
 1029.13        2955.00           2215        1575.00      6864.29
 1029.16        2955.25           2218        1599.00      6968.96
 1029.19        2955.50           2222        1606.00      6999.49
 1029.22        2955.75           2225        1579.00      6881.73
 1029.25        2956.00           2229        1584.00      6903.54
 1029.28        2956.25           2232        1601.00      6977.68
 1029.31        2956.50           2236        1640.00      7147.77
 1029.34        2956.75           2239        1658.00      7226.27
 1029.37        2957.00           2243        1634.00      7121.60
 1029.40        2957.25           2246        1665.00      7256.80
 1029.43        2957.50           2250        1645.00      7169.58
 1029.46        2957.75           2254        1681.00      7326.59
 1029.49        2958.00           2257        1695.00      7387.64
 1029.52        2958.25           2261        1727.00      7527.21
 1029.55        2958.50           2264        1778.00      7749.65
 1029.59        2958.75           2268        1732.00      7549.02
 1029.62        2959.00           2271        1794.00      7819.43
 1029.65        2959.25           2275        1773.00      7727.84
 1029.68        2959.50           2278        1822.00      7941.55
 1029.71        2959.75           2282        1827.00      7963.36
 1029.74        2960.00           2285        1810.00      7889.21
 1029.77        2960.25           2289        1899.00      8277.39
 1029.80        2960.50           2293        1934.00      8430.05
 1029.83        2960.75           2296        1934.00      8430.05
 1029.86        2961.00           2300        2020.00      8805.16
 1029.89        2961.25           2303        2328.00     10148.66
 1029.92        2961.50           2307        6095.00     26590.29
 1029.95        2961.75           2310       14288.00     62413.48
 1029.98        2962.00           2314       29567.00    129453.90
 1030.01        2962.25           2317       42598.00    186873.60
 1030.04        2962.50           2321       61451.00    270347.60
 1030.08        2962.75           2324       78394.00    345773.10
 1030.11        2963.00           2328      102036.00    451675.50
 1030.14        2963.25           2331      119079.00    528497.60
 1030.17        2963.50           2335      139511.00    621132.90
 1030.20        2963.75           2339      158436.00    707465.00
 1030.23        2964.00           2342      174724.00    782180.80
 1030.26        2964.25           2346      197164.00    885751.10
 1030.29        2964.50           2349      214435.00    965971.80
 1030.32        2964.75           2353      235146.00   1062761.00
 1030.35        2965.00           2356      249735.00   1131332.00
 1030.38        2965.25           2360      269521.00   1224854.00
 1030.41        2965.50           2363      283265.00   1290177.00
 1030.44        2965.75           2367      300272.00   1371421.00
 1030.47        2966.00           2370      313768.00   1436222.00
 1030.50        2966.25           2374      333451.00   1531258.00
 1030.55        2966.50           2378      347747.00   1600681.00
 1030.58        2966.75           2381      352382.00   1623262.00
 1030.61        2967.00           2385      354401.00   1633109.00
 1030.64        2967.25           2388      354459.00   1633392.00
 1030.67        2967.50           2392      354951.00   1635793.00
 1030.70        2967.75           2395      354007.00   1631187.00
 1030.73        2968.00           2399      351705.00   1619961.00
 1030.76        2968.25           2402      342987.00   1577528.00
 1030.79        2968.50           2406      326456.00   1497411.00
 1030.82        2968.75           2409      313369.00   1434302.00
 1030.85        2969.00           2413      294904.00   1345728.00
 1030.89        2969.25           2417      275439.00   1252945.00
 1030.92        2969.50           2420      259739.00   1178542.00
 1030.95        2969.75           2424      239419.00   1082811.00
 1030.98        2970.00           2427      224991.00   1015222.00
 1031.01        2970.25           2431      202565.00    910790.00
 1031.04        2970.50           2434      186213.00    835115.00
 1031.07        2970.75           2438      164674.00    736034.30
 1031.10        2971.00           2441      149604.00    667111.40
 1031.13        2971.25           2445      128001.00    568876.00
 1031.16        2971.50           2449      103545.00    458461.00
 1031.19        2971.75           2452       86010.00    379804.60
 1031.22        2972.00           2456       64455.00    283692.30
 1031.25        2972.25           2459       49123.00    215710.10
 1031.28        2972.50           2463       31150.00    136417.20
 1031.31        2972.75           2466       18286.00     79926.16
 1031.34        2973.00           2470        6435.00     28075.17
 1031.38        2973.25           2473        3115.00     13582.12
 1031.41        2973.50           2477        2095.00      9132.30
 1031.44        2973.75           2481        1970.00      8587.08
 1031.47        2974.00           2484        1963.00      8556.54
 1031.50        2974.25           2488        1887.00      8225.06
 1031.53        2974.50           2491        1827.00      7963.36
 1031.56        2974.75           2495        1856.00      8089.85
 1031.59        2975.00           2498        1821.00      7937.19
 1031.62        2975.25           2502        1756.00      7653.69
 1031.65        2975.50           2505        1776.00      7740.92
 1031.68        2975.75           2509        1724.00      7514.13
 1031.71        2976.00           2512        1755.00      7649.33
 1031.74        2976.25           2516        1701.00      7413.81
 1031.77        2976.50           2520        1626.00      7086.71
 1031.80        2976.75           2523        1698.00      7400.73
 1031.83        2977.00           2527        1651.00      7195.75
 1031.86        2977.25           2530        1654.00      7208.83
 1031.89        2977.50           2534        1624.00      7077.99
 1031.93        2977.75           2537        1578.00      6877.37
 1031.96        2978.00           2541        1590.00      6929.71
 1031.99        2978.25           2544        1609.00      7012.57
 1032.02        2978.50           2548        1594.00      6947.15
 1032.05        2978.75           2552        1563.00      6811.95
 1032.08        2979.00           2555        1576.00      6868.65
 1032.11        2979.25           2559        1521.00      6628.78
 1032.14        2979.50           2562        1534.00      6685.48
 1032.17        2979.75           2566        1550.00      6755.26
 1032.20        2980.00           2569        1555.00      6777.06
 1032.23        2980.25           2573        1522.00      6633.14
 1032.26        2980.50           2577        1481.00      6454.34
 1032.29        2980.75           2580        1505.00      6559.00
 1032.32        2981.00           2584        1466.00      6388.92
 1032.35        2981.25           2587        1465.00      6384.56
 1032.38        2981.50           2591        1482.00      6458.70
 1032.41        2981.75           2594        1423.00      6201.40
 1032.45        2982.00           2598        1472.00      6415.09
 1032.48        2982.25           2601        1452.00      6327.87
 1032.51        2982.50           2605        1455.00      6340.95
 1032.54        2982.75           2609        1431.00      6236.28
 1032.57        2983.00           2612        1439.00      6271.17
 1032.60        2983.25           2616        1434.00      6249.37
 1032.63        2983.50           2619        1438.00      6266.81
 1032.66        2983.75           2623        1433.00      6245.01
 1032.69        2984.00           2626        1399.00      6096.73
HS scan finished at 17:12:55
end
