************************************************************
  HS Scan of (1) Internal mercury lamp
************************************************************
Integration time is 0.2294 seconds per sample
dh161117Reading 51.44 .94 3.07pr1000
************************************************************
Dead Time -------------------------  3.4E-08 
Number of Cycles Used -------------  4 
Starting Wavelength (Angstroms) ---  2950 
Final Wavelength (Angstoms) -------  2984 
Wavelength Increment (Angstroms) --  .25 
Filter Wheel #1 Position ---------- (1) Ground quartz diffuser (ND=2.32)
Filter Wheel #2 Position ---------- (1) Neutral Density 0.494



************************************************************
HS scan start time = 04:37:32
Dark Count =  1 


Time (GMT)  Wavelength (Ang)  Step Number  Raw Counts  Counts/Second

  278.43        2950.00           2144          68.00       292.07
  278.63        2950.25           2147          70.00       300.79
  278.66        2950.50           2151          74.00       318.22
  278.69        2950.75           2155          65.00       278.99
  278.72        2951.00           2158          71.00       305.15
  278.75        2951.25           2162          70.00       300.79
  278.78        2951.50           2165          70.00       300.79
  278.81        2951.75           2169          72.00       309.51
  278.84        2952.00           2172         118.00       510.03
  278.87        2952.25           2176          98.00       422.85
  278.90        2952.50           2179          98.00       422.85
  278.93        2952.75           2183         100.00       431.57
  278.96        2953.00           2186         109.00       470.80
  278.99        2953.25           2190         111.00       479.52
  279.02        2953.50           2193         127.00       549.27
  279.05        2953.75           2197         124.00       536.19
  279.08        2954.00           2200         112.00       483.88
  279.11        2954.25           2204         111.00       479.52
  279.15        2954.50           2208         128.00       553.63
  279.18        2954.75           2211         105.00       453.36
  279.21        2955.00           2215         108.00       466.44
  279.24        2955.25           2218         108.00       466.44
  279.27        2955.50           2222         141.00       610.30
  279.30        2955.75           2225         125.00       540.55
  279.33        2956.00           2229         115.00       496.96
  279.36        2956.25           2232         112.00       483.88
  279.39        2956.50           2236         127.00       549.27
  279.42        2956.75           2239         123.00       531.83
  279.45        2957.00           2243         136.00       588.50
  279.48        2957.25           2246         121.00       523.11
  279.51        2957.50           2250         112.00       483.88
  279.54        2957.75           2254         124.00       536.19
  279.57        2958.00           2257         140.00       605.94
  279.60        2958.25           2261         139.00       601.58
  279.63        2958.50           2264         131.00       566.71
  279.67        2958.75           2268         117.00       505.68
  279.70        2959.00           2271         132.00       571.07
  279.73        2959.25           2275         143.00       619.02
  279.76        2959.50           2278         147.00       636.46
  279.79        2959.75           2282         141.00       610.30
  279.82        2960.00           2285         126.00       544.91
  279.85        2960.25           2289         171.00       741.08
  279.88        2960.50           2293         147.00       636.46
  279.91        2960.75           2296         156.00       675.69
  279.94        2961.00           2300         187.00       810.83
  279.97        2961.25           2303         335.00      1456.04
  280.00        2961.50           2307        1095.00      4769.74
  280.03        2961.75           2310        2117.00      9226.96
  280.06        2962.00           2314        3977.00     17342.40
  280.09        2962.25           2317        5581.00     24344.47
  280.12        2962.50           2321        7581.00     33079.91
  280.15        2962.75           2324        8980.00     39193.43
  280.18        2963.00           2328       10882.00     47509.12
  280.22        2963.25           2331       12429.00     54276.19
  280.25        2963.50           2335       14521.00     63432.21
  280.28        2963.75           2339       16529.00     72225.98
  280.31        2964.00           2342       18124.00     79214.81
  280.34        2964.25           2346       20327.00     88873.21
  280.37        2964.50           2349       21862.00     95606.71
  280.40        2964.75           2353       23836.00    104270.50
  280.43        2965.00           2356       25353.00    110932.00
  280.46        2965.25           2360       27510.00    120409.10
  280.49        2965.50           2363       28928.00    126642.70
  280.52        2965.75           2367       30870.00    135184.00
  280.55        2966.00           2370       32237.00    141199.40
  280.58        2966.25           2374       33892.00    148485.30
  280.61        2966.50           2378       34780.00    152396.10
  280.64        2966.75           2381       34919.00    153008.40
  280.67        2967.00           2385       35134.00    153955.50
  280.70        2967.25           2388       35107.00    153836.50
  280.74        2967.50           2392       34981.00    153281.50
  280.77        2967.75           2395       34613.00    151660.60
  280.80        2968.00           2399       33737.00    147802.80
  280.83        2968.25           2402       32396.00    141899.20
  280.86        2968.50           2406       30757.00    134686.90
  280.89        2968.75           2409       29027.00    127078.00
  280.92        2969.00           2413       27335.00    119640.00
  280.95        2969.25           2417       25401.00    111142.80
  280.98        2969.50           2420       23959.00    104810.50
  281.01        2969.75           2424       21979.00     96120.08
  281.04        2970.00           2427       20253.00     88548.66
  281.07        2970.25           2431       18352.00     80214.11
  281.10        2970.50           2434       17008.00     74324.47
  281.13        2970.75           2438       14742.00     64399.80
  281.16        2971.00           2441       12995.00     56752.82
  281.19        2971.25           2445       11058.00     48278.84
  281.22        2971.50           2449        9020.00     39368.27
  281.26        2971.75           2452        7396.00     32271.66
  281.29        2972.00           2456        5749.00     25078.05
  281.32        2972.25           2459        4502.00     19633.85
  281.35        2972.50           2463        2576.00     11229.22
  281.38        2972.75           2466        1333.00      5807.60
  281.41        2973.00           2470         356.00      1547.60
  281.44        2973.25           2473         194.00       841.35
  281.47        2973.50           2477         152.00       658.25
  281.50        2973.75           2481         143.00       619.02
  281.53        2974.00           2484         158.00       684.41
  281.56        2974.25           2488         157.00       680.05
  281.59        2974.50           2491         149.00       645.18
  281.62        2974.75           2495         134.00       579.78
  281.65        2975.00           2498         140.00       605.94
  281.68        2975.25           2502         124.00       536.19
  281.71        2975.50           2505         182.00       789.04
  281.74        2975.75           2509         118.00       510.03
  281.78        2976.00           2512         144.00       623.38
  281.81        2976.25           2516         134.00       579.78
  281.84        2976.50           2520         120.00       518.75
  281.87        2976.75           2523         153.00       662.61
  281.90        2977.00           2527         114.00       492.60
  281.93        2977.25           2530         120.00       518.75
  281.96        2977.50           2534         138.00       597.22
  281.99        2977.75           2537         146.00       632.10
  282.02        2978.00           2541         151.00       653.89
  282.05        2978.25           2544         127.00       549.27
  282.08        2978.50           2548         113.00       488.24
  282.11        2978.75           2552         164.00       710.57
  282.14        2979.00           2555         129.00       557.99
  282.17        2979.25           2559         143.00       619.02
  282.20        2979.50           2562         124.00       536.19
  282.23        2979.75           2566         103.00       444.64
  282.26        2980.00           2569         100.00       431.57
  282.30        2980.25           2573          99.00       427.21
  282.33        2980.50           2577         103.00       444.64
  282.36        2980.75           2580          98.00       422.85
  282.39        2981.00           2584         103.00       444.64
  282.42        2981.25           2587         122.00       527.47
  282.45        2981.50           2591         136.00       588.50
  282.48        2981.75           2594          95.00       409.77
  282.51        2982.00           2598          95.00       409.77
  282.54        2982.25           2601          93.00       401.05
  282.57        2982.50           2605         115.00       496.96
  282.60        2982.75           2609         136.00       588.50
  282.63        2983.00           2612          97.00       418.49
  282.66        2983.25           2616         100.00       431.57
  282.69        2983.50           2619         100.00       431.57
  282.72        2983.75           2623          97.00       418.49
  282.75        2984.00           2626         105.00       453.36
HS scan finished at 04:42:59
end
************************************************************
  HS Scan of (1) Internal mercury lamp
************************************************************
Integration time is 0.2294 seconds per sample
dh161117Reading 51.44 .94 3.31pr1000
************************************************************
Dead Time -------------------------  3.4E-08 
Number of Cycles Used -------------  4 
Starting Wavelength (Angstroms) ---  2950 
Final Wavelength (Angstoms) -------  2984 
Wavelength Increment (Angstroms) --  .25 
Filter Wheel #1 Position ---------- (1) Ground quartz diffuser (ND=2.32)
Filter Wheel #2 Position ---------- (1) Neutral Density 0.494



************************************************************
HS scan start time = 17:07:21
Dark Count =  1.3 


Time (GMT)  Wavelength (Ang)  Step Number  Raw Counts  Counts/Second

 1028.24        2950.00           2144          91.00       391.03
 1028.43        2950.25           2147          83.00       356.15
 1028.47        2950.50           2151          89.00       382.31
 1028.50        2950.75           2155          86.00       369.23
 1028.53        2951.00           2158          87.00       373.59
 1028.56        2951.25           2162          86.00       369.23
 1028.59        2951.50           2165          85.00       364.87
 1028.62        2951.75           2169          87.00       373.59
 1028.65        2952.00           2172          91.00       391.03
 1028.68        2952.25           2176          77.00       329.99
 1028.71        2952.50           2179          88.00       377.95
 1028.74        2952.75           2183          94.00       404.10
 1028.77        2953.00           2186          82.00       351.79
 1028.80        2953.25           2190          88.00       377.95
 1028.83        2953.50           2193          87.00       373.59
 1028.86        2953.75           2197          84.00       360.51
 1028.89        2954.00           2200          92.00       395.38
 1028.92        2954.25           2204          94.00       404.10
 1028.95        2954.50           2208          93.00       399.74
 1028.99        2954.75           2211          94.00       404.10
 1029.02        2955.00           2215          90.00       386.67
 1029.05        2955.25           2218          97.00       417.18
 1029.08        2955.50           2222          88.00       377.95
 1029.11        2955.75           2225          98.00       421.54
 1029.14        2956.00           2229         137.00       591.56
 1029.17        2956.25           2232          90.00       386.67
 1029.20        2956.50           2236          94.00       404.10
 1029.23        2956.75           2239         114.00       491.29
 1029.26        2957.00           2243          94.00       404.10
 1029.29        2957.25           2246         105.00       452.06
 1029.32        2957.50           2250          98.00       421.54
 1029.35        2957.75           2254          99.00       425.90
 1029.38        2958.00           2257         121.00       521.81
 1029.41        2958.25           2261         106.00       456.42
 1029.44        2958.50           2264         122.00       526.16
 1029.47        2958.75           2268         101.00       434.62
 1029.51        2959.00           2271         111.00       478.21
 1029.54        2959.25           2275         165.00       713.62
 1029.57        2959.50           2278         130.00       561.04
 1029.60        2959.75           2282         113.00       486.93
 1029.63        2960.00           2285         131.00       565.40
 1029.66        2960.25           2289         108.00       465.13
 1029.69        2960.50           2293         153.00       661.31
 1029.72        2960.75           2296         152.00       656.95
 1029.75        2961.00           2300         171.00       739.77
 1029.78        2961.25           2303         406.00      1764.27
 1029.81        2961.50           2307        1273.00      5544.64
 1029.85        2961.75           2310        2280.00      9936.66
 1029.89        2962.00           2314        3754.00     16367.87
 1029.92        2962.25           2317        4930.00     21500.89
 1029.95        2962.50           2321        6760.00     29492.07
 1029.98        2962.75           2324        8091.00     35306.97
 1030.01        2963.00           2328       10015.00     43716.64
 1030.04        2963.25           2331       11342.00     49519.67
 1030.07        2963.50           2335       12933.00     56480.20
 1030.10        2963.75           2339       14828.00     64775.03
 1030.13        2964.00           2342       16131.00     70481.25
 1030.16        2964.25           2346       17967.00     78525.41
 1030.19        2964.50           2349       19304.00     84386.06
 1030.22        2964.75           2353       20889.00     91336.82
 1030.25        2965.00           2356       22338.00     97694.06
 1030.29        2965.25           2360       24016.00    105059.40
 1030.32        2965.50           2363       25096.00    109801.90
 1030.35        2965.75           2367       26801.00    117292.00
 1030.38        2966.00           2370       28122.00    123097.80
 1030.41        2966.25           2374       29511.00    129205.00
 1030.44        2966.50           2378       30432.00    133255.80
 1030.47        2966.75           2381       30514.00    133616.50
 1030.50        2967.00           2385       30697.00    134421.60
 1030.53        2967.25           2388       30600.00    133994.90
 1030.56        2967.50           2392       30458.00    133370.20
 1030.59        2967.75           2395       30196.00    132217.70
 1030.62        2968.00           2399       29045.00    127155.80
 1030.65        2968.25           2402       28100.00    123001.10
 1030.68        2968.50           2406       26213.00    114708.50
 1030.71        2968.75           2409       24942.00    109125.60
 1030.74        2969.00           2413       23245.00    101674.80
 1030.77        2969.25           2417       21943.00     95960.79
 1030.81        2969.50           2420       20619.00     90152.55
 1030.84        2969.75           2424       18767.00     82031.88
 1030.87        2970.00           2427       17297.00     75589.40
 1030.90        2970.25           2431       15359.00     67100.18
 1030.93        2970.50           2434       14257.00     62275.14
 1030.96        2970.75           2438       12280.00     53622.96
 1030.99        2971.00           2441       10925.00     47695.86
 1031.02        2971.25           2445        9094.00     39690.41
 1031.05        2971.50           2449        7199.00     31409.73
 1031.08        2971.75           2452        5716.00     24932.64
 1031.11        2972.00           2456        4120.00     17965.20
 1031.14        2972.25           2459        3010.00     13121.37
 1031.17        2972.50           2463        1475.00      6425.55
 1031.20        2972.75           2466         653.00      2841.16
 1031.23        2973.00           2470         229.00       992.62
 1031.26        2973.25           2473         152.00       656.95
 1031.29        2973.50           2477         131.00       565.40
 1031.32        2973.75           2481         131.00       565.40
 1031.36        2974.00           2484         136.00       587.20
 1031.39        2974.25           2488         133.00       574.12
 1031.42        2974.50           2491         148.00       639.51
 1031.45        2974.75           2495         130.00       561.04
 1031.48        2975.00           2498         112.00       482.57
 1031.51        2975.25           2502         127.00       547.96
 1031.54        2975.50           2505         121.00       521.81
 1031.57        2975.75           2509         127.00       547.96
 1031.60        2976.00           2512         102.00       438.98
 1031.63        2976.25           2516         107.00       460.77
 1031.66        2976.50           2520         119.00       513.09
 1031.69        2976.75           2523          98.00       421.54
 1031.72        2977.00           2527         103.00       443.34
 1031.75        2977.25           2530         124.00       534.88
 1031.78        2977.50           2534         110.00       473.85
 1031.81        2977.75           2537         108.00       465.13
 1031.85        2978.00           2541          98.00       421.54
 1031.88        2978.25           2544          94.00       404.10
 1031.91        2978.50           2548          87.00       373.59
 1031.94        2978.75           2552          91.00       391.03
 1031.97        2979.00           2555         101.00       434.62
 1032.00        2979.25           2559          89.00       382.31
 1032.03        2979.50           2562          92.00       395.38
 1032.06        2979.75           2566          93.00       399.74
 1032.09        2980.00           2569          88.00       377.95
 1032.12        2980.25           2573          84.00       360.51
 1032.15        2980.50           2577          91.00       391.03
 1032.18        2980.75           2580          88.00       377.95
 1032.21        2981.00           2584          97.00       417.18
 1032.24        2981.25           2587          91.00       391.03
 1032.27        2981.50           2591          89.00       382.31
 1032.30        2981.75           2594          89.00       382.31
 1032.33        2982.00           2598          82.00       351.79
 1032.36        2982.25           2601          83.00       356.15
 1032.40        2982.50           2605          85.00       364.87
 1032.43        2982.75           2609          84.00       360.51
 1032.46        2983.00           2612          76.00       325.64
 1032.49        2983.25           2616          87.00       373.59
 1032.52        2983.50           2619          99.00       425.90
 1032.55        2983.75           2623          83.00       356.15
 1032.58        2984.00           2626          83.00       356.15
HS scan finished at 17:12:48
end
