************************************************************
  HS Scan of (1) Internal mercury lamp
************************************************************
Integration time is 0.2294 seconds per sample
dh221118Reading 51.44 .94 2.84pr1000
************************************************************
Dead Time -------------------------  3.4E-08 
Number of Cycles Used -------------  4 
Starting Wavelength (Angstroms) ---  2950 
Final Wavelength (Angstoms) -------  2984 
Wavelength Increment (Angstroms) --  .25 
Filter Wheel #1 Position ---------- (1) Ground quartz diffuser (ND=2.32)
Filter Wheel #2 Position ---------- (1) Neutral Density 0.494



************************************************************
HS scan start time = 17:07:24
Dark Count =  .5 


Time (GMT)  Wavelength (Ang)  Step Number  Raw Counts  Counts/Second

 1028.31        2950.00           2144        1425.00      6210.99
 1028.50        2950.25           2147        1388.00      6049.63
 1028.53        2950.50           2151        1435.00      6254.60
 1028.56        2950.75           2155        1422.00      6197.91
 1028.59        2951.00           2158        1424.00      6206.63
 1028.62        2951.25           2162        1433.00      6245.88
 1028.65        2951.50           2165        1437.00      6263.32
 1028.68        2951.75           2169        1433.00      6245.88
 1028.71        2952.00           2172        1416.00      6171.74
 1028.74        2952.25           2176        1445.00      6298.21
 1028.77        2952.50           2179        1441.00      6280.77
 1028.81        2952.75           2183        1427.00      6219.71
 1028.84        2953.00           2186        1462.00      6372.35
 1028.87        2953.25           2190        1443.00      6289.49
 1028.90        2953.50           2193        1403.00      6115.05
 1028.93        2953.75           2197        1459.00      6359.27
 1028.96        2954.00           2200        1445.00      6298.21
 1028.99        2954.25           2204        1497.00      6524.99
 1029.02        2954.50           2208        1502.00      6546.79
 1029.05        2954.75           2211        1477.00      6437.76
 1029.08        2955.00           2215        1482.00      6459.57
 1029.11        2955.25           2218        1483.00      6463.93
 1029.14        2955.50           2222        1513.00      6594.77
 1029.17        2955.75           2225        1497.00      6524.99
 1029.20        2956.00           2229        1497.00      6524.99
 1029.23        2956.25           2232        1530.00      6668.91
 1029.26        2956.50           2236        1531.00      6673.27
 1029.29        2956.75           2239        1526.00      6651.46
 1029.32        2957.00           2243        1582.00      6895.69
 1029.36        2957.25           2246        1528.00      6660.18
 1029.39        2957.50           2250        1619.00      7057.05
 1029.42        2957.75           2254        1559.00      6795.38
 1029.45        2958.00           2257        1605.00      6996.00
 1029.48        2958.25           2261        1634.00      7122.47
 1029.51        2958.50           2264        1658.00      7227.15
 1029.54        2958.75           2268        1671.00      7283.84
 1029.57        2959.00           2271        1624.00      7078.86
 1029.60        2959.25           2275        1653.00      7205.34
 1029.63        2959.50           2278        1703.00      7423.41
 1029.66        2959.75           2282        1678.00      7314.37
 1029.69        2960.00           2285        1694.00      7384.16
 1029.72        2960.25           2289        1746.00      7610.95
 1029.75        2960.50           2293        1763.00      7685.09
 1029.78        2960.75           2296        1769.00      7711.26
 1029.81        2961.00           2300        1875.00      8173.59
 1029.85        2961.25           2303        2001.00      8723.16
 1029.88        2961.50           2307        4073.00     17763.56
 1029.91        2961.75           2310       10720.00     46802.84
 1029.94        2962.00           2314       24607.00    107658.00
 1029.97        2962.25           2317       37344.00    163696.30
 1030.00        2962.50           2321       55173.00    242499.10
 1030.03        2962.75           2324       68555.00    301926.20
 1030.06        2963.00           2328       86737.00    383058.20
 1030.09        2963.25           2331      100494.00    444745.70
 1030.12        2963.50           2335      119904.00    532227.50
 1030.15        2963.75           2339      140693.00    626510.90
 1030.18        2964.00           2342      156572.00    698940.00
 1030.21        2964.25           2346      177492.00    794917.30
 1030.24        2964.50           2349      192698.00    865080.40
 1030.27        2964.75           2353      209863.00    944693.20
 1030.30        2965.00           2356      222486.00   1003521.00
 1030.33        2965.25           2360      242471.00   1097150.00
 1030.36        2965.50           2363      257561.00   1168251.00
 1030.40        2965.75           2367      275813.00   1254723.00
 1030.43        2966.00           2370      289342.00   1319156.00
 1030.46        2966.25           2374      306754.00   1402509.00
 1030.49        2966.50           2378      322215.00   1476930.00
 1030.52        2966.75           2381      328179.00   1505742.00
 1030.55        2967.00           2385      332006.00   1524260.00
 1030.58        2967.25           2388      332259.00   1525485.00
 1030.61        2967.50           2392      332555.00   1526919.00
 1030.64        2967.75           2395      332884.00   1528512.00
 1030.67        2968.00           2399      330639.00   1517643.00
 1030.70        2968.25           2402      324436.00   1487653.00
 1030.73        2968.50           2406      310660.00   1421274.00
 1030.76        2968.75           2409      299437.00   1367423.00
 1030.79        2969.00           2413      280702.00   1277974.00
 1030.82        2969.25           2417      260748.00   1183313.00
 1030.85        2969.50           2420      245594.00   1111836.00
 1030.88        2969.75           2424      225285.00   1016597.00
 1030.92        2970.00           2427      210322.00    946828.10
 1030.95        2970.25           2431      191279.00    858518.50
 1030.98        2970.50           2434      176264.00    789265.80
 1031.01        2970.75           2438      155625.00    694610.30
 1031.04        2971.00           2441      139741.00    622180.00
 1031.07        2971.25           2445      120527.00    535044.10
 1031.10        2971.50           2449       99864.00    441915.00
 1031.13        2971.75           2452       85620.00    378060.90
 1031.16        2972.00           2456       68075.00    299790.40
 1031.19        2972.25           2459       52374.00    230099.60
 1031.22        2972.50           2463       31654.00    138635.80
 1031.25        2972.75           2466       18436.00     80584.48
 1031.28        2973.00           2470        6423.00     28023.64
 1031.31        2973.25           2473        3073.00     13399.74
 1031.34        2973.50           2477        2012.00      8771.14
 1031.37        2973.75           2481        1876.00      8177.95
 1031.40        2974.00           2484        1832.00      7986.04
 1031.44        2974.25           2488        1750.00      7628.40
 1031.47        2974.50           2491        1769.00      7711.26
 1031.50        2974.75           2495        1704.00      7427.77
 1031.53        2975.00           2498        1685.00      7344.90
 1031.56        2975.25           2502        1653.00      7205.34
 1031.59        2975.50           2505        1672.00      7288.21
 1031.62        2975.75           2509        1612.00      7026.53
 1031.65        2976.00           2512        1593.00      6943.66
 1031.68        2976.25           2516        1636.00      7131.20
 1031.71        2976.50           2520        1585.00      6908.77
 1031.74        2976.75           2523        1551.00      6760.49
 1031.77        2977.00           2527        1565.00      6821.55
 1031.80        2977.25           2530        1562.00      6808.46
 1031.83        2977.50           2534        1549.00      6751.77
 1031.86        2977.75           2537        1505.00      6559.88
 1031.89        2978.00           2541        1498.00      6529.35
 1031.92        2978.25           2544        1508.00      6572.96
 1031.96        2978.50           2548        1479.00      6446.49
 1031.99        2978.75           2552        1476.00      6433.40
 1032.02        2979.00           2555        1463.00      6376.71
 1032.05        2979.25           2559        1461.00      6367.99
 1032.08        2979.50           2562        1455.00      6341.82
 1032.11        2979.75           2566        1430.00      6232.79
 1032.14        2980.00           2569        1434.00      6250.24
 1032.17        2980.25           2573        1436.00      6258.96
 1032.20        2980.50           2577        1439.00      6272.04
 1032.23        2980.75           2580        1410.00      6145.57
 1032.26        2981.00           2584        1409.00      6141.21
 1032.29        2981.25           2587        1399.00      6097.60
 1032.32        2981.50           2591        1434.00      6250.24
 1032.35        2981.75           2594        1415.00      6167.38
 1032.38        2982.00           2598        1358.00      5918.80
 1032.41        2982.25           2601        1353.00      5897.00
 1032.44        2982.50           2605        1354.00      5901.36
 1032.48        2982.75           2609        1346.00      5866.47
 1032.51        2983.00           2612        1320.00      5753.09
 1032.54        2983.25           2616        1369.00      5966.77
 1032.57        2983.50           2619        1359.00      5923.16
 1032.60        2983.75           2623        1363.00      5940.61
 1032.63        2984.00           2626        1358.00      5918.80
HS scan finished at 17:12:51
end
