************************************************************
  HS Scan of (1) Internal mercury lamp
************************************************************
Integration time is 0.2294 seconds per sample
dh161118Reading 51.44 .94 3.11pr1000
************************************************************
Dead Time -------------------------  3.4E-08 
Number of Cycles Used -------------  4 
Starting Wavelength (Angstroms) ---  2950 
Final Wavelength (Angstoms) -------  2984 
Wavelength Increment (Angstroms) --  .25 
Filter Wheel #1 Position ---------- (1) Ground quartz diffuser (ND=2.32)
Filter Wheel #2 Position ---------- (1) Neutral Density 0.494



************************************************************
HS scan start time = 04:37:06
Dark Count =  .9 


Time (GMT)  Wavelength (Ang)  Step Number  Raw Counts  Counts/Second

  278.00        2950.00           2144        1523.00      6636.63
  278.20        2950.25           2147        1492.00      6501.44
  278.23        2950.50           2151        1524.00      6640.99
  278.26        2950.75           2155        1524.00      6640.99
  278.29        2951.00           2158        1546.00      6736.94
  278.32        2951.25           2162        1523.00      6636.63
  278.35        2951.50           2165        1541.00      6715.13
  278.38        2951.75           2169        1555.00      6776.19
  278.41        2952.00           2172        1517.00      6610.47
  278.44        2952.25           2176        1570.00      6841.61
  278.47        2952.50           2179        1547.00      6741.30
  278.50        2952.75           2183        1530.00      6667.16
  278.53        2953.00           2186        1525.00      6645.36
  278.56        2953.25           2190        1567.00      6828.53
  278.60        2953.50           2193        1558.00      6789.27
  278.63        2953.75           2197        1624.00      7077.12
  278.66        2954.00           2200        1574.00      6859.05
  278.69        2954.25           2204        1587.00      6915.75
  278.72        2954.50           2208        1622.00      7068.39
  278.75        2954.75           2211        1618.00      7050.95
  278.78        2955.00           2215        1604.00      6989.89
  278.81        2955.25           2218        1605.00      6994.25
  278.84        2955.50           2222        1628.00      7094.56
  278.87        2955.75           2225        1596.00      6955.00
  278.90        2956.00           2229        1640.00      7146.90
  278.93        2956.25           2232        1612.00      7024.78
  278.96        2956.50           2236        1699.00      7404.22
  278.99        2956.75           2239        1676.00      7303.91
  279.02        2957.00           2243        1719.00      7491.45
  279.05        2957.25           2246        1688.00      7356.24
  279.08        2957.50           2250        1694.00      7382.41
  279.12        2957.75           2254        1758.00      7661.54
  279.15        2958.00           2257        1683.00      7334.44
  279.18        2958.25           2261        1768.00      7705.16
  279.21        2958.50           2264        1761.00      7674.63
  279.24        2958.75           2268        1766.00      7696.43
  279.28        2959.00           2271        1796.00      7827.28
  279.31        2959.25           2275        1823.00      7945.04
  279.34        2959.50           2278        1821.00      7936.32
  279.37        2959.75           2282        1857.00      8093.33
  279.40        2960.00           2285        1882.00      8202.37
  279.43        2960.25           2289        1913.00      8337.59
  279.46        2960.50           2293        1956.00      8525.14
  279.49        2960.75           2296        2010.00      8760.67
  279.52        2961.00           2300        2169.00      9454.22
  279.55        2961.25           2303        2826.00     12320.33
  279.58        2961.50           2307        7452.00     32516.75
  279.61        2961.75           2310       16144.00     70539.95
  279.64        2962.00           2314       33208.00    145474.10
  279.67        2962.25           2317       50489.00    221753.30
  279.70        2962.50           2321       75991.00    335051.10
  279.73        2962.75           2324       93891.00    415103.00
  279.76        2963.00           2328      116813.00    518259.30
  279.80        2963.25           2331      133799.00    595175.30
  279.83        2963.50           2335      156658.00    699331.30
  279.86        2963.75           2339      183500.00    822596.80
  279.89        2964.00           2342      202748.00    911638.10
  279.92        2964.25           2346      226913.00   1024207.00
  279.95        2964.50           2349      243161.00   1100392.00
  279.98        2964.75           2353      266309.00   1209630.00
  280.01        2965.00           2356      283175.00   1289747.00
  280.04        2965.25           2360      303666.00   1387689.00
  280.07        2965.50           2363      319157.00   1462178.00
  280.10        2965.75           2367      342396.00   1574655.00
  280.13        2966.00           2370      359082.00   1655965.00
  280.16        2966.25           2374      378067.00   1749044.00
  280.19        2966.50           2378      390400.00   1809837.00
  280.22        2966.75           2381      393813.00   1826707.00
  280.25        2967.00           2385      395587.00   1835483.00
  280.28        2967.25           2388      396136.00   1838200.00
  280.31        2967.50           2392      396121.00   1838126.00
  280.35        2967.75           2395      395663.00   1835859.00
  280.38        2968.00           2399      389960.00   1807664.00
  280.41        2968.25           2402      379929.00   1758206.00
  280.44        2968.50           2406      361801.00   1669258.00
  280.47        2968.75           2409      345750.00   1590962.00
  280.50        2969.00           2413      324108.00   1486067.00
  280.53        2969.25           2417      301905.00   1379246.00
  280.56        2969.50           2420      285638.00   1301484.00
  280.59        2969.75           2424      264028.00   1198828.00
  280.62        2970.00           2427      246560.00   1116380.00
  280.65        2970.25           2431      223008.00   1005957.00
  280.68        2970.50           2434      207144.00    932051.10
  280.71        2970.75           2438      182675.00    818792.50
  280.74        2971.00           2441      163135.00    728979.70
  280.77        2971.25           2445      137439.00    611711.00
  280.80        2971.50           2449      113931.00    505249.20
  280.83        2971.75           2452       96741.00    427889.20
  280.87        2972.00           2456       75122.00    331175.90
  280.90        2972.25           2459       58139.00    255648.00
  280.93        2972.50           2463       33942.00    148705.90
  280.96        2972.75           2466       18108.00     79145.13
  280.99        2973.00           2470        5832.00     25440.92
  281.02        2973.25           2473        2935.00     12795.89
  281.05        2973.50           2477        2134.00      9301.55
  281.08        2973.75           2481        2026.00      8830.46
  281.11        2974.00           2484        1985.00      8651.63
  281.14        2974.25           2488        1966.00      8568.76
  281.17        2974.50           2491        1939.00      8450.99
  281.20        2974.75           2495        1891.00      8241.63
  281.23        2975.00           2498        1903.00      8293.97
  281.26        2975.25           2502        1815.00      7910.15
  281.29        2975.50           2505        1809.00      7883.98
  281.32        2975.75           2509        1764.00      7687.71
  281.35        2976.00           2512        1747.00      7613.57
  281.39        2976.25           2516        1762.00      7678.99
  281.42        2976.50           2520        1722.00      7504.53
  281.45        2976.75           2523        1718.00      7487.08
  281.48        2977.00           2527        1695.00      7386.77
  281.51        2977.25           2530        1716.00      7478.36
  281.54        2977.50           2534        1634.00      7120.73
  281.57        2977.75           2537        1644.00      7164.34
  281.60        2978.00           2541        1622.00      7068.39
  281.63        2978.25           2544        1583.00      6898.31
  281.66        2978.50           2548        1587.00      6915.75
  281.69        2978.75           2552        1569.00      6837.25
  281.72        2979.00           2555        1553.00      6767.47
  281.75        2979.25           2559        1577.00      6872.14
  281.78        2979.50           2562        1547.00      6741.30
  281.81        2979.75           2566        1571.00      6845.97
  281.84        2980.00           2569        1591.00      6933.20
  281.87        2980.25           2573        1581.00      6889.58
  281.91        2980.50           2577        1525.00      6645.36
  281.94        2980.75           2580        1527.00      6654.08
  281.97        2981.00           2584        1521.00      6627.91
  282.00        2981.25           2587        1510.00      6579.94
  282.03        2981.50           2591        1496.00      6518.88
  282.06        2981.75           2594        1518.00      6614.83
  282.09        2982.00           2598        1449.00      6313.91
  282.12        2982.25           2601        1467.00      6392.41
  282.15        2982.50           2605        1475.00      6427.30
  282.18        2982.75           2609        1446.00      6300.83
  282.21        2983.00           2612        1449.00      6313.91
  282.24        2983.25           2616        1459.00      6357.52
  282.27        2983.50           2619        1455.00      6340.08
  282.30        2983.75           2623        1419.00      6183.08
  282.33        2984.00           2626        1413.00      6156.91
HS scan finished at 04:42:33
end
************************************************************
  HS Scan of (1) Internal mercury lamp
************************************************************
Integration time is 0.2294 seconds per sample
dh161118Reading 51.44 .94 3.21pr1000
************************************************************
Dead Time -------------------------  3.4E-08 
Number of Cycles Used -------------  4 
Starting Wavelength (Angstroms) ---  2950 
Final Wavelength (Angstoms) -------  2984 
Wavelength Increment (Angstroms) --  .25 
Filter Wheel #1 Position ---------- (1) Ground quartz diffuser (ND=2.32)
Filter Wheel #2 Position ---------- (1) Neutral Density 0.494



************************************************************
HS scan start time = 17:07:26
Dark Count =  1.3 


Time (GMT)  Wavelength (Ang)  Step Number  Raw Counts  Counts/Second

 1028.33        2950.00           2144        1476.00      6429.91
 1028.53        2950.25           2147        1474.00      6421.19
 1028.56        2950.50           2151        1434.00      6246.75
 1028.59        2950.75           2155        1486.00      6473.53
 1028.62        2951.00           2158        1448.00      6307.80
 1028.65        2951.25           2162        1477.00      6434.28
 1028.68        2951.50           2165        1454.00      6333.97
 1028.71        2951.75           2169        1496.00      6517.14
 1028.74        2952.00           2172        1446.00      6299.08
 1028.77        2952.25           2176        1528.00      6656.69
 1028.80        2952.50           2179        1483.00      6460.44
 1028.83        2952.75           2183        1553.00      6765.72
 1028.86        2953.00           2186        1474.00      6421.19
 1028.89        2953.25           2190        1499.00      6530.22
 1028.92        2953.50           2193        1517.00      6608.72
 1028.95        2953.75           2197        1492.00      6499.69
 1028.99        2954.00           2200        1526.00      6647.97
 1029.03        2954.25           2204        1523.00      6634.89
 1029.06        2954.50           2208        1536.00      6691.58
 1029.09        2954.75           2211        1564.00      6813.70
 1029.12        2955.00           2215        1575.00      6861.67
 1029.15        2955.25           2218        1562.00      6804.97
 1029.18        2955.50           2222        1582.00      6892.20
 1029.21        2955.75           2225        1512.00      6586.92
 1029.25        2956.00           2229        1602.00      6979.42
 1029.28        2956.25           2232        1592.00      6935.81
 1029.31        2956.50           2236        1579.00      6879.11
 1029.34        2956.75           2239        1603.00      6983.79
 1029.37        2957.00           2243        1644.00      7162.60
 1029.40        2957.25           2246        1632.00      7110.26
 1029.43        2957.50           2250        1623.00      7071.01
 1029.46        2957.75           2254        1645.00      7166.96
 1029.49        2958.00           2257        1650.00      7188.77
 1029.52        2958.25           2261        1670.00      7275.99
 1029.55        2958.50           2264        1656.00      7214.93
 1029.58        2958.75           2268        1707.00      7437.36
 1029.61        2959.00           2271        1721.00      7498.42
 1029.64        2959.25           2275        1760.00      7668.52
 1029.67        2959.50           2278        1774.00      7729.58
 1029.70        2959.75           2282        1736.00      7563.85
 1029.73        2960.00           2285        1813.00      7899.68
 1029.77        2960.25           2289        1866.00      8130.84
 1029.80        2960.50           2293        1856.00      8087.23
 1029.83        2960.75           2296        1907.00      8309.67
 1029.86        2961.00           2300        1998.00      8706.59
 1029.89        2961.25           2303        2233.00      9731.64
 1029.92        2961.50           2307        5026.00     21920.00
 1029.95        2961.75           2310       12810.00     55941.97
 1029.98        2962.00           2314       30878.00    135217.90
 1030.01        2962.25           2317       45935.00    201611.40
 1030.04        2962.50           2321       66509.00    292821.10
 1030.07        2962.75           2324       81888.00    361373.30
 1030.10        2963.00           2328      104148.00    461170.80
 1030.13        2963.25           2331      121939.00    541426.30
 1030.16        2963.50           2335      147400.00    657056.00
 1030.19        2963.75           2339      169051.00    756111.30
 1030.22        2964.00           2342      186511.00    836487.80
 1030.25        2964.25           2346      208559.00    938626.10
 1030.29        2964.50           2349      225652.00   1018309.00
 1030.32        2964.75           2353      248296.00   1124551.00
 1030.35        2965.00           2356      266263.00   1209410.00
 1030.38        2965.25           2360      287683.00   1311235.00
 1030.41        2965.50           2363      303236.00   1385625.00
 1030.44        2965.75           2367      323878.00   1484955.00
 1030.47        2966.00           2370      346567.00   1594935.00
 1030.50        2966.25           2374      358060.00   1650970.00
 1030.53        2966.50           2378      371671.00   1717616.00
 1030.56        2966.75           2381      376662.00   1742133.00
 1030.59        2967.00           2385      378572.00   1751526.00
 1030.62        2967.25           2388      379641.00   1756786.00
 1030.65        2967.50           2392      379118.00   1754213.00
 1030.68        2967.75           2395      378366.00   1750513.00
 1030.71        2968.00           2399      374510.00   1731557.00
 1030.74        2968.25           2402      366798.00   1693719.00
 1030.77        2968.50           2406      348414.00   1603925.00
 1030.81        2968.75           2409      332016.00   1524305.00
 1030.84        2969.00           2413      311591.00   1425746.00
 1030.87        2969.25           2417      290815.00   1326184.00
 1030.90        2969.50           2420      276917.00   1259966.00
 1030.93        2969.75           2424      256864.00   1164956.00
 1030.96        2970.00           2427      240844.00   1089501.00
 1030.99        2970.25           2431      217062.00    978209.90
 1031.02        2970.50           2434      199286.00    895580.80
 1031.05        2970.75           2438      175128.00    784036.10
 1031.08        2971.00           2441      159074.00    710381.70
 1031.11        2971.25           2445      137373.00    611409.20
 1031.14        2971.50           2449      115923.00    514238.50
 1031.17        2971.75           2452      100249.00    443641.20
 1031.20        2972.00           2456       79002.00    348484.40
 1031.23        2972.25           2459       62051.00    273009.40
 1031.26        2972.50           2463       39314.00    172379.20
 1031.29        2972.75           2466       23110.00    101082.20
 1031.32        2973.00           2470        7806.00     34061.66
 1031.36        2973.25           2473        3702.00     16140.94
 1031.39        2973.50           2477        2285.00      9958.47
 1031.42        2973.75           2481        1962.00      8549.56
 1031.45        2974.00           2484        1943.00      8466.69
 1031.48        2974.25           2488        1881.00      8196.27
 1031.51        2974.50           2491        1867.00      8135.21
 1031.54        2974.75           2495        1816.00      7912.76
 1031.57        2975.00           2498        1787.00      7786.28
 1031.60        2975.25           2502        1751.00      7629.27
 1031.63        2975.50           2505        1736.00      7563.85
 1031.66        2975.75           2509        1740.00      7581.29
 1031.69        2976.00           2512        1705.00      7428.64
 1031.72        2976.25           2516        1616.00      7040.48
 1031.75        2976.50           2520        1634.00      7118.99
 1031.78        2976.75           2523        1663.00      7245.46
 1031.81        2977.00           2527        1642.00      7153.88
 1031.84        2977.25           2530        1599.00      6966.34
 1031.88        2977.50           2534        1624.00      7075.37
 1031.91        2977.75           2537        1550.00      6752.64
 1031.94        2978.00           2541        1578.00      6874.75
 1031.97        2978.25           2544        1564.00      6813.70
 1032.00        2978.50           2548        1572.00      6848.59
 1032.03        2978.75           2552        1531.00      6669.78
 1032.06        2979.00           2555        1516.00      6604.36
 1032.09        2979.25           2559        1524.00      6639.25
 1032.12        2979.50           2562        1504.00      6552.03
 1032.15        2979.75           2566        1489.00      6486.61
 1032.18        2980.00           2569        1528.00      6656.69
 1032.21        2980.25           2573        1438.00      6264.19
 1032.24        2980.50           2577        1515.00      6600.00
 1032.28        2980.75           2580        1462.00      6368.86
 1032.32        2981.00           2584        1450.00      6316.53
 1032.35        2981.25           2587        1455.00      6338.33
 1032.38        2981.50           2591        1410.00      6142.09
 1032.41        2981.75           2594        1434.00      6246.75
 1032.44        2982.00           2598        1395.00      6076.67
 1032.47        2982.25           2601        1419.00      6181.33
 1032.50        2982.50           2605        1399.00      6094.11
 1032.53        2982.75           2609        1383.00      6024.34
 1032.56        2983.00           2612        1391.00      6059.23
 1032.59        2983.25           2616        1384.00      6028.70
 1032.62        2983.50           2619        1388.00      6046.14
 1032.66        2983.75           2623        1373.00      5980.73
 1032.69        2984.00           2626        1426.00      6211.86
HS scan finished at 17:12:54
end
