************************************************************
  HS Scan of (1) Internal mercury lamp
************************************************************
Integration time is 0.2294 seconds per sample
dh191117Reading 51.44 .94 2.6pr1000
************************************************************
Dead Time -------------------------  3.4E-08 
Number of Cycles Used -------------  4 
Starting Wavelength (Angstroms) ---  2950 
Final Wavelength (Angstoms) -------  2984 
Wavelength Increment (Angstroms) --  .25 
Filter Wheel #1 Position ---------- (1) Ground quartz diffuser (ND=2.32)
Filter Wheel #2 Position ---------- (1) Neutral Density 0.494



************************************************************
HS scan start time = 04:41:37
Dark Count =  .4 


Time (GMT)  Wavelength (Ang)  Step Number  Raw Counts  Counts/Second

  282.51        2950.00           2144          82.00       355.71
  282.71        2950.25           2147          83.00       360.07
  282.74        2950.50           2151          85.00       368.79
  282.77        2950.75           2155          83.00       360.07
  282.80        2951.00           2158          86.00       373.15
  282.83        2951.25           2162          76.00       329.56
  282.86        2951.50           2165          83.00       360.07
  282.89        2951.75           2169          84.00       364.43
  282.92        2952.00           2172          83.00       360.07
  282.95        2952.25           2176          85.00       368.79
  282.98        2952.50           2179          84.00       364.43
  283.01        2952.75           2183          87.00       377.51
  283.04        2953.00           2186          73.00       316.48
  283.07        2953.25           2190          81.00       351.36
  283.12        2953.50           2193          82.00       355.71
  283.15        2953.75           2197          83.00       360.07
  283.18        2954.00           2200          88.00       381.87
  283.21        2954.25           2204          79.00       342.64
  283.24        2954.50           2208          75.00       325.20
  283.27        2954.75           2211          87.00       377.51
  283.30        2955.00           2215          85.00       368.79
  283.33        2955.25           2218          87.00       377.51
  283.36        2955.50           2222          90.00       390.59
  283.40        2955.75           2225          95.00       412.39
  283.43        2956.00           2229          92.00       399.31
  283.46        2956.25           2232          85.00       368.79
  283.49        2956.50           2236          88.00       381.87
  283.52        2956.75           2239          88.00       381.87
  283.55        2957.00           2243          87.00       377.51
  283.58        2957.25           2246          92.00       399.31
  283.61        2957.50           2250         108.00       469.06
  283.64        2957.75           2254          98.00       425.46
  283.67        2958.00           2257          95.00       412.39
  283.70        2958.25           2261         109.00       473.42
  283.73        2958.50           2264          96.00       416.75
  283.76        2958.75           2268         115.00       499.57
  283.79        2959.00           2271          90.00       390.59
  283.82        2959.25           2275          90.00       390.59
  283.85        2959.50           2278          98.00       425.46
  283.89        2959.75           2282         107.00       464.70
  283.92        2960.00           2285          99.00       429.82
  283.95        2960.25           2289         105.00       455.98
  283.98        2960.50           2293         124.00       538.81
  284.01        2960.75           2296         107.00       464.70
  284.04        2961.00           2300         162.00       704.46
  284.07        2961.25           2303         286.00      1245.04
  284.10        2961.50           2307         931.00      4057.23
  284.13        2961.75           2310        1721.00      7502.35
  284.16        2962.00           2314        2873.00     12527.57
  284.19        2962.25           2317        3734.00     16284.52
  284.22        2962.50           2321        4869.00     21238.52
  284.25        2962.75           2324        5776.00     25198.57
  284.28        2963.00           2328        7047.00     30749.66
  284.31        2963.25           2331        8166.00     35638.63
  284.34        2963.50           2335        9388.00     40979.46
  284.37        2963.75           2339       10451.00     45626.96
  284.41        2964.00           2342       11277.00     49239.29
  284.44        2964.25           2346       12758.00     55718.36
  284.47        2964.50           2349       13804.00     60296.11
  284.50        2964.75           2353       14842.00     64840.26
  284.53        2965.00           2356       15692.00     68562.43
  284.56        2965.25           2360       16834.00     73564.77
  284.59        2965.50           2363       17749.00     77574.00
  284.62        2965.75           2367       18960.00     82881.88
  284.65        2966.00           2370       19929.00     87130.46
  284.68        2966.25           2374       20988.00     91775.02
  284.71        2966.50           2378       21576.00     94354.52
  284.74        2966.75           2381       21477.00     93920.19
  284.77        2967.00           2385       21331.00     93279.68
  284.80        2967.25           2388       21483.00     93946.52
  284.83        2967.50           2392       21607.00     94490.52
  284.86        2967.75           2395       21325.00     93253.36
  284.89        2968.00           2399       20662.00     90345.09
  284.93        2968.25           2402       19446.00     85012.59
  284.96        2968.50           2406       18458.00     80681.35
  284.99        2968.75           2409       17573.00     76802.75
  285.02        2969.00           2413       16924.00     73959.07
  285.05        2969.25           2417       15482.00     67642.75
  285.08        2969.50           2420       14536.00     63500.51
  285.11        2969.75           2424       13384.00     58457.83
  285.14        2970.00           2427       12253.00     53508.77
  285.17        2970.25           2431       10926.00     47704.17
  285.20        2970.50           2434        9956.00     43462.61
  285.23        2970.75           2438        8583.00     37460.93
  285.26        2971.00           2441        7596.00     33148.07
  285.29        2971.25           2445        6233.00     27194.27
  285.32        2971.50           2449        5059.00     22067.99
  285.35        2971.75           2452        4058.00     17698.53
  285.38        2972.00           2456        2827.00     12326.88
  285.41        2972.25           2459        1936.00      8440.09
  285.45        2972.50           2463        1073.00      4676.42
  285.48        2972.75           2466         540.00      2352.41
  285.51        2973.00           2470         178.00       774.21
  285.54        2973.25           2473         143.00       621.63
  285.57        2973.50           2477         115.00       499.57
  285.60        2973.75           2481         103.00       447.26
  285.63        2974.00           2484         122.00       530.09
  285.66        2974.25           2488         100.00       434.18
  285.69        2974.50           2491         105.00       455.98
  285.72        2974.75           2495         100.00       434.18
  285.75        2975.00           2498         100.00       434.18
  285.78        2975.25           2502         102.00       442.90
  285.81        2975.50           2505         120.00       521.37
  285.84        2975.75           2509         111.00       482.14
  285.87        2976.00           2512          92.00       399.31
  285.90        2976.25           2516          83.00       360.07
  285.93        2976.50           2520          88.00       381.87
  285.96        2976.75           2523          83.00       360.07
  286.00        2977.00           2527          87.00       377.51
  286.03        2977.25           2530          91.00       394.95
  286.06        2977.50           2534          90.00       390.59
  286.09        2977.75           2537          82.00       355.71
  286.12        2978.00           2541          84.00       364.43
  286.15        2978.25           2544          91.00       394.95
  286.18        2978.50           2548          86.00       373.15
  286.21        2978.75           2552          85.00       368.79
  286.24        2979.00           2555          86.00       373.15
  286.27        2979.25           2559          86.00       373.15
  286.30        2979.50           2562          78.00       338.28
  286.33        2979.75           2566          90.00       390.59
  286.37        2980.00           2569          86.00       373.15
  286.41        2980.25           2573          82.00       355.71
  286.44        2980.50           2577          79.00       342.64
  286.47        2980.75           2580          88.00       381.87
  286.50        2981.00           2584          76.00       329.56
  286.53        2981.25           2587          88.00       381.87
  286.56        2981.50           2591          74.00       320.84
  286.59        2981.75           2594          79.00       342.64
  286.62        2982.00           2598          83.00       360.07
  286.65        2982.25           2601          81.00       351.36
  286.68        2982.50           2605          73.00       316.48
  286.71        2982.75           2609          73.00       316.48
  286.74        2983.00           2612          65.00       281.61
  286.78        2983.25           2616          78.00       338.28
  286.81        2983.50           2619          72.00       312.12
  286.84        2983.75           2623          78.00       338.28
  286.87        2984.00           2626          75.00       325.20
HS scan finished at 04:47:05
end
************************************************************
  HS Scan of (1) Internal mercury lamp
************************************************************
Integration time is 0.2294 seconds per sample
dh191117Reading 51.44 .94 2.88pr1000
************************************************************
Dead Time -------------------------  3.4E-08 
Number of Cycles Used -------------  4 
Starting Wavelength (Angstroms) ---  2950 
Final Wavelength (Angstoms) -------  2984 
Wavelength Increment (Angstroms) --  .25 
Filter Wheel #1 Position ---------- (1) Ground quartz diffuser (ND=2.32)
Filter Wheel #2 Position ---------- (1) Neutral Density 0.494



************************************************************
HS scan start time = 17:07:22
Dark Count =  .9 


Time (GMT)  Wavelength (Ang)  Step Number  Raw Counts  Counts/Second

 1028.27        2950.00           2144          72.00       309.94
 1028.46        2950.25           2147          69.00       296.86
 1028.49        2950.50           2151          64.00       275.07
 1028.52        2950.75           2155          66.00       283.79
 1028.56        2951.00           2158          73.00       314.30
 1028.59        2951.25           2162          74.00       318.66
 1028.62        2951.50           2165          67.00       288.15
 1028.65        2951.75           2169          69.00       296.86
 1028.68        2952.00           2172          62.00       266.35
 1028.71        2952.25           2176          69.00       296.86
 1028.74        2952.50           2179          63.00       270.71
 1028.77        2952.75           2183          70.00       301.22
 1028.80        2953.00           2186          72.00       309.94
 1028.83        2953.25           2190          68.00       292.51
 1028.86        2953.50           2193          72.00       309.94
 1028.89        2953.75           2197          74.00       318.66
 1028.92        2954.00           2200          63.00       270.71
 1028.95        2954.25           2204          73.00       314.30
 1028.98        2954.50           2208          67.00       288.15
 1029.01        2954.75           2211          76.00       327.38
 1029.04        2955.00           2215          67.00       288.15
 1029.08        2955.25           2218          76.00       327.38
 1029.11        2955.50           2222          68.00       292.51
 1029.14        2955.75           2225          71.00       305.58
 1029.17        2956.00           2229          84.00       362.25
 1029.20        2956.25           2232          72.00       309.94
 1029.23        2956.50           2236          76.00       327.38
 1029.26        2956.75           2239          83.00       357.89
 1029.29        2957.00           2243          75.00       323.02
 1029.32        2957.25           2246          72.00       309.94
 1029.35        2957.50           2250          77.00       331.74
 1029.38        2957.75           2254          82.00       353.54
 1029.41        2958.00           2257          76.00       327.38
 1029.44        2958.25           2261          84.00       362.25
 1029.47        2958.50           2264          74.00       318.66
 1029.50        2958.75           2268          72.00       309.94
 1029.53        2959.00           2271          84.00       362.25
 1029.56        2959.25           2275          84.00       362.25
 1029.60        2959.50           2278          86.00       370.97
 1029.63        2959.75           2282          83.00       357.89
 1029.66        2960.00           2285          90.00       388.41
 1029.69        2960.25           2289          84.00       362.25
 1029.72        2960.50           2293         104.00       449.44
 1029.76        2960.75           2296          83.00       357.89
 1029.79        2961.00           2300         104.00       449.44
 1029.82        2961.25           2303         187.00       811.27
 1029.85        2961.50           2307         691.00      3008.59
 1029.88        2961.75           2310        1326.00      5777.51
 1029.91        2962.00           2314        2330.00     10156.51
 1029.94        2962.25           2317        3074.00     13402.36
 1029.97        2962.50           2321        4090.00     17836.01
 1030.00        2962.75           2324        4746.00     20699.39
 1030.03        2963.00           2328        5882.00     25659.26
 1030.06        2963.25           2331        6778.00     29572.44
 1030.09        2963.50           2335        7807.00     34067.77
 1030.12        2963.75           2339        8940.00     39019.04
 1030.15        2964.00           2342        9790.00     42734.67
 1030.18        2964.25           2346       10797.00     47137.82
 1030.21        2964.50           2349       11617.00     50724.29
 1030.24        2964.75           2353       13068.00     57072.72
 1030.27        2965.00           2356       13869.00     60578.44
 1030.31        2965.25           2360       14996.00     65512.37
 1030.34        2965.50           2363       15685.00     68529.58
 1030.37        2965.75           2367       16820.00     73501.25
 1030.40        2966.00           2370       17660.00     77181.79
 1030.43        2966.25           2374       18440.00     80600.27
 1030.46        2966.50           2378       18873.00     82498.30
 1030.49        2966.75           2381       19021.00     83147.11
 1030.52        2967.00           2385       18969.00     82919.15
 1030.55        2967.25           2388       19191.00     83892.39
 1030.58        2967.50           2392       18986.00     82993.68
 1030.61        2967.75           2395       18924.00     82721.88
 1030.64        2968.00           2399       18329.00     80113.74
 1030.67        2968.25           2402       17766.00     77646.30
 1030.70        2968.50           2406       16684.00     72905.43
 1030.73        2968.75           2409       15881.00     69388.01
 1030.76        2969.00           2413       14651.00     64001.81
 1030.79        2969.25           2417       13581.00     59317.85
 1030.83        2969.50           2420       12840.00     56074.99
 1030.86        2969.75           2424       11771.00     51397.94
 1030.89        2970.00           2427       10948.00     47798.19
 1030.92        2970.25           2431        9814.00     42839.60
 1030.95        2970.50           2434        8931.00     38979.70
 1030.98        2970.75           2438        7697.00     33587.16
 1031.01        2971.00           2441        6979.00     30450.43
 1031.04        2971.25           2445        5970.00     26043.54
 1031.07        2971.50           2449        4809.00     20974.41
 1031.10        2971.75           2452        4050.00     17661.43
 1031.13        2972.00           2456        2972.00     12957.32
 1031.16        2972.25           2459        2263.00      9864.25
 1031.19        2972.50           2463        1226.00      5341.42
 1031.22        2972.75           2466         585.00      2546.43
 1031.25        2973.00           2470         180.00       780.75
 1031.28        2973.25           2473         119.00       514.83
 1031.31        2973.50           2477          94.00       405.85
 1031.35        2973.75           2481          93.00       401.49
 1031.38        2974.00           2484          93.00       401.49
 1031.41        2974.25           2488          94.00       405.85
 1031.44        2974.50           2491          94.00       405.85
 1031.47        2974.75           2495          77.00       331.74
 1031.50        2975.00           2498          82.00       353.54
 1031.53        2975.25           2502          93.00       401.49
 1031.56        2975.50           2505          81.00       349.18
 1031.59        2975.75           2509          77.00       331.74
 1031.62        2976.00           2512          77.00       331.74
 1031.65        2976.25           2516          75.00       323.02
 1031.68        2976.50           2520          75.00       323.02
 1031.71        2976.75           2523          76.00       327.38
 1031.74        2977.00           2527          73.00       314.30
 1031.77        2977.25           2530          79.00       340.46
 1031.80        2977.50           2534          68.00       292.51
 1031.83        2977.75           2537          74.00       318.66
 1031.87        2978.00           2541          73.00       314.30
 1031.90        2978.25           2544          73.00       314.30
 1031.93        2978.50           2548          74.00       318.66
 1031.96        2978.75           2552          73.00       314.30
 1031.99        2979.00           2555          69.00       296.86
 1032.02        2979.25           2559          80.00       344.82
 1032.05        2979.50           2562          71.00       305.58
 1032.08        2979.75           2566          64.00       275.07
 1032.11        2980.00           2569          69.00       296.86
 1032.14        2980.25           2573          61.00       261.99
 1032.17        2980.50           2577          68.00       292.51
 1032.20        2980.75           2580          65.00       279.43
 1032.23        2981.00           2584          67.00       288.15
 1032.26        2981.25           2587          68.00       292.51
 1032.29        2981.50           2591          66.00       283.79
 1032.32        2981.75           2594          73.00       314.30
 1032.35        2982.00           2598          66.00       283.79
 1032.39        2982.25           2601          62.00       266.35
 1032.42        2982.50           2605          63.00       270.71
 1032.45        2982.75           2609          65.00       279.43
 1032.48        2983.00           2612          68.00       292.51
 1032.51        2983.25           2616          64.00       275.07
 1032.54        2983.50           2619          64.00       275.07
 1032.57        2983.75           2623          59.00       253.27
 1032.60        2984.00           2626          62.00       266.35
HS scan finished at 17:12:49
end
