************************************************************
  HS Scan of (1) Internal mercury lamp
************************************************************
Integration time is 0.2294 seconds per sample
dh251118Reading 51.44 .94 2.84pr1000
************************************************************
Dead Time -------------------------  3.4E-08 
Number of Cycles Used -------------  4 
Starting Wavelength (Angstroms) ---  2950 
Final Wavelength (Angstoms) -------  2984 
Wavelength Increment (Angstroms) --  .25 
Filter Wheel #1 Position ---------- (1) Ground quartz diffuser (ND=2.32)
Filter Wheel #2 Position ---------- (1) Neutral Density 0.494



************************************************************
HS scan start time = 04:49:08
Dark Count =  .6 


Time (GMT)  Wavelength (Ang)  Step Number  Raw Counts  Counts/Second

  290.02        2950.00           2144        1552.00      6764.42
  290.22        2950.25           2147        1604.00      6991.20
  290.25        2950.50           2151        1615.00      7039.17
  290.28        2950.75           2155        1604.00      6991.20
  290.31        2951.00           2158        1570.00      6842.92
  290.34        2951.25           2162        1596.00      6956.31
  290.37        2951.50           2165        1584.00      6903.97
  290.40        2951.75           2169        1597.00      6960.67
  290.43        2952.00           2172        1600.00      6973.76
  290.46        2952.25           2176        1587.00      6917.06
  290.49        2952.50           2179        1625.00      7082.79
  290.52        2952.75           2183        1605.00      6995.56
  290.55        2953.00           2186        1630.00      7104.59
  290.58        2953.25           2190        1613.00      7030.45
  290.61        2953.50           2193        1623.00      7074.06
  290.65        2953.75           2197        1613.00      7030.45
  290.68        2954.00           2200        1634.00      7122.04
  290.71        2954.25           2204        1661.00      7239.79
  290.74        2954.50           2208        1675.00      7300.85
  290.77        2954.75           2211        1656.00      7217.99
  290.80        2955.00           2215        1633.00      7117.68
  290.83        2955.25           2218        1670.00      7279.05
  290.86        2955.50           2222        1665.00      7257.24
  290.89        2955.75           2225        1669.00      7274.69
  290.92        2956.00           2229        1704.00      7427.33
  290.95        2956.25           2232        1696.00      7392.44
  290.98        2956.50           2236        1697.00      7396.80
  291.01        2956.75           2239        1717.00      7484.03
  291.04        2957.00           2243        1741.00      7588.71
  291.07        2957.25           2246        1757.00      7658.49
  291.10        2957.50           2250        1770.00      7715.19
  291.13        2957.75           2254        1788.00      7793.70
  291.17        2958.00           2257        1791.00      7806.78
  291.20        2958.25           2261        1817.00      7920.18
  291.23        2958.50           2264        1802.00      7854.76
  291.26        2958.75           2268        1839.00      8016.14
  291.29        2959.00           2271        1851.00      8068.47
  291.32        2959.25           2275        1863.00      8120.81
  291.35        2959.50           2278        1879.00      8190.60
  291.38        2959.75           2282        1907.00      8312.72
  291.41        2960.00           2285        1926.00      8395.60
  291.44        2960.25           2289        1967.00      8574.43
  291.47        2960.50           2293        1974.00      8604.96
  291.50        2960.75           2296        2004.00      8735.81
  291.53        2961.00           2300        2214.00      9651.81
  291.56        2961.25           2303        2809.00     12247.47
  291.59        2961.50           2307        7919.00     34558.46
  291.62        2961.75           2310       17317.00     75680.10
  291.65        2962.00           2314       33728.00    147764.90
  291.68        2962.25           2317       47716.00    209487.70
  291.73        2962.50           2321       68584.00    302054.80
  291.76        2962.75           2324       85749.00    378637.50
  291.79        2963.00           2328      109119.00    483553.80
  291.82        2963.25           2331      127116.00    564866.20
  291.85        2963.50           2335      149254.00    665515.00
  291.88        2963.75           2339      170060.00    760747.40
  291.91        2964.00           2342      185462.00    831649.40
  291.94        2964.25           2346      208672.00    939154.60
  291.98        2964.50           2349      225275.00   1016550.00
  292.01        2964.75           2353      247260.00   1119677.00
  292.04        2965.00           2356      262025.00   1189352.00
  292.07        2965.25           2360      282208.00   1285143.00
  292.10        2965.50           2363      296535.00   1353530.00
  292.13        2965.75           2367      314480.00   1439649.00
  292.16        2966.00           2370      330103.00   1515048.00
  292.19        2966.25           2374      350361.00   1613412.00
  292.22        2966.50           2378      363393.00   1677049.00
  292.25        2966.75           2381      366963.00   1694532.00
  292.28        2967.00           2385      369699.00   1707944.00
  292.31        2967.25           2388      370168.00   1710245.00
  292.34        2967.50           2392      369470.00   1706821.00
  292.37        2967.75           2395      369364.00   1706301.00
  292.40        2968.00           2399      364864.00   1684250.00
  292.43        2968.25           2402      356172.00   1641753.00
  292.46        2968.50           2406      338868.00   1557524.00
  292.50        2968.75           2409      322943.00   1480444.00
  292.53        2969.00           2413      301640.00   1377977.00
  292.56        2969.25           2417      284016.00   1293755.00
  292.59        2969.50           2420      268504.00   1220033.00
  292.62        2969.75           2424      247483.00   1120726.00
  292.65        2970.00           2427      230182.00   1039504.00
  292.68        2970.25           2431      206763.00    930282.20
  292.71        2970.50           2434      189792.00    851644.90
  292.74        2970.75           2438      167080.00    747069.10
  292.77        2971.00           2441      150004.00    668937.10
  292.80        2971.25           2445      127662.00    567340.10
  292.83        2971.50           2449      103235.00    457067.30
  292.86        2971.75           2452       85890.00    379268.30
  292.89        2972.00           2456       64928.00    285795.00
  292.92        2972.25           2459       49550.00    217599.60
  292.95        2972.50           2463       29258.00    128095.50
  292.98        2972.75           2466       16106.00     70374.82
  293.02        2973.00           2470        5286.00     23058.18
  293.05        2973.25           2473        2894.00     12618.32
  293.08        2973.50           2477        2153.00      9385.73
  293.11        2973.75           2481        2022.00      8814.32
  293.14        2974.00           2484        2010.00      8761.98
  293.17        2974.25           2488        1955.00      8522.09
  293.20        2974.50           2491        1913.00      8338.89
  293.23        2974.75           2495        1898.00      8273.47
  293.26        2975.00           2498        1856.00      8090.28
  293.29        2975.25           2502        1844.00      8037.94
  293.32        2975.50           2505        1800.00      7846.03
  293.35        2975.75           2509        1767.00      7702.10
  293.38        2976.00           2512        1765.00      7693.38
  293.41        2976.25           2516        1755.00      7649.77
  293.44        2976.50           2520        1725.00      7518.92
  293.47        2976.75           2523        1749.00      7623.60
  293.50        2977.00           2527        1747.00      7614.87
  293.54        2977.25           2530        1712.00      7462.23
  293.57        2977.50           2534        1698.00      7401.16
  293.60        2977.75           2537        1670.00      7279.05
  293.63        2978.00           2541        1666.00      7261.60
  293.66        2978.25           2544        1631.00      7108.95
  293.69        2978.50           2548        1614.00      7034.81
  293.72        2978.75           2552        1637.00      7135.12
  293.75        2979.00           2555        1632.00      7113.32
  293.78        2979.25           2559        1635.00      7126.40
  293.81        2979.50           2562        1597.00      6960.67
  293.84        2979.75           2566        1590.00      6930.14
  293.87        2980.00           2569        1589.00      6925.78
  293.90        2980.25           2573        1555.00      6777.50
  293.93        2980.50           2577        1554.00      6773.14
  293.96        2980.75           2580        1553.00      6768.78
  293.99        2981.00           2584        1507.00      6568.16
  294.02        2981.25           2587        1540.00      6712.08
  294.06        2981.50           2591        1507.00      6568.16
  294.09        2981.75           2594        1505.00      6559.44
  294.12        2982.00           2598        1505.00      6559.44
  294.15        2982.25           2601        1527.00      6655.39
  294.18        2982.50           2605        1520.00      6624.86
  294.21        2982.75           2609        1513.00      6594.33
  294.24        2983.00           2612        1522.00      6633.58
  294.27        2983.25           2616        1515.00      6603.05
  294.30        2983.50           2619        1469.00      6402.44
  294.33        2983.75           2623        1503.00      6550.72
  294.36        2984.00           2626        1519.00      6620.50
HS scan finished at 04:54:35
end
************************************************************
  HS Scan of (1) Internal mercury lamp
************************************************************
Integration time is 0.2294 seconds per sample
dh251118Reading 51.44 .94 2.94pr1000
************************************************************
Dead Time -------------------------  3.4E-08 
Number of Cycles Used -------------  4 
Starting Wavelength (Angstroms) ---  2950 
Final Wavelength (Angstoms) -------  2984 
Wavelength Increment (Angstroms) --  .25 
Filter Wheel #1 Position ---------- (1) Ground quartz diffuser (ND=2.32)
Filter Wheel #2 Position ---------- (1) Neutral Density 0.494



************************************************************
HS scan start time = 17:07:23
Dark Count =  .5 


Time (GMT)  Wavelength (Ang)  Step Number  Raw Counts  Counts/Second

 1028.28        2950.00           2144        1443.00      6289.49
 1028.47        2950.25           2147        1476.00      6433.40
 1028.50        2950.50           2151        1446.00      6302.57
 1028.53        2950.75           2155        1459.00      6359.27
 1028.56        2951.00           2158        1470.00      6407.24
 1028.59        2951.25           2162        1479.00      6446.49
 1028.62        2951.50           2165        1475.00      6429.04
 1028.65        2951.75           2169        1488.00      6485.74
 1028.69        2952.00           2172        1482.00      6459.57
 1028.72        2952.25           2176        1484.00      6468.29
 1028.75        2952.50           2179        1517.00      6612.21
 1028.78        2952.75           2183        1477.00      6437.76
 1028.81        2953.00           2186        1473.00      6420.32
 1028.84        2953.25           2190        1506.00      6564.24
 1028.87        2953.50           2193        1521.00      6629.66
 1028.90        2953.75           2197        1500.00      6538.07
 1028.93        2954.00           2200        1515.00      6603.49
 1028.96        2954.25           2204        1560.00      6799.74
 1028.99        2954.50           2208        1496.00      6520.63
 1029.02        2954.75           2211        1553.00      6769.21
 1029.06        2955.00           2215        1550.00      6756.13
 1029.09        2955.25           2218        1551.00      6760.49
 1029.12        2955.50           2222        1538.00      6703.80
 1029.15        2955.75           2225        1556.00      6782.30
 1029.18        2956.00           2229        1558.00      6791.02
 1029.21        2956.25           2232        1568.00      6834.63
 1029.24        2956.50           2236        1567.00      6830.27
 1029.27        2956.75           2239        1615.00      7039.61
 1029.30        2957.00           2243        1632.00      7113.75
 1029.33        2957.25           2246        1586.00      6913.13
 1029.37        2957.50           2250        1574.00      6860.80
 1029.40        2957.75           2254        1645.00      7170.45
 1029.43        2958.00           2257        1666.00      7262.04
 1029.46        2958.25           2261        1644.00      7166.09
 1029.49        2958.50           2264        1657.00      7222.79
 1029.52        2958.75           2268        1697.00      7397.24
 1029.55        2959.00           2271        1665.00      7257.68
 1029.58        2959.25           2275        1735.00      7562.97
 1029.61        2959.50           2278        1715.00      7475.74
 1029.64        2959.75           2282        1764.00      7689.46
 1029.67        2960.00           2285        1780.00      7759.24
 1029.70        2960.25           2289        1816.00      7916.25
 1029.73        2960.50           2293        1885.00      8217.20
 1029.76        2960.75           2296        1892.00      8247.74
 1029.79        2961.00           2300        1959.00      8539.97
 1029.82        2961.25           2303        2393.00     10433.08
 1029.85        2961.50           2307        6218.00     27128.33
 1029.89        2961.75           2310       14006.00     61179.87
 1029.92        2962.00           2314       27930.00    122257.40
 1029.95        2962.25           2317       40079.00    175757.30
 1029.98        2962.50           2321       62165.00    273519.20
 1030.01        2962.75           2324       78441.00    345983.80
 1030.04        2963.00           2328       98385.00    435271.80
 1030.07        2963.25           2331      112787.00    500089.90
 1030.10        2963.50           2335      135076.00    600976.10
 1030.13        2963.75           2339      156180.00    697147.60
 1030.16        2964.00           2342      173969.00    778709.80
 1030.19        2964.25           2346      194608.00    873917.50
 1030.22        2964.50           2349      208944.00    940419.70
 1030.25        2964.75           2353      228028.00   1029424.00
 1030.28        2965.00           2356      243716.00   1103003.00
 1030.31        2965.25           2360      263458.00   1196132.00
 1030.34        2965.50           2363      277143.00   1261044.00
 1030.37        2965.75           2367      296432.00   1353038.00
 1030.40        2966.00           2370      309388.00   1415160.00
 1030.44        2966.25           2374      326676.00   1498476.00
 1030.47        2966.50           2378      339317.00   1559704.00
 1030.50        2966.75           2381      343183.00   1578482.00
 1030.53        2967.00           2385      345313.00   1588838.00
 1030.56        2967.25           2388      345982.00   1592093.00
 1030.59        2967.50           2392      345761.00   1591018.00
 1030.62        2967.75           2395      345228.00   1588425.00
 1030.65        2968.00           2399      340876.00   1567273.00
 1030.68        2968.25           2402      332107.00   1524749.00
 1030.71        2968.50           2406      316381.00   1448803.00
 1030.74        2968.75           2409      308845.00   1412551.00
 1030.77        2969.00           2413      285299.00   1299870.00
 1030.80        2969.25           2417      265099.00   1203901.00
 1030.84        2969.50           2420      250631.00   1135555.00
 1030.87        2969.75           2424      231444.00   1045414.00
 1030.90        2970.00           2427      216577.00    975952.90
 1030.93        2970.25           2431      196486.00    882611.80
 1030.96        2970.50           2434      180325.00    807963.50
 1030.99        2970.75           2438      160147.00    715296.60
 1031.02        2971.00           2441      144857.00    645469.30
 1031.05        2971.25           2445      123338.00    547759.60
 1031.08        2971.50           2449      102531.00    453901.90
 1031.11        2971.75           2452       86552.00    382230.40
 1031.15        2972.00           2456       67792.00    298531.30
 1031.18        2972.25           2459       53020.00    232960.40
 1031.21        2972.50           2463       33350.00    146101.00
 1031.24        2972.75           2466       18669.00     81605.80
 1031.27        2973.00           2470        5572.00     24307.35
 1031.30        2973.25           2473        2759.00     12029.77
 1031.33        2973.50           2477        1986.00      8657.74
 1031.36        2973.75           2481        1908.00      8317.52
 1031.39        2974.00           2484        1851.00      8068.91
 1031.42        2974.25           2488        1828.00      7968.59
 1031.45        2974.50           2491        1792.00      7811.58
 1031.48        2974.75           2495        1752.00      7637.12
 1031.51        2975.00           2498        1797.00      7833.39
 1031.54        2975.25           2502        1741.00      7589.14
 1031.57        2975.50           2505        1728.00      7532.44
 1031.60        2975.75           2509        1675.00      7301.29
 1031.63        2976.00           2512        1668.00      7270.76
 1031.67        2976.25           2516        1621.00      7065.78
 1031.70        2976.50           2520        1620.00      7061.42
 1031.73        2976.75           2523        1555.00      6777.94
 1031.76        2977.00           2527        1613.00      7030.89
 1031.79        2977.25           2530        1567.00      6830.27
 1031.82        2977.50           2534        1602.00      6982.91
 1031.85        2977.75           2537        1585.00      6908.77
 1031.88        2978.00           2541        1537.00      6699.43
 1031.91        2978.25           2544        1564.00      6817.19
 1031.94        2978.50           2548        1510.00      6581.68
 1031.97        2978.75           2552        1531.00      6673.27
 1032.00        2979.00           2555        1547.00      6743.05
 1032.03        2979.25           2559        1519.00      6620.93
 1032.06        2979.50           2562        1478.00      6442.13
 1032.09        2979.75           2566        1481.00      6455.21
 1032.12        2980.00           2569        1456.00      6346.18
 1032.15        2980.25           2573        1450.00      6320.02
 1032.19        2980.50           2577        1427.00      6219.71
 1032.22        2980.75           2580        1456.00      6346.18
 1032.25        2981.00           2584        1467.00      6394.15
 1032.28        2981.25           2587        1420.00      6189.18
 1032.31        2981.50           2591        1400.00      6101.96
 1032.34        2981.75           2594        1414.00      6163.02
 1032.37        2982.00           2598        1422.00      6197.91
 1032.40        2982.25           2601        1435.00      6254.60
 1032.43        2982.50           2605        1437.00      6263.32
 1032.46        2982.75           2609        1397.00      6088.88
 1032.49        2983.00           2612        1414.00      6163.02
 1032.52        2983.25           2616        1355.00      5905.72
 1032.55        2983.50           2619        1363.00      5940.61
 1032.58        2983.75           2623        1408.00      6136.85
 1032.61        2984.00           2626        1369.00      5966.77
HS scan finished at 17:12:50
end
