************************************************************
  HS Scan of (1) Internal mercury lamp
************************************************************
Integration time is 0.2294 seconds per sample
dh211118Reading 51.44 .94 2.54pr1000
************************************************************
Dead Time -------------------------  3.4E-08 
Number of Cycles Used -------------  4 
Starting Wavelength (Angstroms) ---  2950 
Final Wavelength (Angstoms) -------  2984 
Wavelength Increment (Angstroms) --  .25 
Filter Wheel #1 Position ---------- (1) Ground quartz diffuser (ND=2.32)
Filter Wheel #2 Position ---------- (1) Neutral Density 0.494



************************************************************
HS scan start time = 04:43:58
Dark Count =  .3 


Time (GMT)  Wavelength (Ang)  Step Number  Raw Counts  Counts/Second

  284.87        2950.00           2144        1606.00      7001.23
  285.06        2950.25           2147        1648.00      7184.41
  285.09        2950.50           2151        1608.00      7009.95
  285.12        2950.75           2155        1622.00      7071.01
  285.15        2951.00           2158        1583.00      6900.92
  285.19        2951.25           2162        1614.00      7036.12
  285.22        2951.50           2165        1573.00      6857.31
  285.25        2951.75           2169        1591.00      6935.81
  285.28        2952.00           2172        1630.00      7105.90
  285.31        2952.25           2176        1630.00      7105.90
  285.34        2952.50           2179        1647.00      7180.04
  285.37        2952.75           2183        1648.00      7184.41
  285.40        2953.00           2186        1676.00      7306.52
  285.43        2953.25           2190        1636.00      7132.07
  285.46        2953.50           2193        1658.00      7228.02
  285.49        2953.75           2197        1726.00      7524.59
  285.52        2954.00           2200        1669.00      7275.99
  285.55        2954.25           2204        1684.00      7341.41
  285.58        2954.50           2208        1694.00      7385.03
  285.61        2954.75           2211        1730.00      7542.04
  285.64        2955.00           2215        1687.00      7354.50
  285.67        2955.25           2218        1651.00      7197.49
  285.70        2955.50           2222        1727.00      7528.95
  285.74        2955.75           2225        1725.00      7520.23
  285.77        2956.00           2229        1744.00      7603.10
  285.80        2956.25           2232        1765.00      7694.69
  285.83        2956.50           2236        1757.00      7659.80
  285.86        2956.75           2239        1804.00      7864.79
  285.89        2957.00           2243        1767.00      7703.41
  285.92        2957.25           2246        1788.00      7795.00
  285.95        2957.50           2250        1781.00      7764.47
  285.98        2957.75           2254        1823.00      7947.66
  286.01        2958.00           2257        1833.00      7991.27
  286.04        2958.25           2261        1831.00      7982.55
  286.07        2958.50           2264        1882.00      8204.99
  286.10        2958.75           2268        1916.00      8353.29
  286.13        2959.00           2271        1916.00      8353.29
  286.16        2959.25           2275        1932.00      8423.08
  286.19        2959.50           2278        1972.00      8597.54
  286.22        2959.75           2282        1935.00      8436.16
  286.26        2960.00           2285        2003.00      8732.76
  286.29        2960.25           2289        2025.00      8828.72
  286.32        2960.50           2293        2107.00      9186.39
  286.35        2960.75           2296        2099.00      9151.50
  286.38        2961.00           2300        2264.00      9871.23
  286.41        2961.25           2303        2807.00     12240.05
  286.44        2961.50           2307        7684.00     33532.98
  286.47        2961.75           2310       17557.00     76733.06
  286.50        2962.00           2314       37237.00    163225.50
  286.53        2962.25           2317       53632.00    235672.10
  286.56        2962.50           2321       74303.00    327527.30
  286.59        2962.75           2324       91472.00    404261.80
  286.62        2963.00           2328      116568.00    517155.60
  286.65        2963.25           2331      136166.00    605928.60
  286.68        2963.50           2335      161879.00    723228.50
  286.71        2963.75           2339      184596.00    827655.00
  286.74        2964.00           2342      201556.00    906110.80
  286.78        2964.25           2346      225172.00   1016070.00
  286.81        2964.50           2349      243034.00   1099798.00
  286.84        2964.75           2353      267332.00   1214479.00
  286.87        2965.00           2356      284917.00   1298050.00
  286.90        2965.25           2360      306585.00   1401698.00
  286.93        2965.50           2363      322807.00   1479789.00
  286.96        2965.75           2367      343013.00   1577657.00
  286.99        2966.00           2370      359270.00   1656887.00
  287.02        2966.25           2374      380742.00   1762211.00
  287.05        2966.50           2378      397334.00   1844134.00
  287.08        2966.75           2381      403055.00   1872491.00
  287.11        2967.00           2385      405423.00   1884245.00
  287.14        2967.25           2388      405659.00   1885417.00
  287.17        2967.50           2392      405771.00   1885973.00
  287.20        2967.75           2395      404064.00   1877498.00
  287.23        2968.00           2399      400672.00   1860673.00
  287.26        2968.25           2402      392725.00   1821330.00
  287.30        2968.50           2406      373037.00   1724327.00
  287.33        2968.75           2409      356235.00   1642062.00
  287.36        2969.00           2413      334047.00   1534147.00
  287.39        2969.25           2417      312834.00   1431730.00
  287.42        2969.50           2420      297199.00   1356709.00
  287.45        2969.75           2424      274172.00   1246928.00
  287.48        2970.00           2427      254097.00   1151900.00
  287.51        2970.25           2431      226589.00   1022695.00
  287.54        2970.50           2434      207149.00    932077.10
  287.57        2970.75           2438      182551.00    818223.60
  287.60        2971.00           2441      164119.00    733492.10
  287.63        2971.25           2445      138844.00    618101.30
  287.66        2971.50           2449      115335.00    511588.50
  287.69        2971.75           2452       96014.00    424629.30
  287.72        2972.00           2456       71684.00    315857.40
  287.75        2972.25           2459       54531.00    239655.00
  287.78        2972.50           2463       31833.00    139424.40
  287.82        2972.75           2466       17383.00     75970.61
  287.85        2973.00           2470        6495.00     28338.98
  287.88        2973.25           2473        3414.00     14888.53
  287.91        2973.50           2477        2324.00     10132.96
  287.94        2973.75           2481        2205.00      9613.87
  287.97        2974.00           2484        2118.00      9234.37
  288.00        2974.25           2488        2050.00      8937.76
  288.03        2974.50           2491        2025.00      8828.72
  288.06        2974.75           2495        1984.00      8649.88
  288.09        2975.00           2498        1973.00      8601.91
  288.12        2975.25           2502        1915.00      8348.93
  288.15        2975.50           2505        1914.00      8344.56
  288.18        2975.75           2509        1880.00      8196.27
  288.21        2976.00           2512        1869.00      8148.29
  288.24        2976.25           2516        1832.00      7986.91
  288.27        2976.50           2520        1820.00      7934.57
  288.30        2976.75           2523        1742.00      7594.38
  288.34        2977.00           2527        1746.00      7611.82
  288.37        2977.25           2530        1759.00      7668.52
  288.40        2977.50           2534        1756.00      7655.44
  288.43        2977.75           2537        1781.00      7764.47
  288.46        2978.00           2541        1701.00      7415.56
  288.49        2978.25           2544        1739.00      7581.29
  288.52        2978.50           2548        1680.00      7323.97
  288.55        2978.75           2552        1703.00      7424.28
  288.58        2979.00           2555        1639.00      7145.15
  288.61        2979.25           2559        1649.00      7188.77
  288.64        2979.50           2562        1623.00      7075.37
  288.67        2979.75           2566        1623.00      7075.37
  288.70        2980.00           2569        1620.00      7062.29
  288.73        2980.25           2573        1606.00      7001.23
  288.76        2980.50           2577        1603.00      6988.15
  288.79        2980.75           2580        1619.00      7057.93
  288.82        2981.00           2584        1591.00      6935.81
  288.85        2981.25           2587        1573.00      6857.31
  288.89        2981.50           2591        1576.00      6870.39
  288.92        2981.75           2594        1569.00      6839.86
  288.95        2982.00           2598        1559.00      6796.25
  288.98        2982.25           2601        1501.00      6543.30
  289.01        2982.50           2605        1497.00      6525.86
  289.04        2982.75           2609        1545.00      6735.20
  289.07        2983.00           2612        1497.00      6525.86
  289.10        2983.25           2616        1551.00      6761.36
  289.13        2983.50           2619        1490.00      6495.33
  289.16        2983.75           2623        1508.00      6573.83
  289.19        2984.00           2626        1517.00      6613.08
HS scan finished at 04:49:25
end
