************************************************************
  HS Scan of (1) Internal mercury lamp
************************************************************
Integration time is 0.2294 seconds per sample
dh231118Reading 51.44 .94 2.74pr1000
************************************************************
Dead Time -------------------------  3.4E-08 
Number of Cycles Used -------------  4 
Starting Wavelength (Angstroms) ---  2950 
Final Wavelength (Angstoms) -------  2984 
Wavelength Increment (Angstroms) --  .25 
Filter Wheel #1 Position ---------- (1) Ground quartz diffuser (ND=2.32)
Filter Wheel #2 Position ---------- (1) Neutral Density 0.494



************************************************************
HS scan start time = 04:46:35
Dark Count =  .4 


Time (GMT)  Wavelength (Ang)  Step Number  Raw Counts  Counts/Second

  287.49        2950.00           2144        1588.00      6922.29
  287.68        2950.25           2147        1570.00      6843.79
  287.72        2950.50           2151        1619.00      7057.49
  287.75        2950.75           2155        1576.00      6869.96
  287.78        2951.00           2158        1627.00      7092.38
  287.81        2951.25           2162        1625.00      7083.66
  287.84        2951.50           2165        1626.00      7088.02
  287.87        2951.75           2169        1600.00      6974.63
  287.90        2952.00           2172        1612.00      7026.96
  287.93        2952.25           2176        1585.00      6909.21
  287.96        2952.50           2179        1608.00      7009.52
  287.99        2952.75           2183        1603.00      6987.71
  288.02        2953.00           2186        1651.00      7197.05
  288.05        2953.25           2190        1646.00      7175.25
  288.08        2953.50           2193        1625.00      7083.66
  288.11        2953.75           2197        1660.00      7236.30
  288.14        2954.00           2200        1645.00      7170.88
  288.17        2954.25           2204        1681.00      7327.89
  288.20        2954.50           2208        1669.00      7275.56
  288.23        2954.75           2211        1688.00      7358.42
  288.27        2955.00           2215        1663.00      7249.39
  288.30        2955.25           2218        1685.00      7345.34
  288.33        2955.50           2222        1727.00      7528.52
  288.36        2955.75           2225        1743.00      7598.30
  288.39        2956.00           2229        1688.00      7358.42
  288.42        2956.25           2232        1753.00      7641.92
  288.45        2956.50           2236        1715.00      7476.18
  288.48        2956.75           2239        1762.00      7681.17
  288.51        2957.00           2243        1798.00      7838.18
  288.54        2957.25           2246        1790.00      7803.29
  288.57        2957.50           2250        1797.00      7833.82
  288.60        2957.75           2254        1816.00      7916.69
  288.63        2958.00           2257        1855.00      8086.79
  288.66        2958.25           2261        1866.00      8134.77
  288.69        2958.50           2264        1945.00      8479.34
  288.72        2958.75           2268        1886.00      8222.00
  288.76        2959.00           2271        1879.00      8191.47
  288.79        2959.25           2275        1894.00      8256.89
  288.82        2959.50           2278        1914.00      8344.13
  288.85        2959.75           2282        1944.00      8474.98
  288.88        2960.00           2285        2023.00      8819.56
  288.91        2960.25           2289        2026.00      8832.64
  288.94        2960.50           2293        2030.00      8850.09
  288.97        2960.75           2296        2127.00      9273.19
  289.00        2961.00           2300        2153.00      9386.61
  289.03        2961.25           2303        2451.00     10686.53
  289.06        2961.50           2307        4822.00     21033.35
  289.09        2961.75           2310       12682.00     55385.81
  289.12        2962.00           2314       31288.00    137025.80
  289.15        2962.25           2317       47016.00    206393.60
  289.18        2962.50           2321       70603.00    311042.80
  289.21        2962.75           2324       87974.00    388594.80
  289.24        2963.00           2328      111714.00    495251.20
  289.28        2963.25           2331      129710.00    576624.60
  289.31        2963.50           2335      155599.00    694491.80
  289.34        2963.75           2339      179718.00    805167.60
  289.37        2964.00           2342      197182.00    885835.80
  289.40        2964.25           2346      220424.00    993895.00
  289.43        2964.50           2349      239729.00   1084268.00
  289.46        2964.75           2353      265988.00   1208111.00
  289.50        2965.00           2356      284270.00   1294966.00
  289.53        2965.25           2360      306761.00   1402543.00
  289.56        2965.50           2363      323366.00   1482487.00
  289.59        2965.75           2367      346752.00   1595840.00
  289.62        2966.00           2370      364580.00   1682860.00
  289.65        2966.25           2374      387917.00   1797579.00
  289.68        2966.50           2378      405473.00   1884493.00
  289.71        2966.75           2381      411567.00   1914787.00
  289.74        2967.00           2385      413571.00   1924763.00
  289.77        2967.25           2388      413307.00   1923449.00
  289.80        2967.50           2392      413634.00   1925077.00
  289.83        2967.75           2395      412850.00   1921173.00
  289.86        2968.00           2399      406763.00   1890901.00
  289.89        2968.25           2402      395676.00   1835926.00
  289.92        2968.50           2406      377581.00   1746656.00
  289.95        2968.75           2409      360928.00   1664991.00
  289.98        2969.00           2413      339234.00   1559302.00
  290.02        2969.25           2417      319699.00   1464794.00
  290.05        2969.50           2420      302423.00   1381731.00
  290.08        2969.75           2424      276879.00   1259790.00
  290.11        2970.00           2427      256863.00   1164955.00
  290.14        2970.25           2431      228762.00   1032859.00
  290.17        2970.50           2434      210282.00    946642.40
  290.20        2970.75           2438      187537.00    841228.90
  290.23        2971.00           2441      170578.00    763127.20
  290.26        2971.25           2445      144037.00    641734.40
  290.29        2971.50           2449      117833.00    522868.80
  290.32        2971.75           2452       98861.00    437410.00
  290.35        2972.00           2456       74932.00    330331.00
  290.38        2972.25           2459       57959.00    254851.80
  290.41        2972.50           2463       35141.00    153989.00
  290.44        2972.75           2466       19157.00     83745.53
  290.47        2973.00           2470        6704.00     29251.40
  290.50        2973.25           2473        3313.00     14447.38
  290.54        2973.50           2477        2259.00      9848.98
  290.57        2973.75           2481        2163.00      9430.22
  290.60        2974.00           2484        2131.00      9290.64
  290.63        2974.25           2488        2099.00      9151.06
  290.66        2974.50           2491        2053.00      8950.41
  290.69        2974.75           2495        2015.00      8784.66
  290.72        2975.00           2498        1983.00      8645.09
  290.75        2975.25           2502        1945.00      8479.34
  290.78        2975.50           2505        1945.00      8479.34
  290.81        2975.75           2509        1905.00      8304.87
  290.84        2976.00           2512        1892.00      8248.17
  290.87        2976.25           2516        1874.00      8169.66
  290.90        2976.50           2520        1825.00      7955.94
  290.93        2976.75           2523        1835.00      7999.56
  290.96        2977.00           2527        1803.00      7859.99
  290.99        2977.25           2530        1766.00      7698.61
  291.02        2977.50           2534        1756.00      7655.00
  291.06        2977.75           2537        1753.00      7641.92
  291.09        2978.00           2541        1735.00      7563.41
  291.12        2978.25           2544        1726.00      7524.16
  291.15        2978.50           2548        1727.00      7528.52
  291.18        2978.75           2552        1700.00      7410.76
  291.21        2979.00           2555        1661.00      7240.67
  291.24        2979.25           2559        1671.00      7284.28
  291.27        2979.50           2562        1715.00      7476.18
  291.30        2979.75           2566        1676.00      7306.09
  291.33        2980.00           2569        1635.00      7127.27
  291.36        2980.25           2573        1654.00      7210.14
  291.39        2980.50           2577        1609.00      7013.88
  291.42        2980.75           2580        1634.00      7122.91
  291.45        2981.00           2584        1612.00      7026.96
  291.48        2981.25           2587        1614.00      7035.68
  291.51        2981.50           2591        1600.00      6974.63
  291.54        2981.75           2594        1571.00      6848.15
  291.58        2982.00           2598        1562.00      6808.90
  291.61        2982.25           2601        1579.00      6883.04
  291.64        2982.50           2605        1566.00      6826.34
  291.67        2982.75           2609        1571.00      6848.15
  291.70        2983.00           2612        1562.00      6808.90
  291.73        2983.25           2616        1541.00      6717.31
  291.76        2983.50           2619        1492.00      6503.62
  291.79        2983.75           2623        1546.00      6739.12
  291.82        2984.00           2626        1525.00      6647.54
HS scan finished at 04:52:03
end
************************************************************
  HS Scan of (1) Internal mercury lamp
************************************************************
Integration time is 0.2294 seconds per sample
dh231118Reading 51.44 .94 3.03pr1000
************************************************************
Dead Time -------------------------  3.4E-08 
Number of Cycles Used -------------  4 
Starting Wavelength (Angstroms) ---  2950 
Final Wavelength (Angstoms) -------  2984 
Wavelength Increment (Angstroms) --  .25 
Filter Wheel #1 Position ---------- (1) Ground quartz diffuser (ND=2.32)
Filter Wheel #2 Position ---------- (1) Neutral Density 0.494



************************************************************
HS scan start time = 17:07:25
Dark Count =  1 


Time (GMT)  Wavelength (Ang)  Step Number  Raw Counts  Counts/Second

 1028.31        2950.00           2144        1520.00      6623.11
 1028.50        2950.25           2147        1522.00      6631.84
 1028.53        2950.50           2151        1518.00      6614.39
 1028.56        2950.75           2155        1577.00      6871.70
 1028.59        2951.00           2158        1540.00      6710.34
 1028.62        2951.25           2162        1507.00      6566.42
 1028.66        2951.50           2165        1516.00      6605.67
 1028.69        2951.75           2169        1523.00      6636.20
 1028.72        2952.00           2172        1576.00      6867.34
 1028.75        2952.25           2176        1518.00      6614.39
 1028.78        2952.50           2179        1550.00      6753.95
 1028.81        2952.75           2183        1585.00      6906.59
 1028.84        2953.00           2186        1585.00      6906.59
 1028.87        2953.25           2190        1533.00      6679.81
 1028.90        2953.50           2193        1573.00      6854.26
 1028.93        2953.75           2197        1597.00      6958.93
 1028.96        2954.00           2200        1599.00      6967.65
 1028.99        2954.25           2204        1580.00      6884.79
 1029.02        2954.50           2208        1584.00      6902.23
 1029.05        2954.75           2211        1600.00      6972.01
 1029.08        2955.00           2215        1604.00      6989.46
 1029.11        2955.25           2218        1627.00      7089.76
 1029.14        2955.50           2222        1635.00      7124.66
 1029.18        2955.75           2225        1633.00      7115.93
 1029.21        2956.00           2229        1636.00      7129.02
 1029.24        2956.25           2232        1676.00      7303.47
 1029.27        2956.50           2236        1623.00      7072.32
 1029.30        2956.75           2239        1697.00      7395.06
 1029.33        2957.00           2243        1682.00      7329.64
 1029.36        2957.25           2246        1686.00      7347.08
 1029.39        2957.50           2250        1684.00      7338.36
 1029.42        2957.75           2254        1691.00      7368.89
 1029.45        2958.00           2257        1696.00      7390.70
 1029.48        2958.25           2261        1754.00      7643.66
 1029.51        2958.50           2264        1761.00      7674.19
 1029.54        2958.75           2268        1811.00      7892.27
 1029.57        2959.00           2271        1791.00      7805.04
 1029.60        2959.25           2275        1766.00      7696.00
 1029.63        2959.50           2278        1842.00      8027.47
 1029.66        2959.75           2282        1852.00      8071.09
 1029.70        2960.00           2285        1862.00      8114.71
 1029.73        2960.25           2289        1880.00      8193.22
 1029.76        2960.50           2293        1918.00      8358.96
 1029.79        2960.75           2296        1965.00      8563.96
 1029.82        2961.00           2300        1986.00      8655.56
 1029.85        2961.25           2303        2177.00      9488.68
 1029.88        2961.50           2307        3744.00     16325.54
 1029.91        2961.75           2310        8828.00     38529.08
 1029.94        2962.00           2314       22862.00     99995.01
 1029.97        2962.25           2317       36238.00    158819.60
 1030.00        2962.50           2321       55604.00    244407.00
 1030.03        2962.75           2324       71887.00    316758.50
 1030.06        2963.00           2328       96301.00    425914.10
 1030.09        2963.25           2331      114183.00    506385.80
 1030.12        2963.50           2335      137176.00    610515.10
 1030.15        2963.75           2339      160266.00    715839.00
 1030.18        2964.00           2342      176492.00    790312.60
 1030.22        2964.25           2346      197935.00    889321.30
 1030.25        2964.50           2349      214639.00    966920.50
 1030.28        2964.75           2353      236558.00   1069382.00
 1030.31        2965.00           2356      254843.00   1155416.00
 1030.34        2965.25           2360      277042.00   1260562.00
 1030.37        2965.50           2363      293847.00   1340673.00
 1030.40        2965.75           2367      313670.00   1435749.00
 1030.43        2966.00           2370      327643.00   1503148.00
 1030.46        2966.25           2374      346881.00   1596465.00
 1030.49        2966.50           2378      364938.00   1684610.00
 1030.52        2966.75           2381      371694.00   1717730.00
 1030.55        2967.00           2385      373840.00   1728267.00
 1030.58        2967.25           2388      373939.00   1728753.00
 1030.61        2967.50           2392      374111.00   1729598.00
 1030.64        2967.75           2395      373918.00   1728650.00
 1030.67        2968.00           2399      369521.00   1707069.00
 1030.70        2968.25           2402      360002.00   1660461.00
 1030.73        2968.50           2406      342758.00   1576414.00
 1030.77        2968.75           2409      329346.00   1511384.00
 1030.80        2969.00           2413      309302.00   1414745.00
 1030.83        2969.25           2417      287927.00   1312401.00
 1030.86        2969.50           2420      271990.00   1236565.00
 1030.89        2969.75           2424      251848.00   1141289.00
 1030.92        2970.00           2427      236374.00   1068519.00
 1030.95        2970.25           2431      212825.00    958473.30
 1030.98        2970.50           2434      194515.00    873484.80
 1031.01        2970.75           2438      172326.00    771155.20
 1031.04        2971.00           2441      153998.00    687172.40
 1031.07        2971.25           2445      133489.00    593767.50
 1031.10        2971.50           2449      112096.00    496971.20
 1031.13        2971.75           2452       95431.00    422010.20
 1031.16        2972.00           2456       72422.00    319141.70
 1031.19        2972.25           2459       56554.00    248618.50
 1031.22        2972.50           2463       36613.00    160472.10
 1031.25        2972.75           2466       22094.00     96624.68
 1031.29        2973.00           2470        7814.00     34097.92
 1031.32        2973.25           2473        3678.00     16037.51
 1031.35        2973.50           2477        2202.00      9597.73
 1031.38        2973.75           2481        2020.00      8803.86
 1031.41        2974.00           2484        1947.00      8485.45
 1031.44        2974.25           2488        1916.00      8350.23
 1031.47        2974.50           2491        1878.00      8184.49
 1031.50        2974.75           2495        1876.00      8175.77
 1031.53        2975.00           2498        1847.00      8049.28
 1031.56        2975.25           2502        1802.00      7853.01
 1031.59        2975.50           2505        1792.00      7809.40
 1031.62        2975.75           2509        1790.00      7800.67
 1031.65        2976.00           2512        1776.00      7739.61
 1031.68        2976.25           2516        1738.00      7573.88
 1031.71        2976.50           2520        1715.00      7473.56
 1031.74        2976.75           2523        1687.00      7351.45
 1031.77        2977.00           2527        1696.00      7390.70
 1031.81        2977.25           2530        1640.00      7146.46
 1031.84        2977.50           2534        1668.00      7268.58
 1031.87        2977.75           2537        1629.00      7098.49
 1031.90        2978.00           2541        1663.00      7246.77
 1031.93        2978.25           2544        1628.00      7094.13
 1031.96        2978.50           2548        1593.00      6941.48
 1031.99        2978.75           2552        1620.00      7059.24
 1032.02        2979.00           2555        1588.00      6919.68
 1032.05        2979.25           2559        1582.00      6893.51
 1032.08        2979.50           2562        1604.00      6989.46
 1032.11        2979.75           2566        1542.00      6719.06
 1032.14        2980.00           2569        1565.00      6819.37
 1032.17        2980.25           2573        1563.00      6810.64
 1032.20        2980.50           2577        1546.00      6736.50
 1032.23        2980.75           2580        1494.00      6509.72
 1032.26        2981.00           2584        1505.00      6557.70
 1032.29        2981.25           2587        1533.00      6679.81
 1032.33        2981.50           2591        1459.00      6357.08
 1032.36        2981.75           2594        1512.00      6588.22
 1032.39        2982.00           2598        1512.00      6588.22
 1032.42        2982.25           2601        1451.00      6322.20
 1032.45        2982.50           2605        1497.00      6522.81
 1032.48        2982.75           2609        1434.00      6248.06
 1032.51        2983.00           2612        1437.00      6261.14
 1032.54        2983.25           2616        1435.00      6252.42
 1032.57        2983.50           2619        1482.00      6457.39
 1032.60        2983.75           2623        1475.00      6426.86
 1032.63        2984.00           2626        1448.00      6309.11
HS scan finished at 17:12:51
end
