************************************************************
  HS Scan of (1) Internal mercury lamp
************************************************************
Integration time is 0.2294 seconds per sample
dh171118Reading 51.44 .94 2.96pr1000
************************************************************
Dead Time -------------------------  3.4E-08 
Number of Cycles Used -------------  4 
Starting Wavelength (Angstroms) ---  2950 
Final Wavelength (Angstoms) -------  2984 
Wavelength Increment (Angstroms) --  .25 
Filter Wheel #1 Position ---------- (1) Ground quartz diffuser (ND=2.32)
Filter Wheel #2 Position ---------- (1) Neutral Density 0.494



************************************************************
HS scan start time = 04:38:33
Dark Count =  .7 


Time (GMT)  Wavelength (Ang)  Step Number  Raw Counts  Counts/Second

  279.45        2950.00           2144        1562.00      6807.59
  279.65        2950.25           2147        1547.00      6742.17
  279.68        2950.50           2151        1532.00      6676.76
  279.71        2950.75           2155        1579.00      6881.73
  279.74        2951.00           2158        1547.00      6742.17
  279.77        2951.25           2162        1566.00      6825.04
  279.80        2951.50           2165        1566.00      6825.04
  279.83        2951.75           2169        1570.00      6842.48
  279.86        2952.00           2172        1560.00      6798.87
  279.89        2952.25           2176        1581.00      6890.45
  279.92        2952.50           2179        1590.00      6929.71
  279.95        2952.75           2183        1556.00      6781.42
  279.98        2953.00           2186        1589.00      6925.34
  280.02        2953.25           2190        1606.00      6999.49
  280.05        2953.50           2193        1582.00      6894.82
  280.08        2953.75           2197        1636.00      7130.33
  280.11        2954.00           2200        1586.00      6912.26
  280.14        2954.25           2204        1588.00      6920.98
  280.17        2954.50           2208        1639.00      7143.41
  280.20        2954.75           2211        1645.00      7169.58
  280.23        2955.00           2215        1630.00      7104.16
  280.26        2955.25           2218        1671.00      7282.97
  280.29        2955.50           2222        1679.00      7317.86
  280.32        2955.75           2225        1662.00      7243.72
  280.35        2956.00           2229        1657.00      7221.91
  280.38        2956.25           2232        1689.00      7361.48
  280.41        2956.50           2236        1683.00      7335.31
  280.44        2956.75           2239        1704.00      7426.90
  280.47        2957.00           2243        1741.00      7588.27
  280.50        2957.25           2246        1678.00      7313.50
  280.54        2957.50           2250        1736.00      7566.46
  280.57        2957.75           2254        1700.00      7409.45
  280.60        2958.00           2257        1787.00      7788.90
  280.63        2958.25           2261        1748.00      7618.80
  280.66        2958.50           2264        1810.00      7889.21
  280.69        2958.75           2268        1816.00      7915.38
  280.72        2959.00           2271        1829.00      7972.08
  280.75        2959.25           2275        1902.00      8290.48
  280.78        2959.50           2278        1906.00      8307.93
  280.81        2959.75           2282        1930.00      8412.61
  280.84        2960.00           2285        1913.00      8338.46
  280.87        2960.25           2289        1979.00      8626.33
  280.90        2960.50           2293        1982.00      8639.42
  280.93        2960.75           2296        1969.00      8582.71
  280.96        2961.00           2300        2114.00      9215.18
  280.99        2961.25           2303        2543.00     11086.57
  281.02        2961.50           2307        6734.00     29381.12
  281.06        2961.75           2310       16490.00     72056.45
  281.09        2962.00           2314       34890.00    152882.00
  281.12        2962.25           2317       51169.00    224763.90
  281.15        2962.50           2321       72235.00    318310.00
  281.18        2962.75           2324       87579.00    386825.40
  281.21        2963.00           2328      110364.00    489163.70
  281.24        2963.25           2331      128293.00    570199.40
  281.27        2963.50           2335      151894.00    677563.70
  281.30        2963.75           2339      175178.00    784268.80
  281.33        2964.00           2342      192814.00    865616.00
  281.36        2964.25           2346      213810.00    963060.90
  281.39        2964.50           2349      230066.00   1038961.00
  281.42        2964.75           2353      254444.00   1153535.00
  281.45        2965.00           2356      271945.00   1236353.00
  281.48        2965.25           2360      293525.00   1339135.00
  281.51        2965.50           2363      309812.00   1417197.00
  281.54        2965.75           2367      328950.00   1509470.00
  281.58        2966.00           2370      344730.00   1586002.00
  281.61        2966.25           2374      363609.00   1678106.00
  281.64        2966.50           2378      375430.00   1736080.00
  281.67        2966.75           2381      379854.00   1757838.00
  281.70        2967.00           2385      381964.00   1768227.00
  281.73        2967.25           2388      381493.00   1765907.00
  281.76        2967.50           2392      381694.00   1766897.00
  281.79        2967.75           2395      380484.00   1760939.00
  281.82        2968.00           2399      374764.00   1732808.00
  281.85        2968.25           2402      366529.00   1692405.00
  281.88        2968.50           2406      348556.00   1604620.00
  281.91        2968.75           2409      331941.00   1523945.00
  281.94        2969.00           2413      310164.00   1418889.00
  281.97        2969.25           2417      289816.00   1321417.00
  282.00        2969.50           2420      274862.00   1250204.00
  282.03        2969.75           2424      256192.00   1161785.00
  282.06        2970.00           2427      239678.00   1084028.00
  282.09        2970.25           2431      214272.00    965212.50
  282.13        2970.50           2434      196175.00    881170.80
  282.16        2970.75           2438      172464.00    771790.80
  282.19        2971.00           2441      155273.00    693000.30
  282.22        2971.25           2445      132998.00    591540.00
  282.25        2971.50           2449      111633.00    494884.70
  282.28        2971.75           2452       95547.00    422532.00
  282.31        2972.00           2456       74936.00    330347.50
  282.34        2972.25           2459       58517.00    257325.70
  282.37        2972.50           2463       35174.00    154133.00
  282.40        2972.75           2466       20012.00     87493.11
  282.43        2973.00           2470        6350.00     27703.94
  282.46        2973.25           2473        3153.00     13747.93
  282.49        2973.50           2477        2221.00      9681.91
  282.52        2973.75           2481        2092.00      9119.22
  282.55        2974.00           2484        2007.00      8748.46
  282.58        2974.25           2488        1950.00      8499.84
  282.61        2974.50           2491        1937.00      8443.14
  282.65        2974.75           2495        1905.00      8303.56
  282.68        2975.00           2498        1858.00      8098.57
  282.71        2975.25           2502        1860.00      8107.29
  282.74        2975.50           2505        1851.00      8068.04
  282.77        2975.75           2509        1816.00      7915.38
  282.80        2976.00           2512        1788.00      7793.26
  282.83        2976.25           2516        1749.00      7623.16
  282.86        2976.50           2520        1759.00      7666.78
  282.89        2976.75           2523        1741.00      7588.27
  282.92        2977.00           2527        1692.00      7374.56
  282.95        2977.25           2530        1684.00      7339.67
  282.98        2977.50           2534        1681.00      7326.59
  283.01        2977.75           2537        1679.00      7317.86
  283.04        2978.00           2541        1640.00      7147.77
  283.07        2978.25           2544        1633.00      7117.24
  283.10        2978.50           2548        1584.00      6903.54
  283.13        2978.75           2552        1588.00      6920.98
  283.17        2979.00           2555        1571.00      6846.84
  283.20        2979.25           2559        1563.00      6811.95
  283.23        2979.50           2562        1599.00      6968.96
  283.26        2979.75           2566        1561.00      6803.23
  283.29        2980.00           2569        1557.00      6785.79
  283.32        2980.25           2573        1568.00      6833.76
  283.35        2980.50           2577        1561.00      6803.23
  283.38        2980.75           2580        1578.00      6877.37
  283.41        2981.00           2584        1535.00      6689.84
  283.44        2981.25           2587        1545.00      6733.45
  283.47        2981.50           2591        1499.00      6532.84
  283.50        2981.75           2594        1490.00      6493.59
  283.53        2982.00           2598        1516.00      6606.98
  283.56        2982.25           2601        1495.00      6515.39
  283.59        2982.50           2605        1492.00      6502.31
  283.62        2982.75           2609        1504.00      6554.64
  283.65        2983.00           2612        1498.00      6528.48
  283.69        2983.25           2616        1492.00      6502.31
  283.72        2983.50           2619        1471.00      6410.73
  283.75        2983.75           2623        1484.00      6467.42
  283.78        2984.00           2626        1444.00      6292.98
HS scan finished at 04:44:00
end
************************************************************
  HS Scan of (1) Internal mercury lamp
************************************************************
Integration time is 0.2294 seconds per sample
dh171118Reading 51.44 .94 2.98pr1000
************************************************************
Dead Time -------------------------  3.4E-08 
Number of Cycles Used -------------  4 
Starting Wavelength (Angstroms) ---  2950 
Final Wavelength (Angstoms) -------  2984 
Wavelength Increment (Angstroms) --  .25 
Filter Wheel #1 Position ---------- (1) Ground quartz diffuser (ND=2.32)
Filter Wheel #2 Position ---------- (1) Neutral Density 0.494



************************************************************
HS scan start time = 17:07:23
Dark Count =  .5 


Time (GMT)  Wavelength (Ang)  Step Number  Raw Counts  Counts/Second

 1028.28        2950.00           2144        1305.00      5687.67
 1028.47        2950.25           2147        1329.00      5792.34
 1028.50        2950.50           2151        1324.00      5770.53
 1028.53        2950.75           2155        1359.00      5923.16
 1028.56        2951.00           2158        1319.00      5748.73
 1028.60        2951.25           2162        1296.00      5648.43
 1028.63        2951.50           2165        1301.00      5670.23
 1028.66        2951.75           2169        1325.00      5774.89
 1028.69        2952.00           2172        1319.00      5748.73
 1028.72        2952.25           2176        1305.00      5687.67
 1028.75        2952.50           2179        1321.00      5757.45
 1028.78        2952.75           2183        1327.00      5783.61
 1028.81        2953.00           2186        1328.00      5787.97
 1028.84        2953.25           2190        1354.00      5901.36
 1028.87        2953.50           2193        1379.00      6010.38
 1028.90        2953.75           2197        1362.00      5936.25
 1028.93        2954.00           2200        1363.00      5940.61
 1028.96        2954.25           2204        1402.00      6110.69
 1028.99        2954.50           2208        1399.00      6097.60
 1029.02        2954.75           2211        1374.00      5988.58
 1029.05        2955.00           2215        1377.00      6001.66
 1029.08        2955.25           2218        1363.00      5940.61
 1029.12        2955.50           2222        1401.00      6106.32
 1029.15        2955.75           2225        1393.00      6071.44
 1029.18        2956.00           2229        1408.00      6136.85
 1029.21        2956.25           2232        1449.00      6315.65
 1029.24        2956.50           2236        1431.00      6237.16
 1029.27        2956.75           2239        1444.00      6293.85
 1029.30        2957.00           2243        1421.00      6193.55
 1029.33        2957.25           2246        1475.00      6429.04
 1029.36        2957.50           2250        1454.00      6337.46
 1029.39        2957.75           2254        1473.00      6420.32
 1029.42        2958.00           2257        1475.00      6429.04
 1029.45        2958.25           2261        1480.00      6450.85
 1029.48        2958.50           2264        1495.00      6516.27
 1029.51        2958.75           2268        1519.00      6620.93
 1029.54        2959.00           2271        1526.00      6651.46
 1029.57        2959.25           2275        1549.00      6751.77
 1029.60        2959.50           2278        1540.00      6712.52
 1029.64        2959.75           2282        1590.00      6930.58
 1029.67        2960.00           2285        1594.00      6948.02
 1029.70        2960.25           2289        1639.00      7144.28
 1029.73        2960.50           2293        1668.00      7270.76
 1029.76        2960.75           2296        1683.00      7336.18
 1029.79        2961.00           2300        1745.00      7606.59
 1029.82        2961.25           2303        1887.00      8225.93
 1029.85        2961.50           2307        3446.00     15027.29
 1029.88        2961.75           2310        8624.00     37639.68
 1029.91        2962.00           2314       21222.00     92801.07
 1029.94        2962.25           2317       33633.00    147347.10
 1029.97        2962.50           2321       51292.00    225309.20
 1030.00        2962.75           2324       64780.00    285137.60
 1030.03        2963.00           2328       81737.00    360702.20
 1030.06        2963.25           2331       96052.00    424798.90
 1030.09        2963.50           2335      116087.00    514982.60
 1030.12        2963.75           2339      135102.00    601094.30
 1030.16        2964.00           2342      147812.00    658938.30
 1030.19        2964.25           2346      165790.00    741152.30
 1030.22        2964.50           2349      180194.00    807360.00
 1030.25        2964.75           2353      200347.00    900503.10
 1030.28        2965.00           2356      214583.00    966662.00
 1030.31        2965.25           2360      232484.00   1050285.00
 1030.34        2965.50           2363      243553.00   1102237.00
 1030.37        2965.75           2367      260320.00   1181289.00
 1030.40        2966.00           2370      274449.00   1248243.00
 1030.43        2966.25           2374      292899.00   1336144.00
 1030.46        2966.50           2378      307137.00   1404348.00
 1030.49        2966.75           2381      313525.00   1435054.00
 1030.52        2967.00           2385      316780.00   1450725.00
 1030.55        2967.25           2388      317252.00   1452999.00
 1030.58        2967.50           2392      317640.00   1454868.00
 1030.61        2967.75           2395      318145.00   1457302.00
 1030.64        2968.00           2399      316099.00   1447445.00
 1030.68        2968.25           2402      312308.00   1429199.00
 1030.71        2968.50           2406      299732.00   1368836.00
 1030.74        2968.75           2409      287886.00   1312207.00
 1030.77        2969.00           2413      270256.00   1228341.00
 1030.80        2969.25           2417      252840.00   1145969.00
 1030.83        2969.50           2420      239799.00   1084597.00
 1030.86        2969.75           2424      222192.00   1002148.00
 1030.89        2970.00           2427      206613.00    929585.80
 1030.92        2970.25           2431      185885.00    833602.00
 1030.95        2970.50           2434      170615.00    763296.60
 1030.98        2970.75           2438      152162.00    678788.30
 1031.01        2971.00           2441      138509.00    616577.10
 1031.04        2971.25           2445      118294.00    524951.20
 1031.07        2971.50           2449       99331.00    439520.60
 1031.10        2971.75           2452       84982.00    375207.30
 1031.13        2972.00           2456       65998.00    290552.30
 1031.17        2972.25           2459       51698.00    227106.50
 1031.20        2972.50           2463       32985.00    144494.10
 1031.23        2972.75           2466       20677.00     90410.46
 1031.26        2973.00           2470        7932.00     34615.70
 1031.29        2973.25           2473        3799.00     16567.74
 1031.32        2973.50           2477        1972.00      8596.67
 1031.35        2973.75           2481        1743.00      7597.86
 1031.38        2974.00           2484        1698.00      7401.60
 1031.41        2974.25           2488        1667.00      7266.40
 1031.44        2974.50           2491        1598.00      6965.47
 1031.47        2974.75           2495        1609.00      7013.44
 1031.50        2975.00           2498        1578.00      6878.24
 1031.53        2975.25           2502        1575.00      6865.16
 1031.56        2975.50           2505        1552.00      6764.85
 1031.59        2975.75           2509        1526.00      6651.46
 1031.62        2976.00           2512        1547.00      6743.05
 1031.65        2976.25           2516        1472.00      6415.96
 1031.68        2976.50           2520        1441.00      6280.77
 1031.72        2976.75           2523        1423.00      6202.27
 1031.75        2977.00           2527        1426.00      6215.35
 1031.78        2977.25           2530        1427.00      6219.71
 1031.81        2977.50           2534        1398.00      6093.24
 1031.84        2977.75           2537        1418.00      6180.46
 1031.87        2978.00           2541        1373.00      5984.22
 1031.90        2978.25           2544        1403.00      6115.05
 1031.93        2978.50           2548        1354.00      5901.36
 1031.96        2978.75           2552        1375.00      5992.94
 1031.99        2979.00           2555        1315.00      5731.28
 1032.02        2979.25           2559        1357.00      5914.44
 1032.05        2979.50           2562        1341.00      5844.67
 1032.08        2979.75           2566        1359.00      5923.16
 1032.11        2980.00           2569        1350.00      5883.91
 1032.14        2980.25           2573        1313.00      5722.56
 1032.17        2980.50           2577        1337.00      5827.22
 1032.20        2980.75           2580        1287.00      5609.18
 1032.24        2981.00           2584        1298.00      5657.15
 1032.27        2981.25           2587        1306.00      5692.03
 1032.30        2981.50           2591        1302.00      5674.59
 1032.33        2981.75           2594        1309.00      5705.12
 1032.36        2982.00           2598        1264.00      5508.88
 1032.39        2982.25           2601        1277.00      5565.57
 1032.42        2982.50           2605        1267.00      5521.96
 1032.45        2982.75           2609        1264.00      5508.88
 1032.48        2983.00           2612        1239.00      5399.86
 1032.51        2983.25           2616        1256.00      5473.99
 1032.54        2983.50           2619        1248.00      5439.11
 1032.57        2983.75           2623        1222.00      5325.72
 1032.61        2984.00           2626        1223.00      5330.09
HS scan finished at 17:12:50
end
