************************************************************
  HS Scan of (1) Internal mercury lamp
************************************************************
Integration time is 0.2294 seconds per sample
dh241118Reading 51.44 .94 2.96pr1000
************************************************************
Dead Time -------------------------  3.4E-08 
Number of Cycles Used -------------  4 
Starting Wavelength (Angstroms) ---  2950 
Final Wavelength (Angstoms) -------  2984 
Wavelength Increment (Angstroms) --  .25 
Filter Wheel #1 Position ---------- (1) Ground quartz diffuser (ND=2.32)
Filter Wheel #2 Position ---------- (1) Neutral Density 0.494



************************************************************
HS scan start time = 04:47:54
Dark Count =  .7 


Time (GMT)  Wavelength (Ang)  Step Number  Raw Counts  Counts/Second

  288.79        2950.00           2144        1562.00      6807.59
  288.99        2950.25           2147        1557.00      6785.79
  289.02        2950.50           2151        1594.00      6947.15
  289.05        2950.75           2155        1552.00      6763.98
  289.08        2951.00           2158        1538.00      6702.92
  289.11        2951.25           2162        1559.00      6794.51
  289.14        2951.50           2165        1620.00      7060.54
  289.17        2951.75           2169        1576.00      6868.65
  289.20        2952.00           2172        1592.00      6938.43
  289.23        2952.25           2176        1580.00      6886.09
  289.26        2952.50           2179        1565.00      6820.68
  289.29        2952.75           2183        1558.00      6790.15
  289.32        2953.00           2186        1571.00      6846.84
  289.35        2953.25           2190        1609.00      7012.57
  289.38        2953.50           2193        1624.00      7077.99
  289.41        2953.75           2197        1607.00      7003.85
  289.45        2954.00           2200        1658.00      7226.27
  289.48        2954.25           2204        1630.00      7104.16
  289.51        2954.50           2208        1615.00      7038.74
  289.54        2954.75           2211        1634.00      7121.60
  289.57        2955.00           2215        1633.00      7117.24
  289.60        2955.25           2218        1625.00      7082.35
  289.63        2955.50           2222        1652.00      7200.11
  289.66        2955.75           2225        1686.00      7348.39
  289.69        2956.00           2229        1691.00      7370.20
  289.72        2956.25           2232        1680.00      7322.22
  289.75        2956.50           2236        1669.00      7274.25
  289.78        2956.75           2239        1681.00      7326.59
  289.81        2957.00           2243        1716.00      7479.23
  289.84        2957.25           2246        1694.00      7383.28
  289.87        2957.50           2250        1727.00      7527.21
  289.90        2957.75           2254        1739.00      7579.55
  289.93        2958.00           2257        1785.00      7780.18
  289.97        2958.25           2261        1780.00      7758.37
  290.00        2958.50           2264        1804.00      7863.04
  290.03        2958.75           2268        1811.00      7893.58
  290.06        2959.00           2271        1828.00      7967.72
  290.09        2959.25           2275        1835.00      7998.25
  290.12        2959.50           2278        1877.00      8181.44
  290.15        2959.75           2282        1884.00      8211.97
  290.18        2960.00           2285        1921.00      8373.35
  290.21        2960.25           2289        2009.00      8757.18
  290.24        2960.50           2293        1992.00      8683.04
  290.27        2960.75           2296        2041.00      8896.76
  290.30        2961.00           2300        2091.00      9114.86
  290.33        2961.25           2303        2322.00     10122.49
  290.36        2961.50           2307        4776.00     20831.23
  290.39        2961.75           2310       11724.00     51193.22
  290.42        2962.00           2314       27568.00    120665.40
  290.45        2962.25           2317       41609.00    182507.80
  290.49        2962.50           2321       62534.00    275157.20
  290.52        2962.75           2324       78679.00    347045.20
  290.55        2963.00           2328      102776.00    455002.70
  290.58        2963.25           2331      120057.00    532918.30
  290.61        2963.50           2335      143735.00    640357.60
  290.64        2963.75           2339      166763.00    745614.30
  290.67        2964.00           2342      185052.00    829757.00
  290.70        2964.25           2346      207268.00    932628.30
  290.73        2964.50           2349      224077.00   1010951.00
  290.76        2964.75           2353      246783.00   1117431.00
  290.79        2965.00           2356      263868.00   1198072.00
  290.82        2965.25           2360      287224.00   1309048.00
  290.85        2965.50           2363      305793.00   1397895.00
  290.88        2965.75           2367      328543.00   1507501.00
  290.91        2966.00           2370      342729.00   1576275.00
  290.94        2966.25           2374      360796.00   1664345.00
  290.97        2966.50           2378      376038.00   1739068.00
  291.01        2966.75           2381      380811.00   1762549.00
  291.04        2967.00           2385      382710.00   1771901.00
  291.07        2967.25           2388      382489.00   1770813.00
  291.10        2967.50           2392      382307.00   1769916.00
  291.13        2967.75           2395      382579.00   1771256.00
  291.16        2968.00           2399      377913.00   1748288.00
  291.19        2968.25           2402      367600.00   1697653.00
  291.22        2968.50           2406      348535.00   1604518.00
  291.25        2968.75           2409      333188.00   1529984.00
  291.28        2969.00           2413      311911.00   1427288.00
  291.31        2969.25           2417      291109.00   1327592.00
  291.34        2969.50           2420      275890.00   1255088.00
  291.37        2969.75           2424      253941.00   1151162.00
  291.40        2970.00           2427      237946.00   1075896.00
  291.43        2970.25           2431      215284.00    969926.60
  291.46        2970.50           2434      197824.00    888808.50
  291.49        2970.75           2438      172972.00    774125.60
  291.53        2971.00           2441      156063.00    696611.70
  291.56        2971.25           2445      132829.00    590773.00
  291.59        2971.50           2449      110621.00    490322.20
  291.62        2971.75           2452       92915.00    410727.60
  291.65        2972.00           2456       69947.00    308120.80
  291.68        2972.25           2459       52512.00    230709.80
  291.71        2972.50           2463       31293.00    137046.40
  291.74        2972.75           2466       17779.00     77704.16
  291.77        2973.00           2470        6099.00     26607.76
  291.80        2973.25           2473        3246.00     14153.72
  291.83        2973.50           2477        2259.00      9847.67
  291.86        2973.75           2481        2042.00      8901.12
  291.89        2974.00           2484        2013.00      8774.63
  291.92        2974.25           2488        1964.00      8560.91
  291.95        2974.50           2491        1978.00      8621.97
  291.98        2974.75           2495        1915.00      8347.18
  292.02        2975.00           2498        1885.00      8216.33
  292.05        2975.25           2502        1890.00      8238.14
  292.08        2975.50           2505        1819.00      7928.47
  292.11        2975.75           2509        1836.00      8002.61
  292.14        2976.00           2512        1784.00      7775.81
  292.17        2976.25           2516        1807.00      7876.13
  292.20        2976.50           2520        1752.00      7636.25
  292.23        2976.75           2523        1774.00      7732.20
  292.26        2977.00           2527        1743.00      7596.99
  292.29        2977.25           2530        1740.00      7583.91
  292.32        2977.50           2534        1719.00      7492.32
  292.35        2977.75           2537        1734.00      7557.74
  292.38        2978.00           2541        1666.00      7261.16
  292.41        2978.25           2544        1703.00      7422.54
  292.44        2978.50           2548        1637.00      7134.69
  292.47        2978.75           2552        1631.00      7108.52
  292.50        2979.00           2555        1653.00      7204.47
  292.53        2979.25           2559        1612.00      7025.65
  292.57        2979.50           2562        1597.00      6960.23
  292.60        2979.75           2566        1624.00      7077.99
  292.63        2980.00           2569        1538.00      6702.92
  292.66        2980.25           2573        1600.00      6973.32
  292.69        2980.50           2577        1546.00      6737.81
  292.72        2980.75           2580        1549.00      6750.90
  292.75        2981.00           2584        1525.00      6646.23
  292.78        2981.25           2587        1532.00      6676.76
  292.81        2981.50           2591        1529.00      6663.67
  292.84        2981.75           2594        1502.00      6545.92
  292.87        2982.00           2598        1522.00      6633.14
  292.90        2982.25           2601        1527.00      6654.95
  292.93        2982.50           2605        1476.00      6432.53
  292.96        2982.75           2609        1514.00      6598.25
  292.99        2983.00           2612        1486.00      6476.14
  293.02        2983.25           2616        1453.00      6332.23
  293.05        2983.50           2619        1513.00      6593.89
  293.09        2983.75           2623        1464.00      6380.20
  293.12        2984.00           2626        1463.00      6375.84
HS scan finished at 04:53:20
end
************************************************************
  HS Scan of (1) Internal mercury lamp
************************************************************
Integration time is 0.2294 seconds per sample
dh241118Reading 51.44 .94 2.98pr1000
************************************************************
Dead Time -------------------------  3.4E-08 
Number of Cycles Used -------------  4 
Starting Wavelength (Angstroms) ---  2950 
Final Wavelength (Angstoms) -------  2984 
Wavelength Increment (Angstroms) --  .25 
Filter Wheel #1 Position ---------- (1) Ground quartz diffuser (ND=2.32)
Filter Wheel #2 Position ---------- (1) Neutral Density 0.494



************************************************************
HS scan start time = 17:07:24
Dark Count =  .9 


Time (GMT)  Wavelength (Ang)  Step Number  Raw Counts  Counts/Second

 1028.30        2950.00           2144        1351.00      5886.53
 1028.49        2950.25           2147        1328.00      5786.23
 1028.52        2950.50           2151        1338.00      5829.84
 1028.56        2950.75           2155        1323.00      5764.43
 1028.59        2951.00           2158        1311.00      5712.09
 1028.62        2951.25           2162        1314.00      5725.18
 1028.65        2951.50           2165        1371.00      5973.75
 1028.68        2951.75           2169        1400.00      6100.22
 1028.71        2952.00           2172        1378.00      6004.28
 1028.74        2952.25           2176        1325.00      5773.15
 1028.77        2952.50           2179        1344.00      5856.00
 1028.80        2952.75           2183        1377.00      5999.92
 1028.83        2953.00           2186        1346.00      5864.73
 1028.86        2953.25           2190        1374.00      5986.83
 1028.89        2953.50           2193        1368.00      5960.67
 1028.92        2953.75           2197        1368.00      5960.67
 1028.95        2954.00           2200        1373.00      5982.47
 1028.98        2954.25           2204        1383.00      6026.08
 1029.01        2954.50           2208        1416.00      6170.00
 1029.04        2954.75           2211        1398.00      6091.50
 1029.08        2955.00           2215        1396.00      6082.78
 1029.11        2955.25           2218        1401.00      6104.58
 1029.14        2955.50           2222        1431.00      6235.41
 1029.17        2955.75           2225        1436.00      6257.22
 1029.20        2956.00           2229        1432.00      6239.77
 1029.23        2956.25           2232        1419.00      6183.08
 1029.26        2956.50           2236        1436.00      6257.22
 1029.29        2956.75           2239        1494.00      6510.16
 1029.32        2957.00           2243        1451.00      6322.63
 1029.35        2957.25           2246        1480.00      6449.10
 1029.38        2957.50           2250        1508.00      6571.22
 1029.41        2957.75           2254        1460.00      6361.88
 1029.44        2958.00           2257        1511.00      6584.30
 1029.47        2958.25           2261        1517.00      6610.47
 1029.50        2958.50           2264        1559.00      6793.64
 1029.53        2958.75           2268        1549.00      6750.02
 1029.57        2959.00           2271        1581.00      6889.58
 1029.60        2959.25           2275        1571.00      6845.97
 1029.63        2959.50           2278        1608.00      7007.34
 1029.66        2959.75           2282        1598.00      6963.72
 1029.69        2960.00           2285        1642.00      7155.62
 1029.72        2960.25           2289        1676.00      7303.91
 1029.75        2960.50           2293        1704.00      7426.02
 1029.78        2960.75           2296        1766.00      7696.43
 1029.81        2961.00           2300        1764.00      7687.71
 1029.84        2961.25           2303        1933.00      8424.82
 1029.87        2961.50           2307        3891.00     16967.50
 1029.90        2961.75           2310       10101.00     44094.40
 1029.93        2962.00           2314       23592.00    103199.80
 1029.96        2962.25           2317       35426.00    155242.30
 1029.99        2962.50           2321       52420.00    230301.50
 1030.02        2962.75           2324       66079.00    290910.70
 1030.05        2963.00           2328       84680.00    373855.00
 1030.08        2963.25           2331      100591.00    445179.70
 1030.12        2963.50           2335      122072.00    542029.70
 1030.15        2963.75           2339      141349.00    629494.10
 1030.18        2964.00           2342      156053.00    696565.10
 1030.21        2964.25           2346      175598.00    786199.90
 1030.24        2964.50           2349      190165.00    853367.10
 1030.27        2964.75           2353      209801.00    944402.90
 1030.30        2965.00           2356      223002.00   1005929.00
 1030.33        2965.25           2360      241503.00   1092599.00
 1030.36        2965.50           2363      254824.00   1155327.00
 1030.39        2965.75           2367      270723.00   1230554.00
 1030.42        2966.00           2370      284009.00   1293720.00
 1030.45        2966.25           2374      300211.00   1371128.00
 1030.48        2966.50           2378      314896.00   1441650.00
 1030.51        2966.75           2381      321881.00   1475317.00
 1030.54        2967.00           2385      325200.00   1491342.00
 1030.57        2967.25           2388      325907.00   1494757.00
 1030.60        2967.50           2392      325901.00   1494728.00
 1030.64        2967.75           2395      325849.00   1494477.00
 1030.67        2968.00           2399      324321.00   1487096.00
 1030.70        2968.25           2402      318322.00   1458153.00
 1030.73        2968.50           2406      304342.00   1390931.00
 1030.76        2968.75           2409      292584.00   1334637.00
 1030.79        2969.00           2413      274254.00   1247315.00
 1030.82        2969.25           2417      256517.00   1163319.00
 1030.85        2969.50           2420      243889.00   1103815.00
 1030.88        2969.75           2424      224063.00   1010885.00
 1030.91        2970.00           2427      209351.00    942310.20
 1030.94        2970.25           2431      191312.00    858669.10
 1030.97        2970.50           2434      176474.00    790230.30
 1031.00        2970.75           2438      157164.00    701645.40
 1031.03        2971.00           2441      141341.00    629457.70
 1031.06        2971.25           2445      119965.00    532501.50
 1031.09        2971.50           2449      100779.00    446024.60
 1031.12        2971.75           2452       85856.00    379114.80
 1031.16        2972.00           2456       65008.00    286149.30
 1031.19        2972.25           2459       49791.00    218664.60
 1031.22        2972.50           2463       31619.00    138480.00
 1031.25        2972.75           2466       19860.00     86825.69
 1031.28        2973.00           2470        7787.00     33980.39
 1031.31        2973.25           2473        3588.00     15645.20
 1031.34        2973.50           2477        1953.00      8512.05
 1031.37        2973.75           2481        1814.00      7905.79
 1031.40        2974.00           2484        1779.00      7753.13
 1031.43        2974.25           2488        1706.00      7434.75
 1031.46        2974.50           2491        1669.00      7273.38
 1031.49        2974.75           2495        1600.00      6972.45
 1031.52        2975.00           2498        1617.00      7046.59
 1031.55        2975.25           2502        1584.00      6902.67
 1031.58        2975.50           2505        1578.00      6876.50
 1031.61        2975.75           2509        1552.00      6763.11
 1031.64        2976.00           2512        1536.00      6693.33
 1031.68        2976.25           2516        1510.00      6579.94
 1031.71        2976.50           2520        1526.00      6649.72
 1031.74        2976.75           2523        1471.00      6409.85
 1031.77        2977.00           2527        1506.00      6562.49
 1031.80        2977.25           2530        1489.00      6488.35
 1031.83        2977.50           2534        1459.00      6357.52
 1031.86        2977.75           2537        1438.00      6265.94
 1031.89        2978.00           2541        1398.00      6091.50
 1031.92        2978.25           2544        1418.00      6178.72
 1031.95        2978.50           2548        1388.00      6047.89
 1031.98        2978.75           2552        1372.00      5978.11
 1032.01        2979.00           2555        1367.00      5956.31
 1032.04        2979.25           2559        1362.00      5934.50
 1032.07        2979.50           2562        1359.00      5921.42
 1032.10        2979.75           2566        1352.00      5890.89
 1032.13        2980.00           2569        1337.00      5825.48
 1032.16        2980.25           2573        1352.00      5890.89
 1032.20        2980.50           2577        1330.00      5794.95
 1032.23        2980.75           2580        1319.00      5746.98
 1032.26        2981.00           2584        1308.00      5699.01
 1032.29        2981.25           2587        1290.00      5620.52
 1032.32        2981.50           2591        1356.00      5908.34
 1032.35        2981.75           2594        1309.00      5703.37
 1032.38        2982.00           2598        1288.00      5611.79
 1032.41        2982.25           2601        1307.00      5694.65
 1032.44        2982.50           2605        1280.00      5576.91
 1032.47        2982.75           2609        1267.00      5520.22
 1032.50        2983.00           2612        1311.00      5712.09
 1032.53        2983.25           2616        1271.00      5537.66
 1032.56        2983.50           2619        1281.00      5581.27
 1032.59        2983.75           2623        1252.00      5454.80
 1032.62        2984.00           2626        1262.00      5498.41
HS scan finished at 17:12:51
end
