************************************************************
  HS Scan of (1) Internal mercury lamp
************************************************************
Integration time is 0.2294 seconds per sample
dh251117Reading 51.44 .94 2.41pr1000
************************************************************
Dead Time -------------------------  3.4E-08 
Number of Cycles Used -------------  4 
Starting Wavelength (Angstroms) ---  2950 
Final Wavelength (Angstoms) -------  2984 
Wavelength Increment (Angstroms) --  .25 
Filter Wheel #1 Position ---------- (1) Ground quartz diffuser (ND=2.32)
Filter Wheel #2 Position ---------- (1) Neutral Density 0.494



************************************************************
HS scan start time = 04:52:29
Dark Count =  .2 


Time (GMT)  Wavelength (Ang)  Step Number  Raw Counts  Counts/Second

  293.37        2950.00           2144          90.00       391.46
  293.57        2950.25           2147          94.00       408.90
  293.60        2950.50           2151         115.00       500.44
  293.63        2950.75           2155          92.00       400.18
  293.66        2951.00           2158          78.00       339.15
  293.69        2951.25           2162          87.00       378.38
  293.72        2951.50           2165          89.00       387.10
  293.75        2951.75           2169          85.00       369.66
  293.78        2952.00           2172         106.00       461.21
  293.81        2952.25           2176          86.00       374.02
  293.84        2952.50           2179          84.00       365.31
  293.87        2952.75           2183          94.00       408.90
  293.90        2953.00           2186          91.00       395.82
  293.94        2953.25           2190          90.00       391.46
  293.97        2953.50           2193          86.00       374.02
  294.00        2953.75           2197          91.00       395.82
  294.03        2954.00           2200          92.00       400.18
  294.06        2954.25           2204          91.00       395.82
  294.09        2954.50           2208          96.00       417.62
  294.12        2954.75           2211         106.00       461.21
  294.15        2955.00           2215          98.00       426.34
  294.18        2955.25           2218          91.00       395.82
  294.21        2955.50           2222         126.00       548.40
  294.24        2955.75           2225         112.00       487.37
  294.27        2956.00           2229         103.00       448.13
  294.30        2956.25           2232          88.00       382.74
  294.33        2956.50           2236         115.00       500.44
  294.36        2956.75           2239         105.00       456.85
  294.39        2957.00           2243          99.00       430.70
  294.42        2957.25           2246         100.00       435.05
  294.46        2957.50           2250          99.00       430.70
  294.49        2957.75           2254         104.00       452.49
  294.52        2958.00           2257          98.00       426.34
  294.55        2958.25           2261         101.00       439.41
  294.58        2958.50           2264         112.00       487.37
  294.61        2958.75           2268         106.00       461.21
  294.64        2959.00           2271         111.00       483.01
  294.67        2959.25           2275         105.00       456.85
  294.70        2959.50           2278         103.00       448.13
  294.73        2959.75           2282         123.00       535.32
  294.76        2960.00           2285         124.00       539.68
  294.79        2960.25           2289         135.00       587.63
  294.82        2960.50           2293         151.00       657.38
  294.85        2960.75           2296         141.00       613.79
  294.88        2961.00           2300         155.00       674.82
  294.91        2961.25           2303         265.00      1154.36
  294.94        2961.50           2307         864.00      3765.96
  294.98        2961.75           2310        1637.00      7136.87
  295.01        2962.00           2314        2978.00     12986.55
  295.04        2962.25           2317        3924.00     17114.58
  295.07        2962.50           2321        5136.00     22405.03
  295.10        2962.75           2324        6156.00     26858.87
  295.13        2963.00           2328        7389.00     32244.58
  295.16        2963.25           2331        8464.00     36941.75
  295.19        2963.50           2335        9888.00     43166.19
  295.22        2963.75           2339       11270.00     49209.56
  295.25        2964.00           2342       12251.00     53500.90
  295.28        2964.25           2346       13664.00     59684.21
  295.31        2964.50           2349       14803.00     64670.38
  295.34        2964.75           2353       16207.00     70818.97
  295.37        2965.00           2356       17083.00     74656.58
  295.40        2965.25           2360       18463.00     80704.15
  295.45        2965.50           2363       19497.00     85237.08
  295.48        2965.75           2367       20942.00     91574.12
  295.51        2966.00           2370       21598.00     94451.92
  295.54        2966.25           2374       22657.00     99098.82
  295.57        2966.50           2378       23097.00    101030.00
  295.60        2966.75           2381       23140.00    101218.70
  295.63        2967.00           2385       23533.00    102943.80
  295.66        2967.25           2388       23399.00    102355.60
  295.69        2967.50           2392       23387.00    102302.90
  295.72        2967.75           2395       23053.00    100836.80
  295.75        2968.00           2399       22285.00     97466.31
  295.79        2968.25           2402       21456.00     93828.94
  295.82        2968.50           2406       20269.00     88622.34
  295.85        2968.75           2409       18959.00     82878.38
  295.88        2969.00           2413       17601.00     76926.31
  295.91        2969.25           2417       16416.00     71734.48
  295.94        2969.50           2420       15490.00     67678.66
  295.97        2969.75           2424       14036.00     61312.51
  296.00        2970.00           2427       13099.00     57211.44
  296.03        2970.25           2431       11832.00     51667.85
  296.06        2970.50           2434       10805.00     47175.87
  296.09        2970.75           2438        9285.00     40530.10
  296.12        2971.00           2441        8293.00     36194.47
  296.15        2971.25           2445        7018.00     30623.85
  296.18        2971.50           2449        5605.00     24452.75
  296.21        2971.75           2452        4563.00     19903.61
  296.24        2972.00           2456        3355.00     14631.51
  296.27        2972.25           2459        2376.00     10360.23
  296.31        2972.50           2463        1239.00      5401.17
  296.34        2972.75           2466         603.00      2627.96
  296.37        2973.00           2470         194.00       844.84
  296.40        2973.25           2473         146.00       635.58
  296.43        2973.50           2477         128.00       557.12
  296.46        2973.75           2481         167.00       727.13
  296.49        2974.00           2484         127.00       552.76
  296.52        2974.25           2488         124.00       539.68
  296.55        2974.50           2491         115.00       500.44
  296.58        2974.75           2495         115.00       500.44
  296.61        2975.00           2498         124.00       539.68
  296.64        2975.25           2502         131.00       570.19
  296.67        2975.50           2505         106.00       461.21
  296.70        2975.75           2509         127.00       552.76
  296.73        2976.00           2512         119.00       517.88
  296.76        2976.25           2516         106.00       461.21
  296.79        2976.50           2520         117.00       509.16
  296.83        2976.75           2523         105.00       456.85
  296.86        2977.00           2527         104.00       452.49
  296.89        2977.25           2530         101.00       439.41
  296.92        2977.50           2534         128.00       557.12
  296.95        2977.75           2537         105.00       456.85
  296.98        2978.00           2541         101.00       439.41
  297.01        2978.25           2544          90.00       391.46
  297.04        2978.50           2548          95.00       413.26
  297.07        2978.75           2552         100.00       435.05
  297.10        2979.00           2555          93.00       404.54
  297.13        2979.25           2559          96.00       417.62
  297.16        2979.50           2562          99.00       430.70
  297.19        2979.75           2566          94.00       408.90
  297.22        2980.00           2569          91.00       395.82
  297.25        2980.25           2573          96.00       417.62
  297.28        2980.50           2577          88.00       382.74
  297.31        2980.75           2580          93.00       404.54
  297.35        2981.00           2584          97.00       421.98
  297.38        2981.25           2587          93.00       404.54
  297.41        2981.50           2591          87.00       378.38
  297.44        2981.75           2594          95.00       413.26
  297.47        2982.00           2598          84.00       365.31
  297.50        2982.25           2601          82.00       356.59
  297.53        2982.50           2605          84.00       365.31
  297.56        2982.75           2609          83.00       360.95
  297.59        2983.00           2612          97.00       421.98
  297.62        2983.25           2616         110.00       478.65
  297.65        2983.50           2619          84.00       365.31
  297.68        2983.75           2623          83.00       360.95
  297.71        2984.00           2626          88.00       382.74
HS scan finished at 04:57:56
end
************************************************************
  HS Scan of (1) Internal mercury lamp
************************************************************
Integration time is 0.2294 seconds per sample
dh251117Reading 51.44 .94 2.64pr1000
************************************************************
Dead Time -------------------------  3.4E-08 
Number of Cycles Used -------------  4 
Starting Wavelength (Angstroms) ---  2950 
Final Wavelength (Angstoms) -------  2984 
Wavelength Increment (Angstroms) --  .25 
Filter Wheel #1 Position ---------- (1) Ground quartz diffuser (ND=2.32)
Filter Wheel #2 Position ---------- (1) Neutral Density 0.494



************************************************************
HS scan start time = 17:07:21
Dark Count =  .2 


Time (GMT)  Wavelength (Ang)  Step Number  Raw Counts  Counts/Second

 1028.24        2950.00           2144          78.00       339.15
 1028.44        2950.25           2147          82.00       356.59
 1028.47        2950.50           2151          87.00       378.38
 1028.50        2950.75           2155         108.00       469.93
 1028.53        2951.00           2158          88.00       382.74
 1028.56        2951.25           2162          86.00       374.02
 1028.59        2951.50           2165          84.00       365.31
 1028.62        2951.75           2169          83.00       360.95
 1028.65        2952.00           2172          76.00       330.43
 1028.68        2952.25           2176          92.00       400.18
 1028.71        2952.50           2179          91.00       395.82
 1028.74        2952.75           2183          90.00       391.46
 1028.77        2953.00           2186          88.00       382.74
 1028.80        2953.25           2190          85.00       369.66
 1028.84        2953.50           2193          86.00       374.02
 1028.87        2953.75           2197          87.00       378.38
 1028.90        2954.00           2200          86.00       374.02
 1028.93        2954.25           2204          77.00       334.79
 1028.96        2954.50           2208          93.00       404.54
 1028.99        2954.75           2211          97.00       421.98
 1029.02        2955.00           2215          78.00       339.15
 1029.05        2955.25           2218          91.00       395.82
 1029.08        2955.50           2222          94.00       408.90
 1029.11        2955.75           2225          93.00       404.54
 1029.14        2956.00           2229          92.00       400.18
 1029.17        2956.25           2232          88.00       382.74
 1029.20        2956.50           2236         116.00       504.80
 1029.23        2956.75           2239         132.00       574.55
 1029.26        2957.00           2243         101.00       439.41
 1029.29        2957.25           2246          94.00       408.90
 1029.32        2957.50           2250          98.00       426.34
 1029.35        2957.75           2254          94.00       408.90
 1029.39        2958.00           2257          86.00       374.02
 1029.42        2958.25           2261         103.00       448.13
 1029.45        2958.50           2264          93.00       404.54
 1029.48        2958.75           2268          96.00       417.62
 1029.51        2959.00           2271         117.00       509.16
 1029.54        2959.25           2275         106.00       461.21
 1029.57        2959.50           2278         107.00       465.57
 1029.60        2959.75           2282          99.00       430.70
 1029.63        2960.00           2285         135.00       587.63
 1029.66        2960.25           2289         140.00       609.43
 1029.69        2960.50           2293         106.00       461.21
 1029.72        2960.75           2296         116.00       504.80
 1029.75        2961.00           2300         161.00       700.98
 1029.78        2961.25           2303         240.00      1045.37
 1029.81        2961.50           2307         800.00      3486.90
 1029.84        2961.75           2310        1576.00      6870.83
 1029.87        2962.00           2314        2654.00     11572.99
 1029.91        2962.25           2317        3593.00     15670.07
 1029.94        2962.50           2321        4793.00     20907.62
 1029.97        2962.75           2324        5669.00     24732.21
 1030.00        2963.00           2328        7016.00     30615.11
 1030.03        2963.25           2331        7955.00     34717.51
 1030.06        2963.50           2335        9258.00     40412.07
 1030.09        2963.75           2339       10412.00     45457.30
 1030.12        2964.00           2342       11278.00     49244.55
 1030.15        2964.25           2346       12579.00     54936.00
 1030.18        2964.50           2349       13449.00     58743.19
 1030.21        2964.75           2353       14751.00     64442.70
 1030.24        2965.00           2356       15846.00     69237.78
 1030.27        2965.25           2360       16966.00     74143.96
 1030.30        2965.50           2363       17911.00     78284.82
 1030.33        2965.75           2367       19694.00     86100.87
 1030.36        2966.00           2370       20779.00     90859.16
 1030.39        2966.25           2374       21906.00     95803.28
 1030.43        2966.50           2378       22604.00     98866.22
 1030.46        2966.75           2381       22647.00     99054.93
 1030.49        2967.00           2385       22693.00     99256.81
 1030.52        2967.25           2388       22606.00     98875.00
 1030.55        2967.50           2392       22576.00     98743.34
 1030.58        2967.75           2395       22258.00     97347.84
 1030.61        2968.00           2399       21786.00     95276.76
 1030.64        2968.25           2402       20988.00     91775.91
 1030.67        2968.50           2406       19584.00     85618.54
 1030.70        2968.75           2409       18794.00     82155.06
 1030.73        2969.00           2413       17563.00     76759.79
 1030.76        2969.25           2417       16354.00     71462.88
 1030.79        2969.50           2420       15469.00     67586.70
 1030.82        2969.75           2424       13961.00     60984.21
 1030.85        2970.00           2427       12911.00     56388.74
 1030.88        2970.25           2431       11480.00     50128.08
 1030.91        2970.50           2434       10537.00     46003.90
 1030.95        2970.75           2438        9269.00     40460.16
 1030.98        2971.00           2441        8247.00     35993.45
 1031.01        2971.25           2445        6796.00     29654.12
 1031.04        2971.50           2449        5757.00     25116.47
 1031.07        2971.75           2452        4586.00     20004.01
 1031.10        2972.00           2456        3336.00     14548.61
 1031.13        2972.25           2459        2378.00     10368.96
 1031.16        2972.50           2463        1236.00      5388.08
 1031.19        2972.75           2466         553.00      2409.96
 1031.22        2973.00           2470         195.00       849.20
 1031.25        2973.25           2473         139.00       605.07
 1031.28        2973.50           2477         125.00       544.04
 1031.31        2973.75           2481         117.00       509.16
 1031.34        2974.00           2484         125.00       544.04
 1031.37        2974.25           2488         124.00       539.68
 1031.40        2974.50           2491         115.00       500.44
 1031.43        2974.75           2495         109.00       474.29
 1031.47        2975.00           2498         102.00       443.77
 1031.50        2975.25           2502         116.00       504.80
 1031.53        2975.50           2505         124.00       539.68
 1031.56        2975.75           2509         104.00       452.49
 1031.59        2976.00           2512         106.00       461.21
 1031.62        2976.25           2516         105.00       456.85
 1031.65        2976.50           2520          97.00       421.98
 1031.68        2976.75           2523         104.00       452.49
 1031.71        2977.00           2527         115.00       500.44
 1031.74        2977.25           2530          95.00       413.26
 1031.77        2977.50           2534          94.00       408.90
 1031.80        2977.75           2537          93.00       404.54
 1031.83        2978.00           2541          89.00       387.10
 1031.86        2978.25           2544         116.00       504.80
 1031.89        2978.50           2548          95.00       413.26
 1031.92        2978.75           2552         106.00       461.21
 1031.95        2979.00           2555          94.00       408.90
 1031.98        2979.25           2559          91.00       395.82
 1032.02        2979.50           2562         111.00       483.01
 1032.05        2979.75           2566          86.00       374.02
 1032.08        2980.00           2569          85.00       369.66
 1032.11        2980.25           2573          91.00       395.82
 1032.14        2980.50           2577          86.00       374.02
 1032.17        2980.75           2580          75.00       326.07
 1032.20        2981.00           2584          88.00       382.74
 1032.23        2981.25           2587          84.00       365.31
 1032.26        2981.50           2591          95.00       413.26
 1032.29        2981.75           2594          87.00       378.38
 1032.32        2982.00           2598          83.00       360.95
 1032.35        2982.25           2601          85.00       369.66
 1032.38        2982.50           2605          90.00       391.46
 1032.41        2982.75           2609          84.00       365.31
 1032.44        2983.00           2612          85.00       369.66
 1032.47        2983.25           2616          86.00       374.02
 1032.50        2983.50           2619          82.00       356.59
 1032.54        2983.75           2623          78.00       339.15
 1032.57        2984.00           2626          78.00       339.15
HS scan finished at 17:12:47
end
