************************************************************
  HS Scan of (1) Internal mercury lamp
************************************************************
Integration time is 0.2294 seconds per sample
dh181117Reading 51.44 .94 2.58pr1000
************************************************************
Dead Time -------------------------  3.4E-08 
Number of Cycles Used -------------  4 
Starting Wavelength (Angstroms) ---  2950 
Final Wavelength (Angstoms) -------  2984 
Wavelength Increment (Angstroms) --  .25 
Filter Wheel #1 Position ---------- (1) Ground quartz diffuser (ND=2.32)
Filter Wheel #2 Position ---------- (1) Neutral Density 0.494



************************************************************
HS scan start time = 04:40:13
Dark Count =  .4 


Time (GMT)  Wavelength (Ang)  Step Number  Raw Counts  Counts/Second

  281.12        2950.00           2144          83.00       360.07
  281.31        2950.25           2147          83.00       360.07
  281.34        2950.50           2151          83.00       360.07
  281.37        2950.75           2155          86.00       373.15
  281.40        2951.00           2158          82.00       355.71
  281.43        2951.25           2162          84.00       364.43
  281.46        2951.50           2165          94.00       408.03
  281.49        2951.75           2169          84.00       364.43
  281.52        2952.00           2172          81.00       351.36
  281.56        2952.25           2176          83.00       360.07
  281.59        2952.50           2179          92.00       399.31
  281.62        2952.75           2183          83.00       360.07
  281.65        2953.00           2186          96.00       416.75
  281.68        2953.25           2190          88.00       381.87
  281.71        2953.50           2193          85.00       368.79
  281.74        2953.75           2197          90.00       390.59
  281.77        2954.00           2200          80.00       347.00
  281.80        2954.25           2204          95.00       412.39
  281.83        2954.50           2208          92.00       399.31
  281.86        2954.75           2211          96.00       416.75
  281.89        2955.00           2215          90.00       390.59
  281.92        2955.25           2218          85.00       368.79
  281.95        2955.50           2222          91.00       394.95
  281.98        2955.75           2225          91.00       394.95
  282.01        2956.00           2229          92.00       399.31
  282.04        2956.25           2232          95.00       412.39
  282.08        2956.50           2236          95.00       412.39
  282.11        2956.75           2239         112.00       486.49
  282.14        2957.00           2243          98.00       425.46
  282.17        2957.25           2246          96.00       416.75
  282.20        2957.50           2250          91.00       394.95
  282.23        2957.75           2254          90.00       390.59
  282.26        2958.00           2257          92.00       399.31
  282.29        2958.25           2261          95.00       412.39
  282.32        2958.50           2264          93.00       403.67
  282.35        2958.75           2268         126.00       547.53
  282.38        2959.00           2271          97.00       421.10
  282.41        2959.25           2275         122.00       530.09
  282.44        2959.50           2278         101.00       438.54
  282.47        2959.75           2282         103.00       447.26
  282.50        2960.00           2285         104.00       451.62
  282.53        2960.25           2289         124.00       538.81
  282.56        2960.50           2293         126.00       547.53
  282.60        2960.75           2296         122.00       530.09
  282.63        2961.00           2300         164.00       713.18
  282.66        2961.25           2303         335.00      1458.66
  282.69        2961.50           2307        1039.00      4528.16
  282.72        2961.75           2310        1760.00      7672.45
  282.75        2962.00           2314        2952.00     12872.24
  282.78        2962.25           2317        3944.00     17200.99
  282.81        2962.50           2321        5274.00     23006.66
  282.84        2962.75           2324        6214.00     27111.29
  282.87        2963.00           2328        7494.00     32702.43
  282.90        2963.25           2331        8649.00     37749.38
  282.93        2963.50           2335        9922.00     43313.96
  282.96        2963.75           2339       11330.00     49471.12
  282.99        2964.00           2342       12236.00     53434.39
  283.02        2964.25           2346       13557.00     59215.00
  283.05        2964.50           2349       14645.00     63977.73
  283.08        2964.75           2353       15960.00     69736.21
  283.11        2965.00           2356       16628.00     72662.30
  283.15        2965.25           2360       17971.00     78546.90
  283.18        2965.50           2363       18954.00     82855.58
  283.21        2965.75           2367       20250.00     88538.14
  283.24        2966.00           2370       21104.00     92283.88
  283.27        2966.25           2374       22008.00     96249.96
  283.30        2966.50           2378       22596.00     98830.22
  283.33        2966.75           2381       22451.00     98193.89
  283.36        2967.00           2385       22750.00     99506.09
  283.39        2967.25           2388       22690.00     99242.77
  283.42        2967.50           2392       22366.00     97820.88
  283.45        2967.75           2395       22102.00     96662.41
  283.48        2968.00           2399       21254.00     92941.88
  283.51        2968.25           2402       20566.00     89924.04
  283.54        2968.50           2406       19559.00     85508.04
  283.57        2968.75           2409       18533.00     81010.10
  283.60        2969.00           2413       17223.00     75269.10
  283.64        2969.25           2417       16160.00     70612.23
  283.67        2969.50           2420       15052.00     65759.77
  283.70        2969.75           2424       14149.00     61806.29
  283.73        2970.00           2427       12794.00     55875.89
  283.76        2970.25           2431       11568.00     50512.14
  283.79        2970.50           2434       10728.00     46838.27
  283.82        2970.75           2438        9232.00     40297.54
  283.85        2971.00           2441        8157.00     35599.30
  283.88        2971.25           2445        6720.00     29321.29
  283.91        2971.50           2449        5323.00     23220.59
  283.94        2971.75           2452        4423.00     19291.64
  283.97        2972.00           2456        3196.00     13936.86
  284.00        2972.25           2459        2230.00      9722.48
  284.03        2972.50           2463        1083.00      4720.03
  284.06        2972.75           2466         480.00      2090.82
  284.09        2973.00           2470         169.00       734.98
  284.12        2973.25           2473         122.00       530.09
  284.15        2973.50           2477         110.00       477.78
  284.19        2973.75           2481         154.00       669.59
  284.22        2974.00           2484         101.00       438.54
  284.25        2974.25           2488         107.00       464.70
  284.28        2974.50           2491         153.00       665.23
  284.31        2974.75           2495         124.00       538.81
  284.34        2975.00           2498         102.00       442.90
  284.37        2975.25           2502         105.00       455.98
  284.40        2975.50           2505         117.00       508.29
  284.43        2975.75           2509          97.00       421.10
  284.46        2976.00           2512         138.00       599.84
  284.49        2976.25           2516         100.00       434.18
  284.52        2976.50           2520          92.00       399.31
  284.55        2976.75           2523          94.00       408.03
  284.58        2977.00           2527          91.00       394.95
  284.61        2977.25           2530          94.00       408.03
  284.64        2977.50           2534          92.00       399.31
  284.67        2977.75           2537          80.00       347.00
  284.71        2978.00           2541          93.00       403.67
  284.74        2978.25           2544          84.00       364.43
  284.77        2978.50           2548          91.00       394.95
  284.80        2978.75           2552          96.00       416.75
  284.83        2979.00           2555          86.00       373.15
  284.86        2979.25           2559          82.00       355.71
  284.89        2979.50           2562          88.00       381.87
  284.92        2979.75           2566          85.00       368.79
  284.95        2980.00           2569          89.00       386.23
  284.98        2980.25           2573          83.00       360.07
  285.01        2980.50           2577          82.00       355.71
  285.04        2980.75           2580          81.00       351.36
  285.07        2981.00           2584          90.00       390.59
  285.10        2981.25           2587          85.00       368.79
  285.13        2981.50           2591          81.00       351.36
  285.16        2981.75           2594          99.00       429.82
  285.20        2982.00           2598          77.00       333.92
  285.23        2982.25           2601          84.00       364.43
  285.26        2982.50           2605          77.00       333.92
  285.29        2982.75           2609          86.00       373.15
  285.32        2983.00           2612          80.00       347.00
  285.35        2983.25           2616          84.00       364.43
  285.38        2983.50           2619          75.00       325.20
  285.41        2983.75           2623          76.00       329.56
  285.44        2984.00           2626          79.00       342.64
HS scan finished at 04:45:40
end
************************************************************
  HS Scan of (1) Internal mercury lamp
************************************************************
Integration time is 0.2294 seconds per sample
dh181117Reading 51.44 .94 2.96pr1000
************************************************************
Dead Time -------------------------  3.4E-08 
Number of Cycles Used -------------  4 
Starting Wavelength (Angstroms) ---  2950 
Final Wavelength (Angstoms) -------  2984 
Wavelength Increment (Angstroms) --  .25 
Filter Wheel #1 Position ---------- (1) Ground quartz diffuser (ND=2.32)
Filter Wheel #2 Position ---------- (1) Neutral Density 0.494



************************************************************
HS scan start time = 17:07:23
Dark Count =  .6 


Time (GMT)  Wavelength (Ang)  Step Number  Raw Counts  Counts/Second

 1028.28        2950.00           2144          73.00       315.61
 1028.47        2950.25           2147          74.00       319.97
 1028.51        2950.50           2151          73.00       315.61
 1028.54        2950.75           2155          79.00       341.77
 1028.57        2951.00           2158          75.00       324.33
 1028.60        2951.25           2162          77.00       333.05
 1028.63        2951.50           2165          73.00       315.61
 1028.66        2951.75           2169          77.00       333.05
 1028.69        2952.00           2172          75.00       324.33
 1028.72        2952.25           2176          68.00       293.81
 1028.75        2952.50           2179          85.00       367.92
 1028.78        2952.75           2183          85.00       367.92
 1028.81        2953.00           2186          71.00       306.89
 1028.84        2953.25           2190          74.00       319.97
 1028.87        2953.50           2193          77.00       333.05
 1028.90        2953.75           2197          77.00       333.05
 1028.93        2954.00           2200          79.00       341.77
 1028.96        2954.25           2204          81.00       350.48
 1028.99        2954.50           2208          85.00       367.92
 1029.03        2954.75           2211          78.00       337.41
 1029.06        2955.00           2215          72.00       311.25
 1029.09        2955.25           2218          72.00       311.25
 1029.12        2955.50           2222         107.00       463.83
 1029.15        2955.75           2225          84.00       363.56
 1029.18        2956.00           2229          78.00       337.41
 1029.21        2956.25           2232          78.00       337.41
 1029.24        2956.50           2236          83.00       359.20
 1029.27        2956.75           2239          74.00       319.97
 1029.30        2957.00           2243          82.00       354.84
 1029.33        2957.25           2246          81.00       350.48
 1029.36        2957.50           2250          78.00       337.41
 1029.39        2957.75           2254          89.00       385.36
 1029.42        2958.00           2257          76.00       328.69
 1029.45        2958.25           2261          92.00       398.44
 1029.48        2958.50           2264          90.00       389.72
 1029.51        2958.75           2268          87.00       376.64
 1029.55        2959.00           2271          93.00       402.80
 1029.58        2959.25           2275          89.00       385.36
 1029.61        2959.50           2278          91.00       394.08
 1029.64        2959.75           2282          86.00       372.28
 1029.67        2960.00           2285          91.00       394.08
 1029.70        2960.25           2289          98.00       424.59
 1029.73        2960.50           2293         103.00       446.39
 1029.76        2960.75           2296          98.00       424.59
 1029.79        2961.00           2300         115.00       498.70
 1029.82        2961.25           2303         197.00       856.17
 1029.85        2961.50           2307         643.00      2800.62
 1029.88        2961.75           2310        1375.00      5992.50
 1029.91        2962.00           2314        2596.00     11318.22
 1029.94        2962.25           2317        3515.00     15327.95
 1029.97        2962.50           2321        4673.00     20382.04
 1030.00        2962.75           2324        5436.00     23713.10
 1030.03        2963.00           2328        6591.00     28756.96
 1030.07        2963.25           2331        7598.00     33155.93
 1030.10        2963.50           2335        8951.00     39068.43
 1030.13        2963.75           2339       10255.00     44769.05
 1030.16        2964.00           2342       10895.00     47567.72
 1030.19        2964.25           2346       12461.00     54417.94
 1030.22        2964.50           2349       13253.00     57883.64
 1030.25        2964.75           2353       14318.00     62545.25
 1030.28        2965.00           2356       15368.00     67142.65
 1030.31        2965.25           2360       16198.00     70777.79
 1030.34        2965.50           2363       16945.00     74050.21
 1030.37        2965.75           2367       17848.00     78006.97
 1030.40        2966.00           2370       18763.00     82017.41
 1030.43        2966.25           2374       19390.00     84766.18
 1030.46        2966.50           2378       20322.00     88853.02
 1030.49        2966.75           2381       20644.00     90265.27
 1030.52        2967.00           2385       20759.00     90769.68
 1030.55        2967.25           2388       21111.00     92313.69
 1030.59        2967.50           2392       21173.00     92585.68
 1030.62        2967.75           2395       20759.00     90769.68
 1030.65        2968.00           2399       19889.00     86954.18
 1030.68        2968.25           2402       19026.00     83170.35
 1030.71        2968.50           2406       17652.00     77148.05
 1030.74        2968.75           2409       17156.00     74974.66
 1030.77        2969.00           2413       16045.00     70107.63
 1030.80        2969.25           2417       14862.00     64926.96
 1030.83        2969.50           2420       14042.00     61337.03
 1030.86        2969.75           2424       12825.00     56010.67
 1030.89        2970.00           2427       12073.00     52720.40
 1030.92        2970.25           2431       10880.00     47502.12
 1030.95        2970.50           2434        9981.00     43571.04
 1030.98        2970.75           2438        8629.00     37661.10
 1031.01        2971.00           2441        7790.00     33994.81
 1031.04        2971.25           2445        6661.00     29062.71
 1031.07        2971.50           2449        5511.00     24040.57
 1031.10        2971.75           2452        4627.00     20181.24
 1031.14        2972.00           2456        3407.00     14856.67
 1031.17        2972.25           2459        2532.00     11039.02
 1031.20        2972.50           2463        1369.00      5966.34
 1031.23        2972.75           2466         651.00      2835.50
 1031.26        2973.00           2470         193.00       838.73
 1031.29        2973.25           2473         162.00       703.59
 1031.32        2973.50           2477         116.00       503.06
 1031.35        2973.75           2481         101.00       437.67
 1031.38        2974.00           2484         100.00       433.31
 1031.41        2974.25           2488         100.00       433.31
 1031.44        2974.50           2491         124.00       537.93
 1031.47        2974.75           2495          88.00       381.00
 1031.50        2975.00           2498          89.00       385.36
 1031.53        2975.25           2502         101.00       437.67
 1031.56        2975.50           2505         115.00       498.70
 1031.59        2975.75           2509          95.00       411.51
 1031.63        2976.00           2512          88.00       381.00
 1031.66        2976.25           2516          90.00       389.72
 1031.69        2976.50           2520          84.00       363.56
 1031.72        2976.75           2523          93.00       402.80
 1031.75        2977.00           2527          84.00       363.56
 1031.78        2977.25           2530          80.00       346.12
 1031.81        2977.50           2534          76.00       328.69
 1031.84        2977.75           2537          81.00       350.48
 1031.87        2978.00           2541          82.00       354.84
 1031.90        2978.25           2544          79.00       341.77
 1031.93        2978.50           2548          75.00       324.33
 1031.96        2978.75           2552          79.00       341.77
 1031.99        2979.00           2555          80.00       346.12
 1032.02        2979.25           2559          83.00       359.20
 1032.05        2979.50           2562          83.00       359.20
 1032.08        2979.75           2566          78.00       337.41
 1032.11        2980.00           2569          80.00       346.12
 1032.15        2980.25           2573          71.00       306.89
 1032.18        2980.50           2577          82.00       354.84
 1032.21        2980.75           2580          78.00       337.41
 1032.24        2981.00           2584          74.00       319.97
 1032.27        2981.25           2587          77.00       333.05
 1032.30        2981.50           2591          75.00       324.33
 1032.33        2981.75           2594          73.00       315.61
 1032.36        2982.00           2598          79.00       341.77
 1032.39        2982.25           2601          70.00       302.53
 1032.42        2982.50           2605          86.00       372.28
 1032.45        2982.75           2609          70.00       302.53
 1032.48        2983.00           2612          70.00       302.53
 1032.51        2983.25           2616          77.00       333.05
 1032.54        2983.50           2619          78.00       337.41
 1032.57        2983.75           2623          75.00       324.33
 1032.60        2984.00           2626          84.00       363.56
HS scan finished at 17:12:50
end
