************************************************************
  HS Scan of (1) Internal mercury lamp
************************************************************
Integration time is 0.2294 seconds per sample
dh241117Reading 51.44 .94 2.76pr1000
************************************************************
Dead Time -------------------------  3.4E-08 
Number of Cycles Used -------------  4 
Starting Wavelength (Angstroms) ---  2950 
Final Wavelength (Angstoms) -------  2984 
Wavelength Increment (Angstroms) --  .25 
Filter Wheel #1 Position ---------- (1) Ground quartz diffuser (ND=2.32)
Filter Wheel #2 Position ---------- (1) Neutral Density 0.494



************************************************************
HS scan start time = 04:48:13
Dark Count =  .5 


Time (GMT)  Wavelength (Ang)  Step Number  Raw Counts  Counts/Second

  289.11        2950.00           2144          80.00       346.56
  289.30        2950.25           2147          84.00       364.00
  289.33        2950.50           2151          82.00       355.28
  289.36        2950.75           2155          79.00       342.20
  289.39        2951.00           2158          82.00       355.28
  289.42        2951.25           2162          77.00       333.48
  289.45        2951.50           2165          80.00       346.56
  289.48        2951.75           2169          69.00       298.61
  289.51        2952.00           2172          74.00       320.40
  289.54        2952.25           2176          85.00       368.36
  289.58        2952.50           2179          79.00       342.20
  289.61        2952.75           2183          81.00       350.92
  289.64        2953.00           2186          79.00       342.20
  289.67        2953.25           2190          83.00       359.64
  289.70        2953.50           2193          81.00       350.92
  289.73        2953.75           2197          89.00       385.79
  289.76        2954.00           2200          80.00       346.56
  289.79        2954.25           2204          87.00       377.08
  289.82        2954.50           2208          88.00       381.43
  289.85        2954.75           2211          86.00       372.72
  289.88        2955.00           2215          81.00       350.92
  289.91        2955.25           2218          82.00       355.28
  289.94        2955.50           2222          86.00       372.72
  289.97        2955.75           2225          93.00       403.23
  290.00        2956.00           2229          88.00       381.43
  290.03        2956.25           2232          85.00       368.36
  290.06        2956.50           2236          89.00       385.79
  290.09        2956.75           2239          84.00       364.00
  290.13        2957.00           2243          89.00       385.79
  290.16        2957.25           2246          95.00       411.95
  290.19        2957.50           2250          91.00       394.51
  290.22        2957.75           2254          98.00       425.03
  290.25        2958.00           2257          88.00       381.43
  290.28        2958.25           2261          96.00       416.31
  290.31        2958.50           2264          94.00       407.59
  290.34        2958.75           2268          83.00       359.64
  290.37        2959.00           2271          94.00       407.59
  290.40        2959.25           2275          93.00       403.23
  290.43        2959.50           2278          99.00       429.39
  290.46        2959.75           2282         102.00       442.47
  290.49        2960.00           2285         115.00       499.14
  290.52        2960.25           2289         108.00       468.62
  290.55        2960.50           2293         123.00       534.01
  290.58        2960.75           2296         101.00       438.11
  290.61        2961.00           2300         152.00       660.43
  290.65        2961.25           2303         325.00      1414.63
  290.68        2961.50           2307        1004.00      4375.11
  290.71        2961.75           2310        1820.00      7933.70
  290.74        2962.00           2314        2915.00     12710.38
  290.77        2962.25           2317        3849.00     16785.95
  290.80        2962.50           2321        5119.00     22329.50
  290.83        2962.75           2324        5990.00     26132.63
  290.86        2963.00           2328        7433.00     32435.49
  290.89        2963.25           2331        8467.00     36953.55
  290.92        2963.50           2335        9682.00     42264.27
  290.95        2963.75           2339       10871.00     47463.19
  290.98        2964.00           2342       11991.00     52362.11
  291.01        2964.25           2346       13467.00     58820.66
  291.04        2964.50           2349       14308.00     62501.90
  291.07        2964.75           2353       15464.00     67563.49
  291.10        2965.00           2356       16408.00     71698.11
  291.14        2965.25           2360       17357.00     75855.81
  291.17        2965.50           2363       18206.00     79576.40
  291.20        2965.75           2367       19561.00     85516.38
  291.23        2966.00           2370       20607.00     90103.42
  291.26        2966.25           2374       21608.00     94494.48
  291.29        2966.50           2378       22025.00     96324.10
  291.32        2966.75           2381       22252.00     97320.19
  291.35        2967.00           2385       22434.00     98118.84
  291.38        2967.25           2388       22160.00     96916.47
  291.41        2967.50           2392       22050.00     96433.81
  291.44        2967.75           2395       21878.00     95679.09
  291.47        2968.00           2399       21177.00     92603.66
  291.50        2968.25           2402       20844.00     91142.94
  291.53        2968.50           2406       19365.00     84657.01
  291.56        2968.75           2409       18689.00     81693.47
  291.59        2969.00           2413       17391.00     76004.79
  291.62        2969.25           2417       15988.00     69858.41
  291.65        2969.50           2420       15003.00     65544.78
  291.69        2969.75           2424       13537.00     59127.03
  291.72        2970.00           2427       12585.00     54960.94
  291.75        2970.25           2431       11150.00     48683.40
  291.78        2970.50           2434       10198.00     44520.26
  291.81        2970.75           2438        8724.00     38076.73
  291.84        2971.00           2441        7810.00     34082.63
  291.87        2971.25           2445        6419.00     28006.17
  291.90        2971.50           2449        5199.00     22678.77
  291.93        2971.75           2452        4196.00     18300.40
  291.96        2972.00           2456        2978.00     12985.24
  291.99        2972.25           2459        2052.00      8945.62
  292.02        2972.50           2463        1032.00      4497.20
  292.05        2972.75           2466         526.00      2290.94
  292.08        2973.00           2470         195.00       847.89
  292.11        2973.25           2473         159.00       690.95
  292.14        2973.50           2477         120.00       520.93
  292.17        2973.75           2481         133.00       577.61
  292.21        2974.00           2484         108.00       468.62
  292.24        2974.25           2488         106.00       459.90
  292.27        2974.50           2491         118.00       512.21
  292.30        2974.75           2495         144.00       625.56
  292.33        2975.00           2498         103.00       446.82
  292.36        2975.25           2502          96.00       416.31
  292.39        2975.50           2505         100.00       433.75
  292.42        2975.75           2509          93.00       403.23
  292.45        2976.00           2512          88.00       381.43
  292.48        2976.25           2516          93.00       403.23
  292.51        2976.50           2520          88.00       381.43
  292.54        2976.75           2523          91.00       394.51
  292.57        2977.00           2527          82.00       355.28
  292.60        2977.25           2530          84.00       364.00
  292.63        2977.50           2534          89.00       385.79
  292.66        2977.75           2537          80.00       346.56
  292.69        2978.00           2541          88.00       381.43
  292.73        2978.25           2544          84.00       364.00
  292.76        2978.50           2548         101.00       438.11
  292.79        2978.75           2552          87.00       377.08
  292.82        2979.00           2555          81.00       350.92
  292.85        2979.25           2559          81.00       350.92
  292.88        2979.50           2562          84.00       364.00
  292.91        2979.75           2566         107.00       464.26
  292.94        2980.00           2569          72.00       311.69
  292.97        2980.25           2573          85.00       368.36
  293.00        2980.50           2577          71.00       307.33
  293.03        2980.75           2580          89.00       385.79
  293.06        2981.00           2584          91.00       394.51
  293.09        2981.25           2587          90.00       390.15
  293.12        2981.50           2591          83.00       359.64
  293.15        2981.75           2594          75.00       324.76
  293.18        2982.00           2598          82.00       355.28
  293.21        2982.25           2601          72.00       311.69
  293.25        2982.50           2605          78.00       337.84
  293.28        2982.75           2609          79.00       342.20
  293.31        2983.00           2612          84.00       364.00
  293.34        2983.25           2616          79.00       342.20
  293.37        2983.50           2619          81.00       350.92
  293.40        2983.75           2623          72.00       311.69
  293.43        2984.00           2626          73.00       316.05
HS scan finished at 04:53:39
end
************************************************************
  HS Scan of (1) Internal mercury lamp
************************************************************
Integration time is 0.2294 seconds per sample
dh241117Reading 51.44 .94 2.8pr1000
************************************************************
Dead Time -------------------------  3.4E-08 
Number of Cycles Used -------------  4 
Starting Wavelength (Angstroms) ---  2950 
Final Wavelength (Angstoms) -------  2984 
Wavelength Increment (Angstroms) --  .25 
Filter Wheel #1 Position ---------- (1) Ground quartz diffuser (ND=2.32)
Filter Wheel #2 Position ---------- (1) Neutral Density 0.494



************************************************************
HS scan start time = 17:07:24
Dark Count =  .6 


Time (GMT)  Wavelength (Ang)  Step Number  Raw Counts  Counts/Second

 1028.30        2950.00           2144          89.00       385.36
 1028.49        2950.25           2147          86.00       372.28
 1028.52        2950.50           2151          81.00       350.48
 1028.55        2950.75           2155          75.00       324.33
 1028.58        2951.00           2158          79.00       341.77
 1028.61        2951.25           2162          83.00       359.20
 1028.65        2951.50           2165          77.00       333.05
 1028.68        2951.75           2169          80.00       346.12
 1028.71        2952.00           2172          84.00       363.56
 1028.74        2952.25           2176          80.00       346.12
 1028.77        2952.50           2179          87.00       376.64
 1028.80        2952.75           2183          98.00       424.59
 1028.83        2953.00           2186          86.00       372.28
 1028.86        2953.25           2190          87.00       376.64
 1028.89        2953.50           2193          86.00       372.28
 1028.92        2953.75           2197          85.00       367.92
 1028.95        2954.00           2200          89.00       385.36
 1028.98        2954.25           2204          81.00       350.48
 1029.01        2954.50           2208          89.00       385.36
 1029.04        2954.75           2211          92.00       398.44
 1029.07        2955.00           2215          93.00       402.80
 1029.10        2955.25           2218          87.00       376.64
 1029.13        2955.50           2222          86.00       372.28
 1029.16        2955.75           2225         118.00       511.78
 1029.20        2956.00           2229          96.00       415.87
 1029.23        2956.25           2232          84.00       363.56
 1029.26        2956.50           2236          92.00       398.44
 1029.29        2956.75           2239          89.00       385.36
 1029.32        2957.00           2243         110.00       476.90
 1029.35        2957.25           2246          91.00       394.08
 1029.38        2957.50           2250         119.00       516.14
 1029.41        2957.75           2254          96.00       415.87
 1029.44        2958.00           2257          93.00       402.80
 1029.47        2958.25           2261          94.00       407.15
 1029.50        2958.50           2264         100.00       433.31
 1029.53        2958.75           2268         109.00       472.54
 1029.56        2959.00           2271          97.00       420.23
 1029.59        2959.25           2275         109.00       472.54
 1029.62        2959.50           2278          94.00       407.15
 1029.65        2959.75           2282         119.00       516.14
 1029.68        2960.00           2285         103.00       446.39
 1029.72        2960.25           2289         104.00       450.75
 1029.75        2960.50           2293         110.00       476.90
 1029.78        2960.75           2296         110.00       476.90
 1029.81        2961.00           2300         136.00       590.25
 1029.84        2961.25           2303         217.00       943.36
 1029.87        2961.50           2307         773.00      3367.43
 1029.90        2961.75           2310        1512.00      6589.97
 1029.93        2962.00           2314        2634.00     11484.00
 1029.96        2962.25           2317        3620.00     15786.15
 1029.99        2962.50           2321        4814.00     20997.55
 1030.02        2962.75           2324        5892.00     25704.23
 1030.05        2963.00           2328        7278.00     31757.90
 1030.08        2963.25           2331        8361.00     36489.88
 1030.11        2963.50           2335        9711.00     42390.61
 1030.14        2963.75           2339       11038.00     48193.12
 1030.17        2964.00           2342       11993.00     52370.42
 1030.20        2964.25           2346       13442.00     58710.81
 1030.24        2964.50           2349       14476.00     63236.95
 1030.27        2964.75           2353       15850.00     69253.55
 1030.30        2965.00           2356       16972.00     74168.49
 1030.33        2965.25           2360       18333.00     80132.59
 1030.36        2965.50           2363       19281.00     84288.30
 1030.39        2965.75           2367       20542.00     89817.90
 1030.42        2966.00           2370       21103.00     92278.60
 1030.45        2966.25           2374       22577.00     98745.97
 1030.48        2966.50           2378       22797.00     99711.49
 1030.51        2966.75           2381       22981.00    100519.10
 1030.54        2967.00           2385       23284.00    101849.00
 1030.57        2967.25           2388       23270.00    101787.60
 1030.60        2967.50           2392       22976.00    100497.10
 1030.63        2967.75           2395       22833.00     99869.49
 1030.66        2968.00           2399       22112.00     96705.42
 1030.69        2968.25           2402       21135.00     92418.99
 1030.72        2968.50           2406       19932.00     87142.72
 1030.76        2968.75           2409       19003.00     83069.52
 1030.79        2969.00           2413       17938.00     78401.40
 1030.82        2969.25           2417       16524.00     72205.82
 1030.85        2969.50           2420       15696.00     68579.08
 1030.88        2969.75           2424       14202.00     62037.44
 1030.91        2970.00           2427       13259.00     57909.90
 1030.94        2970.25           2431       11636.00     50808.71
 1030.97        2970.50           2434       10586.00     46216.42
 1031.00        2970.75           2438        9296.00     40576.43
 1031.03        2971.00           2441        8500.00     37097.33
 1031.06        2971.25           2445        7314.00     31915.18
 1031.09        2971.50           2449        6122.00     26708.64
 1031.12        2971.75           2452        5156.00     22490.60
 1031.15        2972.00           2456        3819.00     16654.59
 1031.18        2972.25           2459        2839.00     12378.36
 1031.21        2972.50           2463        1474.00      6424.25
 1031.24        2972.75           2466         744.00      3240.98
 1031.28        2973.00           2470         263.00      1143.90
 1031.31        2973.25           2473         162.00       703.59
 1031.34        2973.50           2477         114.00       494.34
 1031.37        2973.75           2481         140.00       607.68
 1031.40        2974.00           2484         123.00       533.58
 1031.43        2974.25           2488         105.00       455.11
 1031.46        2974.50           2491          97.00       420.23
 1031.49        2974.75           2495         106.00       459.47
 1031.52        2975.00           2498         124.00       537.93
 1031.55        2975.25           2502         123.00       533.58
 1031.58        2975.50           2505          97.00       420.23
 1031.61        2975.75           2509         102.00       442.03
 1031.64        2976.00           2512          96.00       415.87
 1031.67        2976.25           2516          89.00       385.36
 1031.70        2976.50           2520          92.00       398.44
 1031.73        2976.75           2523         100.00       433.31
 1031.76        2977.00           2527          94.00       407.15
 1031.80        2977.25           2530          93.00       402.80
 1031.83        2977.50           2534         100.00       433.31
 1031.86        2977.75           2537          89.00       385.36
 1031.89        2978.00           2541          91.00       394.08
 1031.92        2978.25           2544          89.00       385.36
 1031.95        2978.50           2548          94.00       407.15
 1031.98        2978.75           2552          91.00       394.08
 1032.01        2979.00           2555          87.00       376.64
 1032.04        2979.25           2559          86.00       372.28
 1032.07        2979.50           2562          88.00       381.00
 1032.10        2979.75           2566          93.00       402.80
 1032.13        2980.00           2569          85.00       367.92
 1032.16        2980.25           2573          86.00       372.28
 1032.19        2980.50           2577          84.00       363.56
 1032.22        2980.75           2580          87.00       376.64
 1032.25        2981.00           2584          80.00       346.12
 1032.28        2981.25           2587          87.00       376.64
 1032.32        2981.50           2591          79.00       341.77
 1032.35        2981.75           2594          84.00       363.56
 1032.38        2982.00           2598          73.00       315.61
 1032.41        2982.25           2601          72.00       311.25
 1032.44        2982.50           2605          80.00       346.12
 1032.47        2982.75           2609          83.00       359.20
 1032.50        2983.00           2612          78.00       337.41
 1032.53        2983.25           2616          76.00       328.69
 1032.56        2983.50           2619          74.00       319.97
 1032.59        2983.75           2623          72.00       311.25
 1032.62        2984.00           2626          79.00       341.77
HS scan finished at 17:12:51
end
