************************************************************
  HS Scan of (1) Internal mercury lamp
************************************************************
Integration time is 0.2294 seconds per sample
dh231117Reading 51.44 .94 3.09pr1000
************************************************************
Dead Time -------------------------  3.4E-08 
Number of Cycles Used -------------  4 
Starting Wavelength (Angstroms) ---  2950 
Final Wavelength (Angstoms) -------  2984 
Wavelength Increment (Angstroms) --  .25 
Filter Wheel #1 Position ---------- (1) Ground quartz diffuser (ND=2.32)
Filter Wheel #2 Position ---------- (1) Neutral Density 0.494



************************************************************
HS scan start time = 04:46:55
Dark Count =  .9 


Time (GMT)  Wavelength (Ang)  Step Number  Raw Counts  Counts/Second

  287.82        2950.00           2144         103.00       445.08
  288.01        2950.25           2147          97.00       418.92
  288.04        2950.50           2151         100.00       432.00
  288.07        2950.75           2155          93.00       401.49
  288.10        2951.00           2158          94.00       405.85
  288.14        2951.25           2162          99.00       427.64
  288.17        2951.50           2165         115.00       497.39
  288.20        2951.75           2169          99.00       427.64
  288.23        2952.00           2172          99.00       427.64
  288.26        2952.25           2176         103.00       445.08
  288.29        2952.50           2179         112.00       484.31
  288.32        2952.75           2183         130.00       562.78
  288.35        2953.00           2186          99.00       427.64
  288.38        2953.25           2190         142.00       615.10
  288.41        2953.50           2193         127.00       549.71
  288.44        2953.75           2197         103.00       445.08
  288.47        2954.00           2200         115.00       497.39
  288.50        2954.25           2204         113.00       488.67
  288.53        2954.50           2208         103.00       445.08
  288.56        2954.75           2211         104.00       449.44
  288.59        2955.00           2215         110.00       475.60
  288.62        2955.25           2218         110.00       475.60
  288.66        2955.50           2222         110.00       475.60
  288.69        2955.75           2225         123.00       532.27
  288.72        2956.00           2229         145.00       628.17
  288.75        2956.25           2232         113.00       488.67
  288.78        2956.50           2236         129.00       558.42
  288.81        2956.75           2239         112.00       484.31
  288.84        2957.00           2243         108.00       466.88
  288.87        2957.25           2246         132.00       571.50
  288.90        2957.50           2250         126.00       545.35
  288.93        2957.75           2254         133.00       575.86
  288.96        2958.00           2257         143.00       619.46
  288.99        2958.25           2261         167.00       724.08
  289.02        2958.50           2264         132.00       571.50
  289.05        2958.75           2268         154.00       667.41
  289.08        2959.00           2271         157.00       680.49
  289.11        2959.25           2275         124.00       536.63
  289.14        2959.50           2278         142.00       615.10
  289.18        2959.75           2282         166.00       719.72
  289.21        2960.00           2285         138.00       597.66
  289.24        2960.25           2289         143.00       619.46
  289.27        2960.50           2293         131.00       567.14
  289.30        2960.75           2296         158.00       684.85
  289.33        2961.00           2300         206.00       894.10
  289.36        2961.25           2303         466.00      2027.60
  289.39        2961.50           2307        1411.00      6148.19
  289.42        2961.75           2310        2582.00     11255.83
  289.45        2962.00           2314        4340.00     18927.17
  289.48        2962.25           2317        5840.00     25475.85
  289.51        2962.50           2321        7919.00     34557.15
  289.54        2962.75           2324        9351.00     40815.54
  289.57        2963.00           2328       11132.00     48602.92
  289.60        2963.25           2331       12549.00     54801.67
  289.63        2963.50           2335       14570.00     63647.18
  289.66        2963.75           2339       16748.00     73185.81
  289.70        2964.00           2342       18454.00     80661.63
  289.73        2964.25           2346       20324.00     88860.48
  289.76        2964.50           2349       21625.00     94567.31
  289.79        2964.75           2353       24149.00    105645.20
  289.82        2965.00           2356       25383.00    111064.20
  289.85        2965.25           2360       27242.00    119231.70
  289.88        2965.50           2363       28824.00    126185.80
  289.91        2965.75           2367       30260.00    132501.00
  289.94        2966.00           2370       31557.00    138207.20
  289.97        2966.25           2374       33165.00    145284.80
  290.00        2966.50           2378       33852.00    148309.60
  290.03        2966.75           2381       33955.00    148763.20
  290.06        2967.00           2385       34148.00    149613.10
  290.09        2967.25           2388       34026.00    149075.90
  290.12        2967.50           2392       33979.00    148868.90
  290.15        2967.75           2395       33647.00    147407.00
  290.18        2968.00           2399       32947.00    144325.10
  290.21        2968.25           2402       31183.00    136561.60
  290.25        2968.50           2406       29385.00    128652.60
  290.28        2968.75           2409       28023.00    122664.40
  290.31        2969.00           2413       25815.00    112961.80
  290.34        2969.25           2417       23823.00    104213.90
  290.37        2969.50           2420       22302.00     97537.83
  290.40        2969.75           2424       20288.00     88702.59
  290.43        2970.00           2427       18695.00     81718.01
  290.46        2970.25           2431       16865.00     73698.40
  290.49        2970.50           2434       15497.00     67706.25
  290.52        2970.75           2438       13629.00     59527.95
  290.55        2971.00           2441       12092.00     52802.21
  290.58        2971.25           2445       10033.00     43797.08
  290.61        2971.50           2449        8076.00     35243.17
  290.64        2971.75           2452        6554.00     28594.05
  290.67        2972.00           2456        4693.00     20468.03
  290.70        2972.25           2459        3419.00     14907.73
  290.74        2972.50           2463        1755.00      7648.46
  290.77        2972.75           2466         770.00      3353.04
  290.80        2973.00           2470         222.00       963.85
  290.83        2973.25           2473         170.00       737.16
  290.86        2973.50           2477         151.00       654.33
  290.89        2973.75           2481         144.00       623.81
  290.92        2974.00           2484         141.00       610.74
  290.95        2974.25           2488         155.00       671.77
  290.98        2974.50           2491         132.00       571.50
  291.01        2974.75           2495         123.00       532.27
  291.04        2975.00           2498         142.00       615.10
  291.07        2975.25           2502         138.00       597.66
  291.10        2975.50           2505         157.00       680.49
  291.13        2975.75           2509         111.00       479.96
  291.16        2976.00           2512         119.00       514.83
  291.19        2976.25           2516         136.00       588.94
  291.22        2976.50           2520         132.00       571.50
  291.26        2976.75           2523         127.00       549.71
  291.29        2977.00           2527         136.00       588.94
  291.32        2977.25           2530         136.00       588.94
  291.35        2977.50           2534         117.00       506.11
  291.38        2977.75           2537         105.00       453.80
  291.41        2978.00           2541         127.00       549.71
  291.44        2978.25           2544         105.00       453.80
  291.47        2978.50           2548         114.00       493.03
  291.50        2978.75           2552         106.00       458.16
  291.53        2979.00           2555         122.00       527.91
  291.56        2979.25           2559         137.00       593.30
  291.59        2979.50           2562         118.00       510.47
  291.62        2979.75           2566         113.00       488.67
  291.65        2980.00           2569         124.00       536.63
  291.68        2980.25           2573         117.00       506.11
  291.71        2980.50           2577          99.00       427.64
  291.74        2980.75           2580         100.00       432.00
  291.78        2981.00           2584          97.00       418.92
  291.81        2981.25           2587         115.00       497.39
  291.84        2981.50           2591          95.00       410.21
  291.87        2981.75           2594          96.00       414.57
  291.90        2982.00           2598         102.00       440.72
  291.93        2982.25           2601          96.00       414.57
  291.96        2982.50           2605          97.00       418.92
  291.99        2982.75           2609         100.00       432.00
  292.02        2983.00           2612          97.00       418.92
  292.05        2983.25           2616          91.00       392.77
  292.08        2983.50           2619          89.00       384.05
  292.11        2983.75           2623         100.00       432.00
  292.15        2984.00           2626          86.00       370.97
HS scan finished at 04:52:22
end
************************************************************
  HS Scan of (1) Internal mercury lamp
************************************************************
Integration time is 0.2294 seconds per sample
dh231117Reading 51.44 .94 3.15pr1000
************************************************************
Dead Time -------------------------  3.4E-08 
Number of Cycles Used -------------  4 
Starting Wavelength (Angstroms) ---  2950 
Final Wavelength (Angstoms) -------  2984 
Wavelength Increment (Angstroms) --  .25 
Filter Wheel #1 Position ---------- (1) Ground quartz diffuser (ND=2.32)
Filter Wheel #2 Position ---------- (1) Neutral Density 0.494



************************************************************
HS scan start time = 17:07:21
Dark Count =  1.1 


Time (GMT)  Wavelength (Ang)  Step Number  Raw Counts  Counts/Second

 1028.24        2950.00           2144          73.00       313.43
 1028.43        2950.25           2147          65.00       278.56
 1028.46        2950.50           2151          65.00       278.56
 1028.49        2950.75           2155          64.00       274.20
 1028.53        2951.00           2158          70.00       300.35
 1028.56        2951.25           2162          68.00       291.63
 1028.59        2951.50           2165          64.00       274.20
 1028.62        2951.75           2169          64.00       274.20
 1028.65        2952.00           2172          68.00       291.63
 1028.68        2952.25           2176          71.00       304.71
 1028.71        2952.50           2179          62.00       265.48
 1028.74        2952.75           2183          65.00       278.56
 1028.77        2953.00           2186          69.00       295.99
 1028.80        2953.25           2190          74.00       317.79
 1028.83        2953.50           2193          78.00       335.23
 1028.86        2953.75           2197          68.00       291.63
 1028.89        2954.00           2200          79.00       339.59
 1028.92        2954.25           2204          74.00       317.79
 1028.95        2954.50           2208          74.00       317.79
 1028.98        2954.75           2211          81.00       348.30
 1029.01        2955.00           2215          80.00       343.94
 1029.05        2955.25           2218          74.00       317.79
 1029.08        2955.50           2222          79.00       339.59
 1029.11        2955.75           2225          72.00       309.07
 1029.14        2956.00           2229          73.00       313.43
 1029.17        2956.25           2232          75.00       322.15
 1029.20        2956.50           2236          80.00       343.94
 1029.23        2956.75           2239          78.00       335.23
 1029.26        2957.00           2243          79.00       339.59
 1029.29        2957.25           2246          73.00       313.43
 1029.32        2957.50           2250          73.00       313.43
 1029.35        2957.75           2254          82.00       352.66
 1029.38        2958.00           2257          77.00       330.87
 1029.41        2958.25           2261          84.00       361.38
 1029.44        2958.50           2264          79.00       339.59
 1029.47        2958.75           2268          89.00       383.18
 1029.50        2959.00           2271          80.00       343.94
 1029.53        2959.25           2275          81.00       348.30
 1029.57        2959.50           2278          97.00       418.05
 1029.60        2959.75           2282          86.00       370.10
 1029.63        2960.00           2285          97.00       418.05
 1029.66        2960.25           2289          91.00       391.90
 1029.69        2960.50           2293          96.00       413.69
 1029.72        2960.75           2296          90.00       387.54
 1029.75        2961.00           2300         123.00       531.40
 1029.78        2961.25           2303         234.00      1015.29
 1029.81        2961.50           2307         752.00      3273.69
 1029.84        2961.75           2310        1527.00      6653.21
 1029.87        2962.00           2314        2656.00     11577.79
 1029.90        2962.25           2317        3608.00     15731.60
 1029.93        2962.50           2321        4769.00     20798.92
 1029.96        2962.75           2324        5653.00     24658.42
 1029.99        2963.00           2328        6775.00     29558.46
 1030.02        2963.25           2331        7640.00     33337.24
 1030.05        2963.50           2335        8950.00     39061.87
 1030.09        2963.75           2339       10184.00     44456.42
 1030.12        2964.00           2342       11005.00     48046.61
 1030.15        2964.25           2346       12194.00     53247.58
 1030.18        2964.50           2349       13159.00     57470.08
 1030.21        2964.75           2353       14297.00     62451.13
 1030.24        2965.00           2356       15398.00     67271.84
 1030.27        2965.25           2360       16368.00     71520.27
 1030.30        2965.50           2363       17357.00     75853.18
 1030.33        2965.75           2367       18491.00     80822.93
 1030.36        2966.00           2370       19119.00     83575.86
 1030.39        2966.25           2374       20222.00     88412.28
 1030.42        2966.50           2378       20539.00     89802.55
 1030.45        2966.75           2381       20616.00     90140.27
 1030.48        2967.00           2385       20656.00     90315.72
 1030.51        2967.25           2388       20767.00     90802.57
 1030.54        2967.50           2392       20583.00     89995.53
 1030.57        2967.75           2395       20250.00     88535.07
 1030.60        2968.00           2399       19611.00     85732.99
 1030.64        2968.25           2402       18828.00     82300.16
 1030.67        2968.50           2406       17895.00     78210.75
 1030.70        2968.75           2409       17029.00     74416.03
 1030.73        2969.00           2413       15859.00     69290.78
 1030.76        2969.25           2417       14669.00     64079.74
 1030.79        2969.50           2420       13770.00     60144.23
 1030.82        2969.75           2424       12652.00     55251.48
 1030.85        2970.00           2427       11872.00     51838.89
 1030.88        2970.25           2431       10651.00     46498.48
 1030.91        2970.50           2434        9763.00     42615.76
 1030.94        2970.75           2438        8363.00     36496.44
 1030.97        2971.00           2441        7463.00     32563.93
 1031.00        2971.25           2445        6318.00     27562.44
 1031.03        2971.50           2449        5133.00     22388.01
 1031.06        2971.75           2452        4250.00     18533.47
 1031.09        2972.00           2456        3213.00     14007.98
 1031.12        2972.25           2459        2380.00     10373.75
 1031.16        2972.50           2463        1290.00      5619.64
 1031.19        2972.75           2466         649.00      2824.60
 1031.22        2973.00           2470         186.00       806.04
 1031.25        2973.25           2473         111.00       479.08
 1031.28        2973.50           2477          95.00       409.33
 1031.31        2973.75           2481         115.00       496.52
 1031.34        2974.00           2484         101.00       435.49
 1031.37        2974.25           2488         106.00       457.29
 1031.40        2974.50           2491          92.00       396.26
 1031.43        2974.75           2495          88.00       378.82
 1031.46        2975.00           2498          89.00       383.18
 1031.49        2975.25           2502          84.00       361.38
 1031.52        2975.50           2505          93.00       400.62
 1031.55        2975.75           2509          82.00       352.66
 1031.58        2976.00           2512          86.00       370.10
 1031.61        2976.25           2516          79.00       339.59
 1031.65        2976.50           2520          83.00       357.02
 1031.68        2976.75           2523          84.00       361.38
 1031.71        2977.00           2527          79.00       339.59
 1031.74        2977.25           2530          76.00       326.51
 1031.77        2977.50           2534          77.00       330.87
 1031.80        2977.75           2537          78.00       335.23
 1031.83        2978.00           2541          79.00       339.59
 1031.86        2978.25           2544          75.00       322.15
 1031.89        2978.50           2548          77.00       330.87
 1031.92        2978.75           2552          74.00       317.79
 1031.95        2979.00           2555          69.00       295.99
 1031.98        2979.25           2559          78.00       335.23
 1032.01        2979.50           2562          70.00       300.35
 1032.04        2979.75           2566          76.00       326.51
 1032.07        2980.00           2569          72.00       309.07
 1032.10        2980.25           2573          72.00       309.07
 1032.13        2980.50           2577          71.00       304.71
 1032.16        2980.75           2580          75.00       322.15
 1032.20        2981.00           2584          65.00       278.56
 1032.23        2981.25           2587          61.00       261.12
 1032.26        2981.50           2591          66.00       282.91
 1032.29        2981.75           2594          68.00       291.63
 1032.32        2982.00           2598          64.00       274.20
 1032.35        2982.25           2601          78.00       335.23
 1032.38        2982.50           2605          61.00       261.12
 1032.41        2982.75           2609          59.00       252.40
 1032.44        2983.00           2612          68.00       291.63
 1032.47        2983.25           2616          60.00       256.76
 1032.50        2983.50           2619          68.00       291.63
 1032.53        2983.75           2623          58.00       248.04
 1032.56        2984.00           2626          57.00       243.68
HS scan finished at 17:12:47
end
