************************************************************
  HS Scan of (1) Internal mercury lamp
************************************************************
Integration time is 0.2294 seconds per sample
dh201117Reading 51.44 .94 2.92pr1000
************************************************************
Dead Time -------------------------  3.4E-08 
Number of Cycles Used -------------  4 
Starting Wavelength (Angstroms) ---  2950 
Final Wavelength (Angstoms) -------  2984 
Wavelength Increment (Angstroms) --  .25 
Filter Wheel #1 Position ---------- (1) Ground quartz diffuser (ND=2.32)
Filter Wheel #2 Position ---------- (1) Neutral Density 0.494



************************************************************
HS scan start time = 04:42:58
Dark Count =  .7 


Time (GMT)  Wavelength (Ang)  Step Number  Raw Counts  Counts/Second

  283.87        2950.00           2144          75.00       323.89
  284.06        2950.25           2147          76.00       328.25
  284.09        2950.50           2151          81.00       350.05
  284.12        2950.75           2155          83.00       358.77
  284.15        2951.00           2158          71.00       306.45
  284.18        2951.25           2162          74.00       319.53
  284.21        2951.50           2165          78.00       336.97
  284.24        2951.75           2169          83.00       358.77
  284.27        2952.00           2172          74.00       319.53
  284.30        2952.25           2176          81.00       350.05
  284.33        2952.50           2179          78.00       336.97
  284.36        2952.75           2183          69.00       297.74
  284.40        2953.00           2186          78.00       336.97
  284.43        2953.25           2190          71.00       306.45
  284.46        2953.50           2193          78.00       336.97
  284.49        2953.75           2197          76.00       328.25
  284.52        2954.00           2200          85.00       367.49
  284.55        2954.25           2204          75.00       323.89
  284.58        2954.50           2208          74.00       319.53
  284.61        2954.75           2211          83.00       358.77
  284.64        2955.00           2215          78.00       336.97
  284.67        2955.25           2218          79.00       341.33
  284.70        2955.50           2222          79.00       341.33
  284.73        2955.75           2225          80.00       345.69
  284.76        2956.00           2229          79.00       341.33
  284.79        2956.25           2232         110.00       476.47
  284.82        2956.50           2236          77.00       332.61
  284.85        2956.75           2239          78.00       336.97
  284.88        2957.00           2243          87.00       376.20
  284.91        2957.25           2246          92.00       398.00
  284.95        2957.50           2250          84.00       363.13
  284.98        2957.75           2254          83.00       358.77
  285.01        2958.00           2257          85.00       367.49
  285.04        2958.25           2261          87.00       376.20
  285.07        2958.50           2264         104.00       450.31
  285.10        2958.75           2268          78.00       336.97
  285.13        2959.00           2271          93.00       402.36
  285.16        2959.25           2275          99.00       428.52
  285.19        2959.50           2278          93.00       402.36
  285.22        2959.75           2282          96.00       415.44
  285.25        2960.00           2285         105.00       454.67
  285.28        2960.25           2289         118.00       511.34
  285.31        2960.50           2293         117.00       506.98
  285.34        2960.75           2296         125.00       541.86
  285.37        2961.00           2300         140.00       607.25
  285.40        2961.25           2303         276.00      1200.14
  285.43        2961.50           2307         934.00      4069.00
  285.47        2961.75           2310        1622.00      7069.27
  285.50        2962.00           2314        2694.00     11745.32
  285.53        2962.25           2317        3517.00     15336.24
  285.56        2962.50           2321        4613.00     20119.69
  285.59        2962.75           2324        5591.00     24389.44
  285.62        2963.00           2328        6956.00     30350.84
  285.65        2963.25           2331        7964.00     34754.65
  285.68        2963.50           2335        9235.00     40309.35
  285.71        2963.75           2339       10333.00     45109.67
  285.74        2964.00           2342       17395.00     76021.44
  285.77        2964.25           2346       20572.00     89949.05
  285.80        2964.50           2349       22086.00     96590.89
  285.83        2964.75           2353       23945.00    104750.30
  285.86        2965.00           2356       25593.00    111987.50
  285.89        2965.25           2360       27433.00    120072.00
  285.92        2965.50           2363       28707.00    125672.30
  285.95        2965.75           2367       30414.00    133179.30
  285.99        2966.00           2370       32174.00    140923.40
  286.02        2966.25           2374       33978.00    148865.40
  286.05        2966.50           2378       34516.00    151234.70
  286.08        2966.75           2381       35233.00    154392.90
  286.11        2967.00           2385       35155.00    154049.30
  286.14        2967.25           2388       35084.00    153736.60
  286.17        2967.50           2392       35117.00    153881.90
  286.20        2967.75           2395       34998.00    153357.70
  286.23        2968.00           2399       33526.00    146875.10
  286.26        2968.25           2402       32660.00    143062.60
  286.29        2968.50           2406       30791.00    134837.80
  286.32        2968.75           2409       29282.00    128200.60
  286.35        2969.00           2413       27264.00    119329.30
  286.38        2969.25           2417       25746.00    112659.60
  286.41        2969.50           2420       24023.00    105092.80
  286.44        2969.75           2424       22194.00     97064.80
  286.47        2970.00           2427       20414.00     89256.08
  286.51        2970.25           2431       18216.00     79619.35
  286.54        2970.50           2434       16521.00     72192.25
  286.57        2970.75           2438       14422.00     63000.11
  286.60        2971.00           2441       12765.00     55747.68
  286.63        2971.25           2445       10435.00     45555.69
  286.66        2971.50           2449        8352.00     36450.11
  286.69        2971.75           2452        6804.00     29686.88
  286.72        2972.00           2456        4863.00     21211.02
  286.75        2972.25           2459        3454.00     15061.33
  286.78        2972.50           2463        1788.00      7793.26
  286.81        2972.75           2466         858.00      3737.62
  286.84        2973.00           2470         283.00      1230.65
  286.87        2973.25           2473         183.00       794.70
  286.90        2973.50           2477         157.00       681.36
  286.93        2973.75           2481         153.00       663.92
  286.96        2974.00           2484         140.00       607.25
  286.99        2974.25           2488         136.00       589.81
  287.03        2974.50           2491         157.00       681.36
  287.06        2974.75           2495         153.00       663.92
  287.09        2975.00           2498         135.00       585.45
  287.12        2975.25           2502         138.00       598.53
  287.15        2975.50           2505         158.00       685.72
  287.18        2975.75           2509         143.00       620.33
  287.21        2976.00           2512         126.00       546.22
  287.24        2976.25           2516         164.00       711.87
  287.27        2976.50           2520         129.00       559.30
  287.30        2976.75           2523         152.00       659.56
  287.33        2977.00           2527         121.00       524.42
  287.36        2977.25           2530         125.00       541.86
  287.39        2977.50           2534         118.00       511.34
  287.42        2977.75           2537         127.00       550.58
  287.45        2978.00           2541         140.00       607.25
  287.48        2978.25           2544         131.00       568.01
  287.51        2978.50           2548         150.00       650.84
  287.54        2978.75           2552         121.00       524.42
  287.58        2979.00           2555         130.00       563.66
  287.61        2979.25           2559         115.00       498.26
  287.64        2979.50           2562         123.00       533.14
  287.67        2979.75           2566         108.00       467.75
  287.70        2980.00           2569         111.00       480.83
  287.73        2980.25           2573         110.00       476.47
  287.76        2980.50           2577         137.00       594.17
  287.79        2980.75           2580         110.00       476.47
  287.82        2981.00           2584         110.00       476.47
  287.85        2981.25           2587         121.00       524.42
  287.88        2981.50           2591         113.00       489.55
  287.91        2981.75           2594         102.00       441.59
  287.94        2982.00           2598          97.00       419.80
  287.97        2982.25           2601         106.00       459.03
  288.00        2982.50           2605          97.00       419.80
  288.03        2982.75           2609         129.00       559.30
  288.06        2983.00           2612         105.00       454.67
  288.10        2983.25           2616         103.00       445.95
  288.13        2983.50           2619         129.00       559.30
  288.16        2983.75           2623         108.00       467.75
  288.19        2984.00           2626          98.00       424.16
HS scan finished at 04:48:25
end
************************************************************
  HS Scan of (1) Internal mercury lamp
************************************************************
Integration time is 0.2294 seconds per sample
dh201117Reading 51.44 .94 3.19pr1000
************************************************************
Dead Time -------------------------  3.4E-08 
Number of Cycles Used -------------  4 
Starting Wavelength (Angstroms) ---  2950 
Final Wavelength (Angstoms) -------  2984 
Wavelength Increment (Angstroms) --  .25 
Filter Wheel #1 Position ---------- (1) Ground quartz diffuser (ND=2.32)
Filter Wheel #2 Position ---------- (1) Neutral Density 0.494



************************************************************
HS scan start time = 17:07:19
Dark Count =  1.8 


Time (GMT)  Wavelength (Ang)  Step Number  Raw Counts  Counts/Second

 1028.22        2950.00           2144          74.00       314.74
 1028.42        2950.25           2147          68.00       288.58
 1028.45        2950.50           2151          73.00       310.38
 1028.48        2950.75           2155          69.00       292.94
 1028.51        2951.00           2158          70.00       297.30
 1028.54        2951.25           2162          70.00       297.30
 1028.57        2951.50           2165          64.00       271.14
 1028.60        2951.75           2169          65.00       275.50
 1028.63        2952.00           2172          71.00       301.66
 1028.66        2952.25           2176          71.00       301.66
 1028.69        2952.50           2179          73.00       310.38
 1028.72        2952.75           2183          71.00       301.66
 1028.75        2953.00           2186          59.00       249.35
 1028.78        2953.25           2190          68.00       288.58
 1028.81        2953.50           2193          69.00       292.94
 1028.84        2953.75           2197          69.00       292.94
 1028.87        2954.00           2200          73.00       310.38
 1028.91        2954.25           2204          72.00       306.02
 1028.94        2954.50           2208          77.00       327.82
 1028.97        2954.75           2211          76.00       323.46
 1029.00        2955.00           2215          62.00       262.43
 1029.03        2955.25           2218          75.00       319.10
 1029.06        2955.50           2222          72.00       306.02
 1029.09        2955.75           2225          69.00       292.94
 1029.12        2956.00           2229          82.00       349.61
 1029.15        2956.25           2232          91.00       388.85
 1029.18        2956.50           2236          77.00       327.82
 1029.21        2956.75           2239          80.00       340.89
 1029.24        2957.00           2243          78.00       332.17
 1029.27        2957.25           2246          77.00       327.82
 1029.30        2957.50           2250          79.00       336.53
 1029.33        2957.75           2254          77.00       327.82
 1029.36        2958.00           2257          74.00       314.74
 1029.39        2958.25           2261          72.00       306.02
 1029.42        2958.50           2264          81.00       345.25
 1029.46        2958.75           2268          85.00       362.69
 1029.49        2959.00           2271          89.00       380.13
 1029.52        2959.25           2275          83.00       353.97
 1029.55        2959.50           2278          86.00       367.05
 1029.58        2959.75           2282          93.00       397.56
 1029.61        2960.00           2285          86.00       367.05
 1029.64        2960.25           2289          95.00       406.28
 1029.67        2960.50           2293         101.00       432.44
 1029.70        2960.75           2296          92.00       393.20
 1029.73        2961.00           2300         158.00       680.92
 1029.76        2961.25           2303         258.00      1116.87
 1029.79        2961.50           2307         947.00      4120.89
 1029.82        2961.75           2310        1662.00      7238.92
 1029.85        2962.00           2314        2779.00     12111.35
 1029.88        2962.25           2317        3609.00     15732.91
 1029.91        2962.50           2321        4861.00     21197.49
 1029.94        2962.75           2324        5837.00     25458.82
 1029.98        2963.00           2328        7318.00     31927.41
 1030.01        2963.25           2331        8170.00     35649.99
 1030.04        2963.50           2335        9426.00     41139.46
 1030.07        2963.75           2339       10786.00     47085.79
 1030.10        2964.00           2342       11901.00     51962.70
 1030.13        2964.25           2346       13137.00     57370.74
 1030.16        2964.50           2349       14098.00     61576.92
 1030.19        2964.75           2353       15422.00     67373.86
 1030.22        2965.00           2356       16185.00     70715.60
 1030.25        2965.25           2360       17340.00     75775.62
 1030.28        2965.50           2363       18159.00     79364.70
 1030.31        2965.75           2367       18943.00     82801.21
 1030.34        2966.00           2370       19881.00     86913.83
 1030.37        2966.25           2374       20902.00     91391.66
 1030.40        2966.50           2378       21919.00     95853.29
 1030.43        2966.75           2381       21661.00     94721.30
 1030.46        2967.00           2385       21540.00     94190.43
 1030.50        2967.25           2388       21542.00     94199.21
 1030.53        2967.50           2392       21499.00     94010.56
 1030.56        2967.75           2395       21533.00     94159.72
 1030.59        2968.00           2399       20811.00     90992.49
 1030.62        2968.25           2402       19749.00     86335.01
 1030.65        2968.50           2406       18934.00     82761.76
 1030.68        2968.75           2409       18014.00     78729.21
 1030.71        2969.00           2413       16704.00     72989.10
 1030.74        2969.25           2417       15407.00     67308.18
 1030.77        2969.50           2420       14542.00     63520.65
 1030.80        2969.75           2424       13221.00     57738.35
 1030.83        2970.00           2427       12486.00     54522.08
 1030.86        2970.25           2431       11174.00     48782.68
 1030.89        2970.50           2434       10180.00     44435.87
 1030.92        2970.75           2438        8846.00     38604.26
 1030.95        2971.00           2441        7942.00     34653.72
 1030.98        2971.25           2445        6593.00     28760.46
 1031.02        2971.50           2449        5263.00     22952.52
 1031.05        2971.75           2452        4271.00     18622.08
 1031.08        2972.00           2456        3061.00     13341.71
 1031.11        2972.25           2459        2164.00      9428.48
 1031.14        2972.50           2463        1166.00      5075.85
 1031.17        2972.75           2466         568.00      2468.39
 1031.20        2973.00           2470         163.00       702.72
 1031.23        2973.25           2473         116.00       497.83
 1031.26        2973.50           2477         104.00       445.52
 1031.29        2973.75           2481          87.00       371.41
 1031.32        2974.00           2484          98.00       419.36
 1031.35        2974.25           2488          78.00       332.17
 1031.38        2974.50           2491          83.00       353.97
 1031.41        2974.75           2495          95.00       406.28
 1031.44        2975.00           2498          76.00       323.46
 1031.47        2975.25           2502          83.00       353.97
 1031.50        2975.50           2505          80.00       340.89
 1031.54        2975.75           2509          83.00       353.97
 1031.57        2976.00           2512          80.00       340.89
 1031.60        2976.25           2516          94.00       401.92
 1031.63        2976.50           2520          73.00       310.38
 1031.66        2976.75           2523          79.00       336.53
 1031.69        2977.00           2527          74.00       314.74
 1031.72        2977.25           2530          79.00       336.53
 1031.75        2977.50           2534          76.00       323.46
 1031.78        2977.75           2537          72.00       306.02
 1031.81        2978.00           2541          74.00       314.74
 1031.84        2978.25           2544          77.00       327.82
 1031.87        2978.50           2548          68.00       288.58
 1031.90        2978.75           2552          76.00       323.46
 1031.93        2979.00           2555          77.00       327.82
 1031.96        2979.25           2559          69.00       292.94
 1031.99        2979.50           2562          73.00       310.38
 1032.02        2979.75           2566          75.00       319.10
 1032.06        2980.00           2569          80.00       340.89
 1032.09        2980.25           2573          72.00       306.02
 1032.12        2980.50           2577          66.00       279.86
 1032.15        2980.75           2580          73.00       310.38
 1032.18        2981.00           2584          70.00       297.30
 1032.21        2981.25           2587          66.00       279.86
 1032.24        2981.50           2591          71.00       301.66
 1032.27        2981.75           2594          73.00       310.38
 1032.30        2982.00           2598          77.00       327.82
 1032.33        2982.25           2601          60.00       253.71
 1032.36        2982.50           2605          69.00       292.94
 1032.39        2982.75           2609          71.00       301.66
 1032.42        2983.00           2612          60.00       253.71
 1032.45        2983.25           2616          65.00       275.50
 1032.48        2983.50           2619          59.00       249.35
 1032.51        2983.75           2623          61.00       258.07
 1032.54        2984.00           2626          71.00       301.66
HS scan finished at 17:12:46
end
