************************************************************
  HS Scan of (1) Internal mercury lamp
************************************************************
Integration time is 0.2294 seconds per sample
dh171117Reading 51.44 .94 2.45pr1000
************************************************************
Dead Time -------------------------  3.4E-08 
Number of Cycles Used -------------  4 
Starting Wavelength (Angstroms) ---  2950 
Final Wavelength (Angstoms) -------  2984 
Wavelength Increment (Angstroms) --  .25 
Filter Wheel #1 Position ---------- (1) Ground quartz diffuser (ND=2.32)
Filter Wheel #2 Position ---------- (1) Neutral Density 0.494



************************************************************
HS scan start time = 04:41:50
Dark Count =  .3 


Time (GMT)  Wavelength (Ang)  Step Number  Raw Counts  Counts/Second

  282.73        2950.00           2144          92.00       399.74
  282.93        2950.25           2147          89.00       386.67
  282.96        2950.50           2151         104.00       452.06
  282.99        2950.75           2155          93.00       404.10
  283.02        2951.00           2158          92.00       399.74
  283.05        2951.25           2162         103.00       447.70
  283.08        2951.50           2165         109.00       473.85
  283.11        2951.75           2169         116.00       504.37
  283.14        2952.00           2172         117.00       508.73
  283.17        2952.25           2176         110.00       478.21
  283.20        2952.50           2179          99.00       430.26
  283.23        2952.75           2183          96.00       417.18
  283.26        2953.00           2186         114.00       495.65
  283.29        2953.25           2190         114.00       495.65
  283.33        2953.50           2193          95.00       412.82
  283.36        2953.75           2197          86.00       373.59
  283.39        2954.00           2200          95.00       412.82
  283.42        2954.25           2204          90.00       391.03
  283.45        2954.50           2208          83.00       360.51
  283.48        2954.75           2211          99.00       430.26
  283.51        2955.00           2215         119.00       517.45
  283.54        2955.25           2218         119.00       517.45
  283.57        2955.50           2222         105.00       456.42
  283.60        2955.75           2225         105.00       456.42
  283.63        2956.00           2229         106.00       460.77
  283.66        2956.25           2232         103.00       447.70
  283.69        2956.50           2236         114.00       495.65
  283.72        2956.75           2239          99.00       430.26
  283.75        2957.00           2243         110.00       478.21
  283.78        2957.25           2246         100.00       434.62
  283.81        2957.50           2250         108.00       469.49
  283.85        2957.75           2254         127.00       552.32
  283.88        2958.00           2257         143.00       622.07
  283.91        2958.25           2261         129.00       561.04
  283.94        2958.50           2264         106.00       460.77
  283.97        2958.75           2268         119.00       517.45
  284.00        2959.00           2271         106.00       460.77
  284.03        2959.25           2275         148.00       643.87
  284.06        2959.50           2278         133.00       578.48
  284.09        2959.75           2282         133.00       578.48
  284.12        2960.00           2285         116.00       504.37
  284.15        2960.25           2289         136.00       591.56
  284.18        2960.50           2293         122.00       530.52
  284.21        2960.75           2296         150.00       652.59
  284.24        2961.00           2300         129.00       561.04
  284.27        2961.25           2303         226.00       983.90
  284.30        2961.50           2307         794.00      3460.30
  284.33        2961.75           2310        1530.00      6669.78
  284.37        2962.00           2314        2766.00     12061.18
  284.40        2962.25           2317        3839.00     16743.18
  284.43        2962.50           2321        5183.00     22609.79
  284.46        2962.75           2324        6313.00     27544.10
  284.49        2963.00           2328        7671.00     33476.18
  284.52        2963.25           2331        8838.00     38575.85
  284.55        2963.50           2335       10439.00     45574.93
  284.58        2963.75           2339       11916.00     52034.88
  284.61        2964.00           2342       12915.00     56405.81
  284.64        2964.25           2346       14408.00     62940.57
  284.67        2964.50           2349       15361.00     67113.30
  284.70        2964.75           2353       16993.00     74261.81
  284.73        2965.00           2356       18031.00     78810.28
  284.76        2965.25           2360       19625.00     85797.87
  284.79        2965.50           2363       20792.00     90915.72
  284.82        2965.75           2367       21582.00     94381.28
  284.85        2966.00           2370       23109.00    101082.20
  284.88        2966.25           2374       24367.00    106605.00
  284.92        2966.50           2378       25567.00    111875.00
  284.95        2966.75           2381       25719.00    112542.70
  284.98        2967.00           2385       25933.00    113482.80
  285.01        2967.25           2388       25880.00    113250.00
  285.04        2967.50           2392       25390.00    111097.60
  285.07        2967.75           2395       25816.00    112968.80
  285.10        2968.00           2399       25573.00    111901.40
  285.13        2968.25           2402       24942.00    109130.00
  285.16        2968.50           2406       23519.00    102881.90
  285.19        2968.75           2409       22275.00     97421.99
  285.22        2969.00           2413       20507.00     89665.71
  285.25        2969.25           2417       18565.00     81150.80
  285.28        2969.50           2420       18001.00     78678.80
  285.31        2969.75           2424       16504.00     72119.52
  285.34        2970.00           2427       15290.00     66802.38
  285.37        2970.25           2431       13774.00     60165.23
  285.40        2970.50           2434       12526.00     54703.66
  285.44        2970.75           2438       10535.00     45994.72
  285.47        2971.00           2441        9809.00     42820.37
  285.50        2971.25           2445        8200.00     35787.63
  285.53        2971.50           2449        6737.00     29395.97
  285.56        2971.75           2452        5537.00     24155.40
  285.59        2972.00           2456        4286.00     18694.09
  285.62        2972.25           2459        3041.00     13260.99
  285.65        2972.50           2463        1674.00      7297.80
  285.68        2972.75           2466         862.00      3756.80
  285.71        2973.00           2470         267.00      1162.64
  285.74        2973.25           2473         161.00       700.54
  285.77        2973.50           2477         135.00       587.20
  285.80        2973.75           2481         126.00       547.96
  285.83        2974.00           2484         142.00       617.71
  285.86        2974.25           2488         155.00       674.38
  285.89        2974.50           2491         115.00       500.01
  285.92        2974.75           2495         123.00       534.88
  285.97        2975.00           2498         116.00       504.37
  286.00        2975.25           2502         125.00       543.60
  286.03        2975.50           2505         118.00       513.09
  286.06        2975.75           2509         101.00       438.98
  286.09        2976.00           2512         128.00       556.68
  286.12        2976.25           2516         103.00       447.70
  286.15        2976.50           2520         137.00       595.91
  286.19        2976.75           2523         108.00       469.49
  286.22        2977.00           2527         113.00       491.29
  286.25        2977.25           2530         102.00       443.34
  286.28        2977.50           2534         103.00       447.70
  286.31        2977.75           2537         108.00       469.49
  286.34        2978.00           2541          98.00       425.90
  286.37        2978.25           2544         112.00       486.93
  286.40        2978.50           2548          96.00       417.18
  286.43        2978.75           2552         104.00       452.06
  286.46        2979.00           2555          97.00       421.54
  286.49        2979.25           2559          88.00       382.31
  286.52        2979.50           2562          98.00       425.90
  286.55        2979.75           2566          97.00       421.54
  286.58        2980.00           2569         113.00       491.29
  286.61        2980.25           2573          91.00       395.38
  286.64        2980.50           2577         100.00       434.62
  286.67        2980.75           2580         101.00       438.98
  286.71        2981.00           2584          85.00       369.23
  286.74        2981.25           2587          88.00       382.31
  286.77        2981.50           2591          84.00       364.87
  286.80        2981.75           2594          86.00       373.59
  286.83        2982.00           2598          92.00       399.74
  286.86        2982.25           2601          89.00       386.67
  286.89        2982.50           2605          84.00       364.87
  286.92        2982.75           2609         101.00       438.98
  286.95        2983.00           2612          86.00       373.59
  286.98        2983.25           2616          84.00       364.87
  287.01        2983.50           2619          89.00       386.67
  287.04        2983.75           2623          85.00       369.23
  287.07        2984.00           2626         103.00       447.70
HS scan finished at 04:47:18
end
************************************************************
  HS Scan of (1) Internal mercury lamp
************************************************************
Integration time is 0.2294 seconds per sample
dh171117Reading 51.44 .94 2.96pr1000
************************************************************
Dead Time -------------------------  3.4E-08 
Number of Cycles Used -------------  4 
Starting Wavelength (Angstroms) ---  2950 
Final Wavelength (Angstoms) -------  2984 
Wavelength Increment (Angstroms) --  .25 
Filter Wheel #1 Position ---------- (1) Ground quartz diffuser (ND=2.32)
Filter Wheel #2 Position ---------- (1) Neutral Density 0.494



************************************************************
HS scan start time = 17:07:21
Dark Count =  .9 


Time (GMT)  Wavelength (Ang)  Step Number  Raw Counts  Counts/Second

 1028.24        2950.00           2144          66.00       283.79
 1028.43        2950.25           2147          75.00       323.02
 1028.47        2950.50           2151          70.00       301.22
 1028.51        2950.75           2155          65.00       279.43
 1028.54        2951.00           2158          67.00       288.15
 1028.57        2951.25           2162          68.00       292.51
 1028.60        2951.50           2165          58.00       248.91
 1028.63        2951.75           2169          74.00       318.66
 1028.66        2952.00           2172          65.00       279.43
 1028.70        2952.25           2176          72.00       309.94
 1028.73        2952.50           2179          66.00       283.79
 1028.76        2952.75           2183          63.00       270.71
 1028.79        2953.00           2186          67.00       288.15
 1028.82        2953.25           2190          70.00       301.22
 1028.85        2953.50           2193          68.00       292.51
 1028.88        2953.75           2197          67.00       288.15
 1028.92        2954.00           2200          71.00       305.58
 1028.95        2954.25           2204          70.00       301.22
 1028.98        2954.50           2208          74.00       318.66
 1029.01        2954.75           2211          69.00       296.86
 1029.04        2955.00           2215          71.00       305.58
 1029.07        2955.25           2218          76.00       327.38
 1029.10        2955.50           2222          66.00       283.79
 1029.13        2955.75           2225          69.00       296.86
 1029.16        2956.00           2229          70.00       301.22
 1029.19        2956.25           2232          77.00       331.74
 1029.22        2956.50           2236          72.00       309.94
 1029.25        2956.75           2239          73.00       314.30
 1029.28        2957.00           2243          73.00       314.30
 1029.31        2957.25           2246          80.00       344.82
 1029.34        2957.50           2250          78.00       336.10
 1029.37        2957.75           2254          78.00       336.10
 1029.40        2958.00           2257          82.00       353.54
 1029.44        2958.25           2261          73.00       314.30
 1029.47        2958.50           2264          75.00       323.02
 1029.50        2958.75           2268          82.00       353.54
 1029.53        2959.00           2271          82.00       353.54
 1029.56        2959.25           2275          78.00       336.10
 1029.59        2959.50           2278          74.00       318.66
 1029.62        2959.75           2282          83.00       357.89
 1029.65        2960.00           2285          81.00       349.18
 1029.68        2960.25           2289          93.00       401.49
 1029.71        2960.50           2293          91.00       392.77
 1029.74        2960.75           2296          92.00       397.13
 1029.77        2961.00           2300         127.00       549.71
 1029.80        2961.25           2303         251.00      1090.28
 1029.83        2961.50           2307         818.00      3562.33
 1029.86        2961.75           2310        1503.00      6549.41
 1029.89        2962.00           2314        2484.00     10828.31
 1029.92        2962.25           2317        3297.00     14375.38
 1029.96        2962.50           2321        4311.00     18800.59
 1029.99        2962.75           2324        5231.00     22816.74
 1030.02        2963.00           2328        6431.00     28056.83
 1030.05        2963.25           2331        7305.00     31874.55
 1030.08        2963.50           2335        8467.00     36951.81
 1030.11        2963.75           2339        9559.00     41724.80
 1030.14        2964.00           2342       10526.00     45952.74
 1030.17        2964.25           2346       11751.00     51310.45
 1030.20        2964.50           2349       12394.00     54123.49
 1030.23        2964.75           2353       13456.00     58770.77
 1030.26        2965.00           2356       14481.00     63257.53
 1030.29        2965.25           2360       15817.00     69107.71
 1030.32        2965.50           2363       16419.00     71744.54
 1030.35        2965.75           2367       17531.00     76616.50
 1030.38        2966.00           2370       18531.00     80999.15
 1030.41        2966.25           2374       19356.00     84615.79
 1030.44        2966.50           2378       19572.00     85562.84
 1030.48        2966.75           2381       19559.00     85505.86
 1030.51        2967.00           2385       19707.00     86154.78
 1030.54        2967.25           2388       19692.00     86089.02
 1030.57        2967.50           2392       19655.00     85926.78
 1030.60        2967.75           2395       19286.00     84308.89
 1030.63        2968.00           2399       18875.00     82507.06
 1030.67        2968.25           2402       18211.00     79596.56
 1030.70        2968.50           2406       17220.00     75253.78
 1030.73        2968.75           2409       16787.00     73356.66
 1030.76        2969.00           2413       15711.00     68643.46
 1030.79        2969.25           2417       14268.00     62325.05
 1030.82        2969.50           2420       13408.00     58560.69
 1030.85        2969.75           2424       12452.00     54377.25
 1030.88        2970.00           2427       11565.00     50496.83
 1030.91        2970.25           2431       10429.00     45528.57
 1030.94        2970.50           2434        9383.00     40955.42
 1030.97        2970.75           2438        8492.00     37061.06
 1031.00        2971.00           2441        7584.00     33093.45
 1031.03        2971.25           2445        6322.00     27580.78
 1031.06        2971.50           2449        5045.00     22004.69
 1031.09        2971.75           2452        4154.00     18115.34
 1031.12        2972.00           2456        2988.00     13027.13
 1031.15        2972.25           2459        2196.00      9571.99
 1031.19        2972.50           2463        1155.00      5031.81
 1031.22        2972.75           2466         542.00      2358.95
 1031.25        2973.00           2470         166.00       719.72
 1031.28        2973.25           2473         102.00       440.72
 1031.31        2973.50           2477          96.00       414.57
 1031.34        2973.75           2481          93.00       401.49
 1031.37        2974.00           2484         118.00       510.47
 1031.40        2974.25           2488          94.00       405.85
 1031.43        2974.50           2491          88.00       379.69
 1031.46        2974.75           2495          83.00       357.89
 1031.49        2975.00           2498          87.00       375.33
 1031.52        2975.25           2502          90.00       388.41
 1031.55        2975.50           2505          90.00       388.41
 1031.58        2975.75           2509          75.00       323.02
 1031.61        2976.00           2512          82.00       353.54
 1031.64        2976.25           2516          86.00       370.97
 1031.67        2976.50           2520          82.00       353.54
 1031.71        2976.75           2523          81.00       349.18
 1031.74        2977.00           2527          80.00       344.82
 1031.77        2977.25           2530          71.00       305.58
 1031.80        2977.50           2534          82.00       353.54
 1031.83        2977.75           2537          83.00       357.89
 1031.86        2978.00           2541          85.00       366.61
 1031.89        2978.25           2544          79.00       340.46
 1031.92        2978.50           2548          75.00       323.02
 1031.95        2978.75           2552          77.00       331.74
 1031.98        2979.00           2555          78.00       336.10
 1032.01        2979.25           2559          70.00       301.22
 1032.04        2979.50           2562          68.00       292.51
 1032.07        2979.75           2566          75.00       323.02
 1032.10        2980.00           2569          72.00       309.94
 1032.13        2980.25           2573          69.00       296.86
 1032.16        2980.50           2577          71.00       305.58
 1032.19        2980.75           2580          68.00       292.51
 1032.23        2981.00           2584          67.00       288.15
 1032.26        2981.25           2587          67.00       288.15
 1032.29        2981.50           2591          62.00       266.35
 1032.32        2981.75           2594          73.00       314.30
 1032.35        2982.00           2598          67.00       288.15
 1032.38        2982.25           2601          68.00       292.51
 1032.41        2982.50           2605          77.00       331.74
 1032.44        2982.75           2609          67.00       288.15
 1032.47        2983.00           2612          72.00       309.94
 1032.50        2983.25           2616          59.00       253.27
 1032.53        2983.50           2619          67.00       288.15
 1032.56        2983.75           2623          62.00       266.35
 1032.59        2984.00           2626          64.00       275.07
HS scan finished at 17:12:49
end
