************************************************************
  HS Scan of (1) Internal mercury lamp
************************************************************
Integration time is 0.2294 seconds per sample
dh211117Reading 51.44 .94 3.19pr1000
************************************************************
Dead Time -------------------------  3.4E-08 
Number of Cycles Used -------------  4 
Starting Wavelength (Angstroms) ---  2950 
Final Wavelength (Angstoms) -------  2984 
Wavelength Increment (Angstroms) --  .25 
Filter Wheel #1 Position ---------- (1) Ground quartz diffuser (ND=2.32)
Filter Wheel #2 Position ---------- (1) Neutral Density 0.494



************************************************************
HS scan start time = 04:44:18
Dark Count =  1.5 


Time (GMT)  Wavelength (Ang)  Step Number  Raw Counts  Counts/Second

  285.20        2950.00           2144          67.00       285.53
  285.40        2950.25           2147          67.00       285.53
  285.43        2950.50           2151          70.00       298.61
  285.46        2950.75           2155          70.00       298.61
  285.49        2951.00           2158          73.00       311.69
  285.52        2951.25           2162          68.00       289.89
  285.55        2951.50           2165          77.00       329.12
  285.58        2951.75           2169          71.00       302.97
  285.61        2952.00           2172          67.00       285.53
  285.64        2952.25           2176          72.00       307.33
  285.67        2952.50           2179          79.00       337.84
  285.70        2952.75           2183          77.00       329.12
  285.73        2953.00           2186          69.00       294.25
  285.76        2953.25           2190          76.00       324.76
  285.79        2953.50           2193          81.00       346.56
  285.82        2953.75           2197          75.00       320.40
  285.85        2954.00           2200          74.00       316.05
  285.88        2954.25           2204          82.00       350.92
  285.92        2954.50           2208          75.00       320.40
  285.95        2954.75           2211          82.00       350.92
  285.98        2955.00           2215          81.00       346.56
  286.01        2955.25           2218          85.00       364.00
  286.04        2955.50           2222          73.00       311.69
  286.07        2955.75           2225          79.00       337.84
  286.10        2956.00           2229          73.00       311.69
  286.13        2956.25           2232          74.00       316.05
  286.16        2956.50           2236          77.00       329.12
  286.19        2956.75           2239          74.00       316.05
  286.22        2957.00           2243          80.00       342.20
  286.25        2957.25           2246          88.00       377.08
  286.28        2957.50           2250          79.00       337.84
  286.31        2957.75           2254          84.00       359.64
  286.34        2958.00           2257          81.00       346.56
  286.37        2958.25           2261          82.00       350.92
  286.40        2958.50           2264          77.00       329.12
  286.44        2958.75           2268          90.00       385.79
  286.47        2959.00           2271          88.00       377.08
  286.50        2959.25           2275         112.00       481.70
  286.53        2959.50           2278          99.00       425.03
  286.56        2959.75           2282          94.00       403.23
  286.59        2960.00           2285         105.00       451.18
  286.62        2960.25           2289         108.00       464.26
  286.65        2960.50           2293         108.00       464.26
  286.68        2960.75           2296          99.00       425.03
  286.71        2961.00           2300         144.00       621.20
  286.74        2961.25           2303         258.00      1118.18
  286.77        2961.50           2307         874.00      3803.89
  286.80        2961.75           2310        1550.00      6751.77
  286.83        2962.00           2314        2720.00     11855.26
  286.86        2962.25           2317        3695.00     16109.52
  286.89        2962.50           2321        5048.00     22015.17
  286.92        2962.75           2324        5991.00     26132.63
  286.95        2963.00           2328        7096.00     30958.90
  286.99        2963.25           2331        8123.00     35445.92
  287.02        2963.50           2335        9401.00     41031.49
  287.05        2963.75           2339       10867.00     47441.33
  287.08        2964.00           2342       11863.00     51797.77
  287.11        2964.25           2346       13246.00     57849.07
  287.14        2964.50           2349       14178.00     61928.43
  287.17        2964.75           2353       15404.00     67296.35
  287.20        2965.00           2356       16399.00     71654.31
  287.23        2965.25           2360       17647.00     77122.19
  287.26        2965.50           2363       18622.00     81395.40
  287.29        2965.75           2367       20109.00     87914.97
  287.32        2966.00           2370       20819.00     91028.90
  287.35        2966.25           2374       22104.00     96666.36
  287.38        2966.50           2378       22407.00     97995.97
  287.41        2966.75           2381       22465.00     98250.50
  287.44        2967.00           2385       22458.00     98219.78
  287.47        2967.25           2388       22495.00     98382.16
  287.51        2967.50           2392       22656.00     99088.72
  287.54        2967.75           2395       22544.00     98597.19
  287.57        2968.00           2399       21866.00     95622.06
  287.60        2968.25           2402       21029.00     91950.05
  287.63        2968.50           2406       19748.00     86331.94
  287.66        2968.75           2409       19054.00     83289.15
  287.69        2969.00           2413       17654.00     77152.87
  287.72        2969.25           2417       16408.00     71693.73
  287.75        2969.50           2420       15396.00     67261.31
  287.78        2969.75           2424       14081.00     61503.81
  287.81        2970.00           2427       13100.00     57210.14
  287.84        2970.25           2431       11724.00     51189.72
  287.87        2970.50           2434       10731.00     46846.58
  287.90        2970.75           2438        9410.00     41070.83
  287.93        2971.00           2441        8533.00     37237.61
  287.96        2971.25           2445        7009.00     30578.86
  287.99        2971.50           2449        5700.00     24861.90
  288.03        2971.75           2452        4736.00     20653.12
  288.06        2972.00           2456        3454.00     15057.84
  288.09        2972.25           2459        2530.00     11026.37
  288.12        2972.50           2463        1357.00      5910.08
  288.15        2972.75           2466         707.00      3075.74
  288.18        2973.00           2470         202.00       874.05
  288.21        2973.25           2473         131.00       564.53
  288.24        2973.50           2477         111.00       477.34
  288.27        2973.75           2481          96.00       411.95
  288.30        2974.00           2484          93.00       398.87
  288.33        2974.25           2488          99.00       425.03
  288.36        2974.50           2491          90.00       385.79
  288.39        2974.75           2495          97.00       416.31
  288.42        2975.00           2498         112.00       481.70
  288.45        2975.25           2502          93.00       398.87
  288.48        2975.50           2505          93.00       398.87
  288.51        2975.75           2509          85.00       364.00
  288.55        2976.00           2512          85.00       364.00
  288.58        2976.25           2516          85.00       364.00
  288.61        2976.50           2520          77.00       329.12
  288.64        2976.75           2523          84.00       359.64
  288.67        2977.00           2527          87.00       372.72
  288.70        2977.25           2530          82.00       350.92
  288.73        2977.50           2534          85.00       364.00
  288.76        2977.75           2537          84.00       359.64
  288.79        2978.00           2541          77.00       329.12
  288.82        2978.25           2544          79.00       337.84
  288.85        2978.50           2548          73.00       311.69
  288.88        2978.75           2552          78.00       333.48
  288.91        2979.00           2555          81.00       346.56
  288.94        2979.25           2559          75.00       320.40
  288.97        2979.50           2562          83.00       355.28
  289.00        2979.75           2566          80.00       342.20
  289.03        2980.00           2569          76.00       324.76
  289.07        2980.25           2573          79.00       337.84
  289.10        2980.50           2577          66.00       281.17
  289.13        2980.75           2580          72.00       307.33
  289.16        2981.00           2584          78.00       333.48
  289.19        2981.25           2587          75.00       320.40
  289.22        2981.50           2591          77.00       329.12
  289.25        2981.75           2594          77.00       329.12
  289.28        2982.00           2598          70.00       298.61
  289.31        2982.25           2601          69.00       294.25
  289.34        2982.50           2605          65.00       276.81
  289.37        2982.75           2609          75.00       320.40
  289.40        2983.00           2612          70.00       298.61
  289.43        2983.25           2616          65.00       276.81
  289.46        2983.50           2619          64.00       272.45
  289.49        2983.75           2623          66.00       281.17
  289.52        2984.00           2626          68.00       289.89
HS scan finished at 04:49:45
end
************************************************************
  HS Scan of (1) Internal mercury lamp
************************************************************
Integration time is 0.2294 seconds per sample
dh211117Reading 51.44 .94 3.33pr1000
************************************************************
Dead Time -------------------------  3.4E-08 
Number of Cycles Used -------------  4 
Starting Wavelength (Angstroms) ---  2950 
Final Wavelength (Angstoms) -------  2984 
Wavelength Increment (Angstroms) --  .25 
Filter Wheel #1 Position ---------- (1) Ground quartz diffuser (ND=2.32)
Filter Wheel #2 Position ---------- (1) Neutral Density 0.494



************************************************************
HS scan start time = 17:07:18
Dark Count =  1.7 


Time (GMT)  Wavelength (Ang)  Step Number  Raw Counts  Counts/Second

 1028.19        2950.00           2144          96.00       411.08
 1028.39        2950.25           2147          92.00       393.64
 1028.42        2950.50           2151         116.00       498.26
 1028.45        2950.75           2155          89.00       380.56
 1028.48        2951.00           2158          96.00       411.08
 1028.51        2951.25           2162         107.00       459.03
 1028.54        2951.50           2165         115.00       493.91
 1028.57        2951.75           2169         102.00       437.23
 1028.60        2952.00           2172         114.00       489.55
 1028.63        2952.25           2176         108.00       463.39
 1028.66        2952.50           2179         138.00       594.17
 1028.69        2952.75           2183         127.00       546.22
 1028.72        2953.00           2186         147.00       633.41
 1028.75        2953.25           2190         132.00       568.01
 1028.78        2953.50           2193         143.00       615.97
 1028.81        2953.75           2197         135.00       581.09
 1028.84        2954.00           2200         143.00       615.97
 1028.88        2954.25           2204         138.00       594.17
 1028.91        2954.50           2208         133.00       572.37
 1028.94        2954.75           2211         123.00       528.78
 1028.97        2955.00           2215         157.00       677.00
 1029.00        2955.25           2218         123.00       528.78
 1029.03        2955.50           2222         140.00       602.89
 1029.06        2955.75           2225         144.00       620.33
 1029.09        2956.00           2229         150.00       646.48
 1029.12        2956.25           2232         148.00       637.76
 1029.15        2956.50           2236         141.00       607.25
 1029.18        2956.75           2239         148.00       637.76
 1029.22        2957.00           2243         129.00       554.94
 1029.25        2957.25           2246         139.00       598.53
 1029.28        2957.50           2250         134.00       576.73
 1029.31        2957.75           2254         142.00       611.61
 1029.34        2958.00           2257         150.00       646.48
 1029.37        2958.25           2261         135.00       581.09
 1029.40        2958.50           2264         158.00       681.36
 1029.43        2958.75           2268         142.00       611.61
 1029.46        2959.00           2271         162.00       698.80
 1029.49        2959.25           2275         157.00       677.00
 1029.52        2959.50           2278         160.00       690.08
 1029.55        2959.75           2282         164.00       707.51
 1029.59        2960.00           2285         155.00       668.28
 1029.62        2960.25           2289         163.00       703.16
 1029.65        2960.50           2293         182.00       785.98
 1029.68        2960.75           2296         182.00       785.98
 1029.71        2961.00           2300         240.00      1038.83
 1029.74        2961.25           2303         476.00      2067.71
 1029.77        2961.50           2307        1779.00      7749.65
 1029.80        2961.75           2310        3369.00     14686.06
 1029.83        2962.00           2314        5682.00     24782.42
 1029.86        2962.25           2317        7790.00     33990.00
 1029.89        2962.50           2321       10544.00     46027.95
 1029.92        2962.75           2324       12713.00     55515.77
 1029.95        2963.00           2328       15338.00     67006.46
 1029.98        2963.25           2331       17450.00     76258.06
 1030.01        2963.50           2335       20045.00     87633.43
 1030.04        2963.75           2339       22677.00     99180.01
 1030.07        2964.00           2342       25243.00    110445.80
 1030.11        2964.25           2346       28185.00    123373.00
 1030.14        2964.50           2349       30039.00    131525.40
 1030.17        2964.75           2353       32790.00    143630.40
 1030.20        2965.00           2356       34766.00    152331.40
 1030.23        2965.25           2360       37169.00    162919.60
 1030.26        2965.50           2363       39248.00    172086.30
 1030.29        2965.75           2367       41917.00    183862.90
 1030.32        2966.00           2370       44017.00    193135.50
 1030.35        2966.25           2374       45820.00    201101.40
 1030.38        2966.50           2378       47031.00    206454.10
 1030.41        2966.75           2381       47068.00    206617.70
 1030.44        2967.00           2385       47258.00    207457.80
 1030.47        2967.25           2388       47224.00    207307.40
 1030.50        2967.50           2392       47025.00    206427.60
 1030.53        2967.75           2395       46861.00    205702.60
 1030.56        2968.00           2399       45359.00    199064.20
 1030.59        2968.25           2402       43669.00    191598.50
 1030.63        2968.50           2406       41351.00    181364.70
 1030.66        2968.75           2409       39374.00    172642.10
 1030.69        2969.00           2413       36648.00    160623.30
 1030.72        2969.25           2417       34184.00    149768.10
 1030.75        2969.50           2420       31911.00    139761.50
 1030.78        2969.75           2424       29226.00    127949.90
 1030.81        2970.00           2427       27150.00    118823.90
 1030.84        2970.25           2431       24633.00    107766.90
 1030.87        2970.50           2434       22528.00     98526.11
 1030.90        2970.75           2438       19639.00     85853.12
 1030.93        2971.00           2441       17320.00     75688.43
 1030.96        2971.25           2445       14494.00     63310.94
 1030.99        2971.50           2449       11580.00     50558.94
 1031.02        2971.75           2452        9592.00     41865.57
 1031.05        2972.00           2456        6998.00     30529.93
 1031.08        2972.25           2459        5082.00     22162.73
 1031.11        2972.50           2463        2723.00     11867.47
 1031.15        2972.75           2466        1345.00      5856.88
 1031.18        2973.00           2470         395.00      1714.57
 1031.21        2973.25           2473         230.00       995.24
 1031.24        2973.50           2477         189.00       816.50
 1031.27        2973.75           2481         154.00       663.92
 1031.30        2974.00           2484         167.00       720.59
 1031.33        2974.25           2488         164.00       707.51
 1031.36        2974.50           2491         166.00       716.23
 1031.39        2974.75           2495         157.00       677.00
 1031.42        2975.00           2498         165.00       711.87
 1031.45        2975.25           2502         151.00       650.84
 1031.48        2975.50           2505         151.00       650.84
 1031.51        2975.75           2509         143.00       615.97
 1031.54        2976.00           2512         157.00       677.00
 1031.57        2976.25           2516         149.00       642.12
 1031.60        2976.50           2520         159.00       685.72
 1031.63        2976.75           2523         150.00       646.48
 1031.67        2977.00           2527         134.00       576.73
 1031.70        2977.25           2530         134.00       576.73
 1031.73        2977.50           2534         141.00       607.25
 1031.76        2977.75           2537         139.00       598.53
 1031.79        2978.00           2541         137.00       589.81
 1031.82        2978.25           2544         149.00       642.12
 1031.85        2978.50           2548         124.00       533.14
 1031.88        2978.75           2552         139.00       598.53
 1031.91        2979.00           2555         136.00       585.45
 1031.94        2979.25           2559         126.00       541.86
 1031.97        2979.50           2562         150.00       646.48
 1032.00        2979.75           2566         150.00       646.48
 1032.03        2980.00           2569         129.00       554.94
 1032.06        2980.25           2573         131.00       563.66
 1032.09        2980.50           2577         112.00       480.83
 1032.13        2980.75           2580         113.00       485.19
 1032.16        2981.00           2584         121.00       520.06
 1032.19        2981.25           2587         144.00       620.33
 1032.22        2981.50           2591         151.00       650.84
 1032.25        2981.75           2594         111.00       476.47
 1032.28        2982.00           2598         113.00       485.19
 1032.31        2982.25           2601         102.00       437.23
 1032.34        2982.50           2605         118.00       506.98
 1032.37        2982.75           2609         102.00       437.23
 1032.41        2983.00           2612         102.00       437.23
 1032.44        2983.25           2616         110.00       472.11
 1032.47        2983.50           2619         115.00       493.91
 1032.50        2983.75           2623         120.00       515.70
 1032.53        2984.00           2626         129.00       554.94
HS scan finished at 17:12:45
end
