************************************************************
  HS Scan of (1) Internal mercury lamp
************************************************************
Integration time is 0.2294 seconds per sample
dh261117Reading 51.44 .94 2.39pr1000
************************************************************
Dead Time -------------------------  3.4E-08 
Number of Cycles Used -------------  4 
Starting Wavelength (Angstroms) ---  2950 
Final Wavelength (Angstoms) -------  2984 
Wavelength Increment (Angstroms) --  .25 
Filter Wheel #1 Position ---------- (1) Ground quartz diffuser (ND=2.32)
Filter Wheel #2 Position ---------- (1) Neutral Density 0.494



************************************************************
HS scan start time = 04:53:41
Dark Count =  .2 


Time (GMT)  Wavelength (Ang)  Step Number  Raw Counts  Counts/Second

  294.58        2950.00           2144          86.00       374.02
  294.77        2950.25           2147         120.00       522.24
  294.80        2950.50           2151          93.00       404.54
  294.83        2950.75           2155          82.00       356.59
  294.86        2951.00           2158          97.00       421.98
  294.89        2951.25           2162          91.00       395.82
  294.92        2951.50           2165          82.00       356.59
  294.95        2951.75           2169          87.00       378.38
  294.98        2952.00           2172          85.00       369.66
  295.01        2952.25           2176         115.00       500.44
  295.05        2952.50           2179          89.00       387.10
  295.08        2952.75           2183          88.00       382.74
  295.11        2953.00           2186          88.00       382.74
  295.14        2953.25           2190          93.00       404.54
  295.17        2953.50           2193          85.00       369.66
  295.20        2953.75           2197         121.00       526.60
  295.23        2954.00           2200         101.00       439.41
  295.26        2954.25           2204          96.00       417.62
  295.29        2954.50           2208         100.00       435.05
  295.32        2954.75           2211          96.00       417.62
  295.35        2955.00           2215          97.00       421.98
  295.38        2955.25           2218          96.00       417.62
  295.41        2955.50           2222         103.00       448.13
  295.44        2955.75           2225          97.00       421.98
  295.47        2956.00           2229          95.00       413.26
  295.50        2956.25           2232          98.00       426.34
  295.53        2956.50           2236          93.00       404.54
  295.57        2956.75           2239         124.00       539.68
  295.60        2957.00           2243          96.00       417.62
  295.63        2957.25           2246         116.00       504.80
  295.66        2957.50           2250         113.00       491.73
  295.69        2957.75           2254          99.00       430.70
  295.72        2958.00           2257          99.00       430.70
  295.75        2958.25           2261          91.00       395.82
  295.78        2958.50           2264         105.00       456.85
  295.81        2958.75           2268         122.00       530.96
  295.84        2959.00           2271         125.00       544.04
  295.87        2959.25           2275         109.00       474.29
  295.90        2959.50           2278         138.00       600.71
  295.93        2959.75           2282         122.00       530.96
  295.96        2960.00           2285         133.00       578.91
  295.99        2960.25           2289         109.00       474.29
  296.02        2960.50           2293         113.00       491.73
  296.06        2960.75           2296         132.00       574.55
  296.09        2961.00           2300         151.00       657.38
  296.12        2961.25           2303         271.00      1180.52
  296.15        2961.50           2307         913.00      3979.61
  296.18        2961.75           2310        1634.00      7123.78
  296.21        2962.00           2314        2761.00     12039.80
  296.25        2962.25           2317        3684.00     16067.19
  296.28        2962.50           2321        5150.00     22466.15
  296.32        2962.75           2324        6161.00     26880.70
  296.35        2963.00           2328        7237.00     31580.53
  296.38        2963.25           2331        8360.00     36487.26
  296.41        2963.50           2335        9700.00     42344.27
  296.44        2963.75           2339       11009.00     48068.04
  296.47        2964.00           2342       12001.00     52407.17
  296.50        2964.25           2346       13444.00     58721.31
  296.53        2964.50           2349       14502.00     63352.53
  296.56        2964.75           2353       15813.00     69093.25
  296.59        2965.00           2356       16898.00     73846.03
  296.62        2965.25           2360       18290.00     79945.88
  296.65        2965.50           2363       19355.00     84614.49
  296.68        2965.75           2367       20278.00     88661.82
  296.71        2966.00           2370       20959.00     91648.69
  296.74        2966.25           2374       22122.00     96751.06
  296.77        2966.50           2378       22518.00     98488.80
  296.80        2966.75           2381       22539.00     98580.96
  296.83        2967.00           2385       22638.00     99015.43
  296.87        2967.25           2388       22770.00     99594.75
  296.90        2967.50           2392       22700.00     99287.54
  296.93        2967.75           2395       22377.00     97870.03
  296.96        2968.00           2399       21237.00     92868.19
  296.99        2968.25           2402       20429.00     89324.06
  297.02        2968.50           2406       19273.00     84254.97
  297.05        2968.75           2409       18180.00     79463.76
  297.08        2969.00           2413       17017.00     74367.40
  297.11        2969.25           2417       15658.00     68414.41
  297.14        2969.50           2420       14650.00     64000.50
  297.18        2969.75           2424       13366.00     58379.93
  297.21        2970.00           2427       12437.00     54314.69
  297.24        2970.25           2431       10942.00     47775.01
  297.27        2970.50           2434       10052.00     43883.21
  297.30        2970.75           2438        8567.00     37391.88
  297.34        2971.00           2441        7629.00     33293.11
  297.37        2971.25           2445        6382.00     27845.88
  297.40        2971.50           2449        4910.00     21418.38
  297.43        2971.75           2452        4023.00     17546.65
  297.46        2972.00           2456        2664.00     11616.62
  297.49        2972.25           2459        1865.00      8131.28
  297.52        2972.50           2463         888.00      3870.61
  297.55        2972.75           2466         402.00      1751.63
  297.58        2973.00           2470         162.00       705.34
  297.61        2973.25           2473         139.00       605.07
  297.64        2973.50           2477         169.00       735.85
  297.67        2973.75           2481         117.00       509.16
  297.70        2974.00           2484         118.00       513.52
  297.73        2974.25           2488         127.00       552.76
  297.76        2974.50           2491         161.00       700.98
  297.79        2974.75           2495         140.00       609.43
  297.82        2975.00           2498         137.00       596.35
  297.85        2975.25           2502         103.00       448.13
  297.89        2975.50           2505         107.00       465.57
  297.92        2975.75           2509         102.00       443.77
  297.95        2976.00           2512         107.00       465.57
  297.98        2976.25           2516         124.00       539.68
  298.01        2976.50           2520         134.00       583.27
  298.04        2976.75           2523          93.00       404.54
  298.07        2977.00           2527         112.00       487.37
  298.10        2977.25           2530         100.00       435.05
  298.13        2977.50           2534          91.00       395.82
  298.16        2977.75           2537          99.00       430.70
  298.19        2978.00           2541          97.00       421.98
  298.22        2978.25           2544          92.00       400.18
  298.25        2978.50           2548          96.00       417.62
  298.28        2978.75           2552          93.00       404.54
  298.31        2979.00           2555          82.00       356.59
  298.34        2979.25           2559          89.00       387.10
  298.38        2979.50           2562          99.00       430.70
  298.41        2979.75           2566          82.00       356.59
  298.44        2980.00           2569          93.00       404.54
  298.47        2980.25           2573          93.00       404.54
  298.50        2980.50           2577          84.00       365.31
  298.53        2980.75           2580          93.00       404.54
  298.56        2981.00           2584          89.00       387.10
  298.59        2981.25           2587          90.00       391.46
  298.62        2981.50           2591          89.00       387.10
  298.65        2981.75           2594          93.00       404.54
  298.68        2982.00           2598          92.00       400.18
  298.71        2982.25           2601          86.00       374.02
  298.74        2982.50           2605          88.00       382.74
  298.77        2982.75           2609         108.00       469.93
  298.80        2983.00           2612          83.00       360.95
  298.83        2983.25           2616          86.00       374.02
  298.86        2983.50           2619          96.00       417.62
  298.90        2983.75           2623          87.00       378.38
  298.93        2984.00           2626          91.00       395.82
HS scan finished at 04:59:09
end
************************************************************
  HS Scan of (1) Internal mercury lamp
************************************************************
Integration time is 0.2294 seconds per sample
dh261117Reading 51.44 .94 2.68pr1000
************************************************************
Dead Time -------------------------  3.4E-08 
Number of Cycles Used -------------  4 
Starting Wavelength (Angstroms) ---  2950 
Final Wavelength (Angstoms) -------  2984 
Wavelength Increment (Angstroms) --  .25 
Filter Wheel #1 Position ---------- (1) Ground quartz diffuser (ND=2.32)
Filter Wheel #2 Position ---------- (1) Neutral Density 0.494



************************************************************
HS scan start time = 17:12:28
Dark Count =  .6 


Time (GMT)  Wavelength (Ang)  Step Number  Raw Counts  Counts/Second

 1033.36        2950.00           2144          86.00       372.28
 1033.55        2950.25           2147          94.00       407.15
 1033.58        2950.50           2151          88.00       381.00
 1033.61        2950.75           2155          80.00       346.12
 1033.64        2951.00           2158          84.00       363.56
 1033.67        2951.25           2162          86.00       372.28
 1033.71        2951.50           2165          83.00       359.20
 1033.74        2951.75           2169          81.00       350.48
 1033.77        2952.00           2172          79.00       341.77
 1033.80        2952.25           2176          83.00       359.20
 1033.83        2952.50           2179          91.00       394.08
 1033.86        2952.75           2183          86.00       372.28
 1033.89        2953.00           2186          88.00       381.00
 1033.92        2953.25           2190          79.00       341.77
 1033.95        2953.50           2193          93.00       402.80
 1033.98        2953.75           2197          89.00       385.36
 1034.01        2954.00           2200          86.00       372.28
 1034.04        2954.25           2204          88.00       381.00
 1034.07        2954.50           2208          87.00       376.64
 1034.10        2954.75           2211          92.00       398.44
 1034.13        2955.00           2215          93.00       402.80
 1034.16        2955.25           2218          87.00       376.64
 1034.19        2955.50           2222          94.00       407.15
 1034.23        2955.75           2225          88.00       381.00
 1034.26        2956.00           2229          90.00       389.72
 1034.29        2956.25           2232          91.00       394.08
 1034.32        2956.50           2236         133.00       577.17
 1034.35        2956.75           2239          94.00       407.15
 1034.38        2957.00           2243          97.00       420.23
 1034.41        2957.25           2246          99.00       428.95
 1034.44        2957.50           2250          99.00       428.95
 1034.47        2957.75           2254          98.00       424.59
 1034.50        2958.00           2257          98.00       424.59
 1034.53        2958.25           2261          99.00       428.95
 1034.56        2958.50           2264         104.00       450.75
 1034.59        2958.75           2268         101.00       437.67
 1034.62        2959.00           2271          96.00       415.87
 1034.65        2959.25           2275          83.00       359.20
 1034.68        2959.50           2278         118.00       511.78
 1034.71        2959.75           2282         111.00       481.26
 1034.75        2960.00           2285         104.00       450.75
 1034.78        2960.25           2289         123.00       533.58
 1034.81        2960.50           2293         115.00       498.70
 1034.84        2960.75           2296         137.00       594.61
 1034.87        2961.00           2300         143.00       620.76
 1034.90        2961.25           2303         285.00      1239.81
 1034.93        2961.50           2307         975.00      4248.22
 1034.96        2961.75           2310        1714.00      7470.95
 1034.99        2962.00           2314        2897.00     12631.40
 1035.02        2962.25           2317        3850.00     16789.88
 1035.05        2962.50           2321        5081.00     22163.17
 1035.08        2962.75           2324        6018.00     26254.46
 1035.11        2963.00           2328        7620.00     33252.04
 1035.14        2963.25           2331        8564.00     37377.03
 1035.17        2963.50           2335        9975.00     43544.81
 1035.20        2963.75           2339       11151.00     48687.34
 1035.23        2964.00           2342       12092.00     52803.53
 1035.26        2964.25           2346       13840.00     60452.82
 1035.30        2964.50           2349       14937.00     65255.35
 1035.33        2964.75           2353       16169.00     70650.77
 1035.36        2965.00           2356       17151.00     74952.76
 1035.39        2965.25           2360       18517.00     80939.10
 1035.42        2965.50           2363       19229.00     84060.31
 1035.45        2965.75           2367       20526.00     89747.72
 1035.48        2966.00           2370       21584.00     94388.74
 1035.51        2966.25           2374       22742.00     99470.10
 1035.54        2966.50           2378       23250.00    101699.80
 1035.57        2966.75           2381       23378.00    102261.70
 1035.60        2967.00           2385       23457.00    102608.40
 1035.63        2967.25           2388       23317.00    101993.90
 1035.66        2967.50           2392       23141.00    101221.30
 1035.69        2967.75           2395       23128.00    101164.30
 1035.72        2968.00           2399       22372.00     97846.34
 1035.75        2968.25           2402       21596.00     94441.39
 1035.78        2968.50           2406       20660.00     90335.44
 1035.82        2968.75           2409       19845.00     86761.24
 1035.85        2969.00           2413       18486.00     80803.21
 1035.88        2969.25           2417       16889.00     73804.86
 1035.91        2969.50           2420       16226.00     70900.44
 1035.94        2969.75           2424       14681.00     64134.48
 1035.97        2970.00           2427       13591.00     59362.94
 1036.00        2970.25           2431       12175.00     53166.65
 1036.03        2970.50           2434       10964.00     47869.48
 1036.06        2970.75           2438        9508.00     41503.17
 1036.09        2971.00           2441        8453.00     36891.93
 1036.12        2971.25           2445        7116.00     31050.20
 1036.15        2971.50           2449        5470.00     23861.55
 1036.18        2971.75           2452        4458.00     19443.54
 1036.21        2972.00           2456        3224.00     14058.16
 1036.24        2972.25           2459        2314.00     10088.03
 1036.27        2972.50           2463        1212.00      5281.68
 1036.31        2972.75           2466         554.00      2412.58
 1036.34        2973.00           2470         196.00       851.81
 1036.37        2973.25           2473         163.00       707.95
 1036.40        2973.50           2477         170.00       738.47
 1036.43        2973.75           2481         121.00       524.86
 1036.46        2974.00           2484         153.00       664.36
 1036.49        2974.25           2488         121.00       524.86
 1036.52        2974.50           2491         107.00       463.83
 1036.55        2974.75           2495         117.00       507.42
 1036.58        2975.00           2498          97.00       420.23
 1036.61        2975.25           2502         101.00       437.67
 1036.64        2975.50           2505         100.00       433.31
 1036.67        2975.75           2509         100.00       433.31
 1036.70        2976.00           2512         120.00       520.50
 1036.73        2976.25           2516          98.00       424.59
 1036.76        2976.50           2520          95.00       411.51
 1036.79        2976.75           2523         104.00       450.75
 1036.82        2977.00           2527          96.00       415.87
 1036.86        2977.25           2530          96.00       415.87
 1036.89        2977.50           2534          92.00       398.44
 1036.92        2977.75           2537          88.00       381.00
 1036.95        2978.00           2541          87.00       376.64
 1036.98        2978.25           2544          99.00       428.95
 1037.01        2978.50           2548          94.00       407.15
 1037.04        2978.75           2552          95.00       411.51
 1037.07        2979.00           2555          97.00       420.23
 1037.10        2979.25           2559          85.00       367.92
 1037.13        2979.50           2562          86.00       372.28
 1037.16        2979.75           2566          84.00       363.56
 1037.19        2980.00           2569          87.00       376.64
 1037.22        2980.25           2573          88.00       381.00
 1037.25        2980.50           2577          89.00       385.36
 1037.28        2980.75           2580          87.00       376.64
 1037.31        2981.00           2584          88.00       381.00
 1037.34        2981.25           2587          96.00       415.87
 1037.38        2981.50           2591          92.00       398.44
 1037.41        2981.75           2594          84.00       363.56
 1037.44        2982.00           2598          84.00       363.56
 1037.47        2982.25           2601          89.00       385.36
 1037.50        2982.50           2605          82.00       354.84
 1037.53        2982.75           2609          84.00       363.56
 1037.56        2983.00           2612          85.00       367.92
 1037.59        2983.25           2616          98.00       424.59
 1037.62        2983.50           2619          78.00       337.41
 1037.65        2983.75           2623          83.00       359.20
 1037.68        2984.00           2626          80.00       346.12
HS scan finished at 17:17:54
end
