************************************************************
  HS Scan of (1) Internal mercury lamp
************************************************************
Integration time is 0.2294 seconds per sample
dh291117Reading 51.44 .94 2.35pr1000
************************************************************
Dead Time -------------------------  3.4E-08 
Number of Cycles Used -------------  4 
Starting Wavelength (Angstroms) ---  2950 
Final Wavelength (Angstoms) -------  2984 
Wavelength Increment (Angstroms) --  .25 
Filter Wheel #1 Position ---------- (1) Ground quartz diffuser (ND=2.32)
Filter Wheel #2 Position ---------- (1) Neutral Density 0.494



************************************************************
HS scan start time = 04:57:09
Dark Count =  .1 


Time (GMT)  Wavelength (Ang)  Step Number  Raw Counts  Counts/Second

  298.06        2950.00           2144         157.00       683.97
  298.25        2950.25           2147         158.00       688.33
  298.28        2950.50           2151         173.00       753.72
  298.31        2950.75           2155         147.00       640.38
  298.34        2951.00           2158         130.00       566.27
  298.37        2951.25           2162         110.00       479.08
  298.40        2951.50           2165         123.00       535.76
  298.43        2951.75           2169         127.00       553.19
  298.46        2952.00           2172         125.00       544.47
  298.49        2952.25           2176         130.00       566.27
  298.52        2952.50           2179         143.00       622.94
  298.56        2952.75           2183         179.00       779.88
  298.59        2953.00           2186         123.00       535.76
  298.62        2953.25           2190         116.00       505.24
  298.65        2953.50           2193         165.00       718.85
  298.68        2953.75           2197         123.00       535.76
  298.71        2954.00           2200         136.00       592.43
  298.74        2954.25           2204         127.00       553.19
  298.77        2954.50           2208         128.00       557.55
  298.80        2954.75           2211         123.00       535.76
  298.83        2955.00           2215         143.00       622.94
  298.86        2955.25           2218         129.00       561.91
  298.89        2955.50           2222         152.00       662.18
  298.92        2955.75           2225         148.00       644.74
  298.95        2956.00           2229         131.00       570.63
  298.98        2956.25           2232         141.00       614.22
  299.01        2956.50           2236         159.00       692.69
  299.04        2956.75           2239         133.00       579.35
  299.07        2957.00           2243         123.00       535.76
  299.11        2957.25           2246         156.00       679.61
  299.14        2957.50           2250         148.00       644.74
  299.17        2957.75           2254         145.00       631.66
  299.20        2958.00           2257         139.00       605.51
  299.23        2958.25           2261         142.00       618.58
  299.26        2958.50           2264         129.00       561.91
  299.29        2958.75           2268         152.00       662.18
  299.32        2959.00           2271         136.00       592.43
  299.35        2959.25           2275         146.00       636.02
  299.38        2959.50           2278         158.00       688.33
  299.41        2959.75           2282         145.00       631.66
  299.44        2960.00           2285         151.00       657.82
  299.47        2960.25           2289         145.00       631.66
  299.50        2960.50           2293         152.00       662.18
  299.53        2960.75           2296         156.00       679.61
  299.56        2961.00           2300         168.00       731.93
  299.59        2961.25           2303         279.00      1215.83
  299.63        2961.50           2307         920.00      4010.57
  299.66        2961.75           2310        1977.00      8620.22
  299.69        2962.00           2314        3736.00     16294.55
  299.72        2962.25           2317        5183.00     22610.66
  299.75        2962.50           2321        7183.00     31345.07
  299.78        2962.75           2324        8593.00     37505.95
  299.81        2963.00           2328       10604.00     46297.32
  299.84        2963.25           2331       12130.00     52971.96
  299.87        2963.50           2335       14219.00     62114.04
  299.90        2963.75           2339       16041.00     70092.30
  299.93        2964.00           2342       17727.00     77478.90
  299.96        2964.25           2346       19688.00     86074.99
  299.99        2964.50           2349       21251.00     92930.05
  300.02        2964.75           2353       23685.00    103611.50
  300.05        2965.00           2356       24986.00    109324.10
  300.08        2965.25           2360       26962.00    118004.80
  300.12        2965.50           2363       27986.00    122505.30
  300.15        2965.75           2367       30399.00    133115.90
  300.18        2966.00           2370       31596.00    138382.30
  300.21        2966.25           2374       33736.00    147802.40
  300.24        2966.50           2378       34315.00    150352.10
  300.27        2966.75           2381       34399.00    150722.00
  300.30        2967.00           2385       34505.00    151188.90
  300.33        2967.25           2388       34304.00    150303.60
  300.36        2967.50           2392       34063.00    149242.30
  300.39        2967.75           2395       34320.00    150374.10
  300.42        2968.00           2399       32770.00    143549.40
  300.45        2968.25           2402       31216.00    136710.30
  300.48        2968.50           2406       29526.00    129276.20
  300.51        2968.75           2409       28100.00    123006.40
  300.54        2969.00           2413       26324.00    115201.40
  300.57        2969.25           2417       24621.00    107721.20
  300.60        2969.50           2420       22833.00     99871.69
  300.63        2969.75           2424       20589.00     90026.24
  300.67        2970.00           2427       19125.00     83606.56
  300.70        2970.25           2431       17295.00     75585.90
  300.73        2970.50           2434       15807.00     69067.41
  300.76        2970.75           2438       13721.00     59934.13
  300.79        2971.00           2441       12243.00     53466.33
  300.82        2971.25           2445       10111.00     44141.62
  300.85        2971.50           2449        8172.00     35666.16
  300.88        2971.75           2452        6761.00     29501.68
  300.91        2972.00           2456        4870.00     21244.20
  300.94        2972.25           2459        3496.00     15247.22
  300.97        2972.50           2463        1821.00      7939.81
  301.00        2972.75           2466         911.00      3971.33
  301.03        2973.00           2470         295.00      1285.58
  301.06        2973.25           2473         193.00       840.91
  301.09        2973.50           2477         152.00       662.18
  301.12        2973.75           2481         156.00       679.61
  301.15        2974.00           2484         156.00       679.61
  301.19        2974.25           2488         148.00       644.74
  301.22        2974.50           2491         147.00       640.38
  301.25        2974.75           2495         136.00       592.43
  301.28        2975.00           2498         140.00       609.86
  301.31        2975.25           2502         132.00       574.99
  301.34        2975.50           2505         130.00       566.27
  301.37        2975.75           2509         158.00       688.33
  301.40        2976.00           2512         163.00       710.13
  301.43        2976.25           2516         162.00       705.77
  301.46        2976.50           2520         168.00       731.93
  301.49        2976.75           2523         136.00       592.43
  301.52        2977.00           2527         139.00       605.51
  301.55        2977.25           2530         138.00       601.15
  301.58        2977.50           2534         133.00       579.35
  301.61        2977.75           2537         133.00       579.35
  301.64        2978.00           2541         137.00       596.79
  301.67        2978.25           2544         139.00       605.51
  301.71        2978.50           2548         108.00       470.37
  301.74        2978.75           2552         170.00       740.65
  301.77        2979.00           2555         108.00       470.37
  301.80        2979.25           2559         134.00       583.71
  301.83        2979.50           2562         113.00       492.16
  301.86        2979.75           2566         103.00       448.57
  301.89        2980.00           2569         123.00       535.76
  301.92        2980.25           2573         125.00       544.47
  301.95        2980.50           2577         107.00       466.01
  301.98        2980.75           2580         130.00       566.27
  302.01        2981.00           2584         101.00       439.85
  302.04        2981.25           2587         107.00       466.01
  302.07        2981.50           2591         119.00       518.32
  302.10        2981.75           2594         102.00       444.21
  302.13        2982.00           2598         128.00       557.55
  302.16        2982.25           2601         104.00       452.93
  302.19        2982.50           2605         104.00       452.93
  302.23        2982.75           2609          98.00       426.77
  302.26        2983.00           2612          97.00       422.41
  302.29        2983.25           2616         102.00       444.21
  302.32        2983.50           2619         119.00       518.32
  302.35        2983.75           2623          90.00       391.90
  302.38        2984.00           2626         100.00       435.49
HS scan finished at 05:02:36
end
************************************************************
  HS Scan of (1) Internal mercury lamp
************************************************************
Integration time is 0.2294 seconds per sample
dh291117Reading 51.44 .94 2.8pr1000
************************************************************
Dead Time -------------------------  3.4E-08 
Number of Cycles Used -------------  4 
Starting Wavelength (Angstroms) ---  2950 
Final Wavelength (Angstoms) -------  2984 
Wavelength Increment (Angstroms) --  .25 
Filter Wheel #1 Position ---------- (1) Ground quartz diffuser (ND=2.32)
Filter Wheel #2 Position ---------- (1) Neutral Density 0.494



************************************************************
HS scan start time = 17:07:24
Dark Count =  .7 


Time (GMT)  Wavelength (Ang)  Step Number  Raw Counts  Counts/Second

 1028.30        2950.00           2144          88.00       380.56
 1028.50        2950.25           2147          89.00       384.92
 1028.53        2950.50           2151          95.00       411.08
 1028.56        2950.75           2155          96.00       415.44
 1028.59        2951.00           2158          83.00       358.77
 1028.62        2951.25           2162          84.00       363.13
 1028.65        2951.50           2165          92.00       398.00
 1028.68        2951.75           2169         105.00       454.67
 1028.71        2952.00           2172          87.00       376.20
 1028.74        2952.25           2176          87.00       376.20
 1028.77        2952.50           2179          91.00       393.64
 1028.80        2952.75           2183          83.00       358.77
 1028.83        2953.00           2186          88.00       380.56
 1028.86        2953.25           2190          94.00       406.72
 1028.89        2953.50           2193          89.00       384.92
 1028.92        2953.75           2197          96.00       415.44
 1028.95        2954.00           2200          92.00       398.00
 1028.98        2954.25           2204          88.00       380.56
 1029.02        2954.50           2208          91.00       393.64
 1029.05        2954.75           2211         116.00       502.62
 1029.08        2955.00           2215         100.00       432.87
 1029.11        2955.25           2218         117.00       506.98
 1029.14        2955.50           2222          99.00       428.52
 1029.17        2955.75           2225          98.00       424.16
 1029.20        2956.00           2229          84.00       363.13
 1029.23        2956.25           2232          99.00       428.52
 1029.26        2956.50           2236          93.00       402.36
 1029.29        2956.75           2239         115.00       498.26
 1029.32        2957.00           2243         111.00       480.83
 1029.35        2957.25           2246         102.00       441.59
 1029.38        2957.50           2250         101.00       437.23
 1029.41        2957.75           2254          96.00       415.44
 1029.44        2958.00           2257          95.00       411.08
 1029.47        2958.25           2261         122.00       528.78
 1029.50        2958.50           2264          98.00       424.16
 1029.54        2958.75           2268          96.00       415.44
 1029.57        2959.00           2271         135.00       585.45
 1029.60        2959.25           2275         122.00       528.78
 1029.63        2959.50           2278         108.00       467.75
 1029.66        2959.75           2282         115.00       498.26
 1029.69        2960.00           2285         107.00       463.39
 1029.72        2960.25           2289         139.00       602.89
 1029.75        2960.50           2293         123.00       533.14
 1029.78        2960.75           2296         147.00       637.76
 1029.81        2961.00           2300         141.00       611.61
 1029.84        2961.25           2303         253.00      1099.87
 1029.87        2961.50           2307         805.00      3506.52
 1029.90        2961.75           2310        1572.00      6851.20
 1029.93        2962.00           2314        2926.00     12757.49
 1029.96        2962.25           2317        3900.00     17007.65
 1029.99        2962.50           2321        5199.00     22677.90
 1030.03        2962.75           2324        6052.00     26402.51
 1030.06        2963.00           2328        7506.00     32753.54
 1030.09        2963.25           2331        8738.00     38137.04
 1030.12        2963.50           2335       10439.00     45573.18
 1030.15        2963.75           2339       11868.00     51823.15
 1030.18        2964.00           2342       12909.00     56377.80
 1030.21        2964.25           2346       14324.00     62571.08
 1030.24        2964.50           2349       15416.00     67352.41
 1030.27        2964.75           2353       16871.00     73725.56
 1030.30        2965.00           2356       17948.00     78444.78
 1030.33        2965.25           2360       19271.00     84244.01
 1030.36        2965.50           2363       20109.00     87918.48
 1030.39        2965.75           2367       21184.00     92633.50
 1030.42        2966.00           2370       22263.00     97367.58
 1030.45        2966.25           2374       23518.00    102875.80
 1030.48        2966.50           2378       24403.00    106761.30
 1030.51        2966.75           2381       24654.00    107863.50
 1030.55        2967.00           2385       24669.00    107929.30
 1030.58        2967.25           2388       24523.00    107288.20
 1030.61        2967.50           2392       25052.00    109611.30
 1030.64        2967.75           2395       25114.00    109883.60
 1030.67        2968.00           2399       24627.00    107744.90
 1030.70        2968.25           2402       23868.00    104412.30
 1030.73        2968.50           2406       22402.00     97977.55
 1030.76        2968.75           2409       21355.00     93383.66
 1030.79        2969.00           2413       19888.00     86949.35
 1030.82        2969.25           2417       18507.00     80894.82
 1030.85        2969.50           2420       17480.00     76393.91
 1030.88        2969.75           2424       16024.00     70015.21
 1030.91        2970.00           2427       14661.00     64046.47
 1030.94        2970.25           2431       13045.00     56972.94
 1030.97        2970.50           2434       11854.00     51761.90
 1031.00        2970.75           2438       10370.00     45271.46
 1031.03        2971.00           2441        9347.00     40798.93
 1031.06        2971.25           2445        7799.00     34033.69
 1031.10        2971.50           2449        6304.00     27503.04
 1031.13        2971.75           2452        5229.00     22808.88
 1031.16        2972.00           2456        3787.00     16514.50
 1031.19        2972.25           2459        2742.00     11954.73
 1031.22        2972.50           2463        1463.00      6375.84
 1031.25        2972.75           2466         776.00      3380.07
 1031.28        2973.00           2470         273.00      1187.06
 1031.31        2973.25           2473         162.00       703.16
 1031.34        2973.50           2477         174.00       755.47
 1031.37        2973.75           2481         125.00       541.86
 1031.40        2974.00           2484         119.00       515.70
 1031.43        2974.25           2488         119.00       515.70
 1031.46        2974.50           2491         113.00       489.55
 1031.49        2974.75           2495         120.00       520.06
 1031.52        2975.00           2498         132.00       572.37
 1031.55        2975.25           2502         128.00       554.94
 1031.58        2975.50           2505         110.00       476.47
 1031.62        2975.75           2509         104.00       450.31
 1031.65        2976.00           2512         128.00       554.94
 1031.68        2976.25           2516         127.00       550.58
 1031.71        2976.50           2520          94.00       406.72
 1031.74        2976.75           2523          98.00       424.16
 1031.77        2977.00           2527          96.00       415.44
 1031.80        2977.25           2530         119.00       515.70
 1031.83        2977.50           2534          93.00       402.36
 1031.86        2977.75           2537          89.00       384.92
 1031.89        2978.00           2541         113.00       489.55
 1031.92        2978.25           2544          88.00       380.56
 1031.95        2978.50           2548         100.00       432.87
 1031.98        2978.75           2552          91.00       393.64
 1032.01        2979.00           2555          96.00       415.44
 1032.04        2979.25           2559         100.00       432.87
 1032.07        2979.50           2562          94.00       406.72
 1032.10        2979.75           2566         106.00       459.03
 1032.14        2980.00           2569          87.00       376.20
 1032.17        2980.25           2573          91.00       393.64
 1032.20        2980.50           2577          91.00       393.64
 1032.23        2980.75           2580          95.00       411.08
 1032.26        2981.00           2584          91.00       393.64
 1032.29        2981.25           2587          93.00       402.36
 1032.32        2981.50           2591          86.00       371.84
 1032.35        2981.75           2594          89.00       384.92
 1032.38        2982.00           2598          89.00       384.92
 1032.41        2982.25           2601          89.00       384.92
 1032.44        2982.50           2605          85.00       367.49
 1032.47        2982.75           2609          87.00       376.20
 1032.50        2983.00           2612          81.00       350.05
 1032.53        2983.25           2616          87.00       376.20
 1032.56        2983.50           2619          92.00       398.00
 1032.59        2983.75           2623          87.00       376.20
 1032.62        2984.00           2626          84.00       363.13
HS scan finished at 17:12:51
end
