************************************************************
  HS Scan of (1) Internal mercury lamp
************************************************************
Integration time is 0.2294 seconds per sample
dh011218Reading 51.44 .94 2.82pr1000
************************************************************
Dead Time -------------------------  3.4E-08 
Number of Cycles Used -------------  4 
Starting Wavelength (Angstroms) ---  2950 
Final Wavelength (Angstoms) -------  2984 
Wavelength Increment (Angstroms) --  .25 
Filter Wheel #1 Position ---------- (1) Ground quartz diffuser (ND=2.32)
Filter Wheel #2 Position ---------- (1) Neutral Density 0.494



************************************************************
HS scan start time = 04:56:13
Dark Count =  .4 


Time (GMT)  Wavelength (Ang)  Step Number  Raw Counts  Counts/Second

  297.12        2950.00           2144        1629.00      7101.10
  297.31        2950.25           2147        1601.00      6978.99
  297.34        2950.50           2151        1624.00      7079.30
  297.37        2950.75           2155        1625.00      7083.66
  297.40        2951.00           2158        1580.00      6887.40
  297.43        2951.25           2162        1587.00      6917.93
  297.47        2951.50           2165        1610.00      7018.24
  297.50        2951.75           2169        1608.00      7009.52
  297.53        2952.00           2172        1625.00      7083.66
  297.56        2952.25           2176        1617.00      7048.77
  297.59        2952.50           2179        1647.00      7179.61
  297.62        2952.75           2183        1643.00      7162.16
  297.65        2953.00           2186        1615.00      7040.05
  297.68        2953.25           2190        1671.00      7284.28
  297.71        2953.50           2193        1613.00      7031.32
  297.74        2953.75           2197        1669.00      7275.56
  297.77        2954.00           2200        1662.00      7245.03
  297.80        2954.25           2204        1699.00      7406.40
  297.83        2954.50           2208        1640.00      7149.08
  297.86        2954.75           2211        1669.00      7275.56
  297.89        2955.00           2215        1687.00      7354.06
  297.92        2955.25           2218        1684.00      7340.98
  297.95        2955.50           2222        1691.00      7371.51
  297.98        2955.75           2225        1669.00      7275.56
  298.02        2956.00           2229        1715.00      7476.18
  298.05        2956.25           2232        1735.00      7563.41
  298.08        2956.50           2236        1765.00      7694.25
  298.11        2956.75           2239        1745.00      7607.02
  298.14        2957.00           2243        1752.00      7637.55
  298.17        2957.25           2246        1771.00      7720.42
  298.20        2957.50           2250        1786.00      7785.84
  298.23        2957.75           2254        1814.00      7907.97
  298.26        2958.00           2257        1797.00      7833.82
  298.29        2958.25           2261        1857.00      8095.51
  298.32        2958.50           2264        1822.00      7942.86
  298.35        2958.75           2268        1817.00      7921.05
  298.38        2959.00           2271        1863.00      8121.68
  298.41        2959.25           2275        1908.00      8317.96
  298.44        2959.50           2278        1915.00      8348.49
  298.47        2959.75           2282        1917.00      8357.21
  298.50        2960.00           2285        1923.00      8383.38
  298.54        2960.25           2289        2018.00      8797.75
  298.57        2960.50           2293        2013.00      8775.94
  298.60        2960.75           2296        2024.00      8823.92
  298.63        2961.00           2300        2127.00      9273.19
  298.66        2961.25           2303        2515.00     10965.73
  298.69        2961.50           2307        6886.00     30046.37
  298.72        2961.75           2310       15841.00     69215.00
  298.75        2962.00           2314       32689.00    143191.50
  298.78        2962.25           2317       48272.00    211947.30
  298.81        2962.50           2321       70274.00    309578.00
  298.84        2962.75           2324       85908.00    379349.60
  298.87        2963.00           2328      107447.00    476023.40
  298.90        2963.25           2331      123876.00    550194.80
  298.93        2963.50           2335      145664.00    649146.80
  298.96        2963.75           2339      168069.00    751608.10
  298.99        2964.00           2342      185760.00    833025.60
  299.02        2964.25           2346      209668.00    943786.70
  299.06        2964.50           2349      225685.00   1018468.00
  299.09        2964.75           2353      247213.00   1119456.00
  299.12        2965.00           2356      263548.00   1196559.00
  299.15        2965.25           2360      283654.00   1292031.00
  299.18        2965.50           2363      297998.00   1360533.00
  299.21        2965.75           2367      317607.00   1454710.00
  299.24        2966.00           2370      333827.00   1533081.00
  299.27        2966.25           2374      353066.00   1626599.00
  299.30        2966.50           2378      367261.00   1695993.00
  299.33        2966.75           2381      371536.00   1716958.00
  299.36        2967.00           2385      372265.00   1720536.00
  299.39        2967.25           2388      373401.00   1726114.00
  299.42        2967.50           2392      373181.00   1725034.00
  299.45        2967.75           2395      371675.00   1717640.00
  299.48        2968.00           2399      366199.00   1690789.00
  299.51        2968.25           2402      354515.00   1633667.00
  299.54        2968.50           2406      336955.00   1548244.00
  299.58        2968.75           2409      322328.00   1477476.00
  299.61        2969.00           2413      303884.00   1388737.00
  299.64        2969.25           2417      281758.00   1283001.00
  299.67        2969.50           2420      264884.00   1202883.00
  299.70        2969.75           2424      242609.00   1097799.00
  299.73        2970.00           2427      226096.00   1020389.00
  299.76        2970.25           2431      204312.00    918899.70
  299.79        2970.50           2434      189131.00    848591.50
  299.82        2970.75           2438      167785.00    750304.70
  299.85        2971.00           2441      151207.00    674428.60
  299.88        2971.25           2445      130446.00    579962.30
  299.91        2971.50           2449      107680.00    477072.70
  299.94        2971.75           2452       90463.00    399740.60
  299.97        2972.00           2456       67841.00    298749.80
  300.00        2972.25           2459       51443.00    225978.10
  300.03        2972.50           2463       32462.00    142192.30
  300.06        2972.75           2466       19412.00     84863.52
  300.10        2973.00           2470        6917.00     30181.79
  300.13        2973.25           2473        3329.00     14517.19
  300.16        2973.50           2477        2269.00      9892.60
  300.19        2973.75           2481        2093.00      9124.89
  300.22        2974.00           2484        2046.00      8919.88
  300.25        2974.25           2488        2008.00      8754.13
  300.28        2974.50           2491        1988.00      8666.89
  300.31        2974.75           2495        1910.00      8326.68
  300.34        2975.00           2498        1930.00      8413.92
  300.37        2975.25           2502        1861.00      8112.96
  300.40        2975.50           2505        1866.00      8134.77
  300.43        2975.75           2509        1850.00      8064.98
  300.46        2976.00           2512        1797.00      7833.82
  300.49        2976.25           2516        1768.00      7707.34
  300.52        2976.50           2520        1746.00      7611.39
  300.55        2976.75           2523        1771.00      7720.42
  300.58        2977.00           2527        1736.00      7567.77
  300.61        2977.25           2530        1746.00      7611.39
  300.65        2977.50           2534        1691.00      7371.51
  300.68        2977.75           2537        1708.00      7445.65
  300.71        2978.00           2541        1675.00      7301.73
  300.74        2978.25           2544        1682.00      7332.26
  300.77        2978.50           2548        1703.00      7423.84
  300.80        2978.75           2552        1616.00      7044.41
  300.83        2979.00           2555        1647.00      7179.61
  300.86        2979.25           2559        1638.00      7140.36
  300.89        2979.50           2562        1604.00      6992.07
  300.92        2979.75           2566        1599.00      6970.27
  300.95        2980.00           2569        1573.00      6856.87
  300.98        2980.25           2573        1590.00      6931.01
  301.01        2980.50           2577        1587.00      6917.93
  301.04        2980.75           2580        1547.00      6743.48
  301.08        2981.00           2584        1552.00      6765.29
  301.12        2981.25           2587        1560.00      6800.18
  301.15        2981.50           2591        1543.00      6726.04
  301.18        2981.75           2594        1532.00      6678.06
  301.21        2982.00           2598        1568.00      6835.07
  301.24        2982.25           2601        1512.00      6590.84
  301.27        2982.50           2605        1529.00      6664.98
  301.30        2982.75           2609        1557.00      6787.09
  301.33        2983.00           2612        1550.00      6756.57
  301.36        2983.25           2616        1516.00      6608.28
  301.39        2983.50           2619        1518.00      6617.01
  301.42        2983.75           2623        1499.00      6534.15
  301.45        2984.00           2626        1469.00      6403.31
HS scan finished at 05:01:40
end
************************************************************
  HS Scan of (1) Internal mercury lamp
************************************************************
Integration time is 0.2294 seconds per sample
dh011218Reading 51.44 .94 3.13pr1000
************************************************************
Dead Time -------------------------  3.4E-08 
Number of Cycles Used -------------  4 
Starting Wavelength (Angstroms) ---  2950 
Final Wavelength (Angstoms) -------  2984 
Wavelength Increment (Angstroms) --  .25 
Filter Wheel #1 Position ---------- (1) Ground quartz diffuser (ND=2.32)
Filter Wheel #2 Position ---------- (1) Neutral Density 0.494



************************************************************
HS scan start time = 17:08:39
Dark Count =  1.2 


Time (GMT)  Wavelength (Ang)  Step Number  Raw Counts  Counts/Second

 1029.55        2950.00           2144        1039.00      4524.67
 1029.74        2950.25           2147        1070.00      4659.85
 1029.77        2950.50           2151        1044.00      4546.47
 1029.80        2950.75           2155        1066.00      4642.41
 1029.84        2951.00           2158        1062.00      4624.96
 1029.87        2951.25           2162        1095.00      4768.86
 1029.90        2951.50           2165        1067.00      4646.77
 1029.93        2951.75           2169        1116.00      4860.44
 1029.96        2952.00           2172        1078.00      4694.73
 1029.99        2952.25           2176        1094.00      4764.50
 1030.02        2952.50           2179        1093.00      4760.14
 1030.05        2952.75           2183        1067.00      4646.77
 1030.08        2953.00           2186        1091.00      4751.42
 1030.11        2953.25           2190        1102.00      4799.39
 1030.14        2953.50           2193        1115.00      4856.08
 1030.17        2953.75           2197        1090.00      4747.06
 1030.20        2954.00           2200        1131.00      4925.85
 1030.23        2954.25           2204        1086.00      4729.62
 1030.26        2954.50           2208        1130.00      4921.49
 1030.29        2954.75           2211        1108.00      4825.55
 1030.32        2955.00           2215        1127.00      4908.40
 1030.35        2955.25           2218        1129.00      4917.13
 1030.39        2955.50           2222        1158.00      5043.59
 1030.42        2955.75           2225        1120.00      4877.88
 1030.45        2956.00           2229        1130.00      4921.49
 1030.48        2956.25           2232        1169.00      5091.55
 1030.51        2956.50           2236        1116.00      4860.44
 1030.54        2956.75           2239        1163.00      5065.39
 1030.57        2957.00           2243        1171.00      5100.27
 1030.60        2957.25           2246        1188.00      5174.41
 1030.63        2957.50           2250        1168.00      5087.19
 1030.66        2957.75           2254        1216.00      5296.51
 1030.69        2958.00           2257        1219.00      5309.59
 1030.72        2958.25           2261        1184.00      5156.96
 1030.75        2958.50           2264        1190.00      5183.13
 1030.78        2958.75           2268        1244.00      5418.61
 1030.81        2959.00           2271        1249.00      5440.41
 1030.84        2959.25           2275        1251.00      5449.14
 1030.87        2959.50           2278        1272.00      5540.71
 1030.91        2959.75           2282        1318.00      5741.31
 1030.94        2960.00           2285        1333.00      5806.73
 1030.97        2960.25           2289        1338.00      5828.53
 1031.00        2960.50           2293        1367.00      5955.00
 1031.03        2960.75           2296        1387.00      6042.22
 1031.06        2961.00           2300        1458.00      6351.85
 1031.09        2961.25           2303        1634.00      7119.42
 1031.12        2961.50           2307        3684.00     16062.83
 1031.15        2961.75           2310        9643.00     42090.71
 1031.18        2962.00           2314       22999.00    100595.40
 1031.21        2962.25           2317       33907.00    148550.50
 1031.24        2962.50           2321       48674.00    213721.80
 1031.27        2962.75           2324       60399.00    265675.00
 1031.30        2963.00           2328       76644.00    337962.30
 1031.33        2963.25           2331       89222.00    394178.70
 1031.36        2963.50           2335      107411.00    475857.60
 1031.40        2963.75           2339      123357.00    547842.40
 1031.43        2964.00           2342      134821.00    599814.80
 1031.46        2964.25           2346      150979.00    673384.10
 1031.49        2964.50           2349      165317.00    738980.10
 1031.52        2964.75           2353      181130.00    811669.50
 1031.55        2965.00           2356      193729.00    869846.60
 1031.59        2965.25           2360      209419.00    942625.10
 1031.62        2965.50           2363      220087.00    992318.70
 1031.65        2965.75           2367      235573.00   1064761.00
 1031.69        2966.00           2370      247950.00   1122922.00
 1031.72        2966.25           2374      261909.00   1188800.00
 1031.75        2966.50           2378      271705.00   1235212.00
 1031.78        2966.75           2381      274598.00   1248947.00
 1031.81        2967.00           2385      276075.00   1255965.00
 1031.84        2967.25           2388      276523.00   1258094.00
 1031.87        2967.50           2392      276301.00   1257039.00
 1031.90        2967.75           2395      275877.00   1255024.00
 1031.93        2968.00           2399      272341.00   1238230.00
 1031.96        2968.25           2402      265041.00   1203623.00
 1031.99        2968.50           2406      251135.00   1137927.00
 1032.02        2968.75           2409      239589.00   1083607.00
 1032.05        2969.00           2413      225015.00   1015332.00
 1032.08        2969.25           2417      210559.00    947927.30
 1032.11        2969.50           2420      199579.00    896939.20
 1032.14        2969.75           2424      185132.00    830123.90
 1032.17        2970.00           2427      173216.00    775244.80
 1032.21        2970.25           2431      155784.00    695333.90
 1032.24        2970.50           2434      142718.00    635724.30
 1032.27        2970.75           2438      125759.00    558716.50
 1032.30        2971.00           2441      113648.00    503970.90
 1032.33        2971.25           2445       97352.00    430630.60
 1032.36        2971.50           2449       82673.00    364881.50
 1032.39        2971.75           2452       71377.00    314486.00
 1032.42        2972.00           2456       56476.00    248271.80
 1032.45        2972.25           2459       43167.00    189383.80
 1032.48        2972.50           2463       25505.00    111598.80
 1032.51        2972.75           2466       14737.00     64377.03
 1032.54        2973.00           2470        5451.00     23775.97
 1032.57        2973.25           2473        2636.00     11490.10
 1032.60        2973.50           2477        1570.00      6840.30
 1032.63        2973.75           2481        1437.00      6260.27
 1032.66        2974.00           2484        1363.00      5937.55
 1032.69        2974.25           2488        1364.00      5941.92
 1032.73        2974.50           2491        1347.00      5867.78
 1032.76        2974.75           2495        1312.00      5715.15
 1032.79        2975.00           2498        1300.00      5662.82
 1032.82        2975.25           2502        1277.00      5562.52
 1032.85        2975.50           2505        1281.00      5579.96
 1032.88        2975.75           2509        1260.00      5488.38
 1032.91        2976.00           2512        1215.00      5292.15
 1032.94        2976.25           2516        1232.00      5366.28
 1032.97        2976.50           2520        1232.00      5366.28
 1033.00        2976.75           2523        1160.00      5052.31
 1033.03        2977.00           2527        1187.00      5170.05
 1033.06        2977.25           2530        1183.00      5152.60
 1033.09        2977.50           2534        1177.00      5126.44
 1033.12        2977.75           2537        1197.00      5213.65
 1033.15        2978.00           2541        1153.00      5021.78
 1033.18        2978.25           2544        1132.00      4930.21
 1033.21        2978.50           2548        1131.00      4925.85
 1033.25        2978.75           2552        1117.00      4864.80
 1033.28        2979.00           2555        1078.00      4694.73
 1033.31        2979.25           2559        1094.00      4764.50
 1033.34        2979.50           2562        1083.00      4716.54
 1033.37        2979.75           2566        1077.00      4690.37
 1033.40        2980.00           2569        1078.00      4694.73
 1033.43        2980.25           2573        1082.00      4712.18
 1033.46        2980.50           2577        1071.00      4664.21
 1033.49        2980.75           2580        1050.00      4572.64
 1033.52        2981.00           2584        1059.00      4611.88
 1033.55        2981.25           2587        1071.00      4664.21
 1033.58        2981.50           2591        1024.00      4459.26
 1033.61        2981.75           2594        1023.00      4454.90
 1033.64        2982.00           2598        1064.00      4633.69
 1033.67        2982.25           2601        1044.00      4546.47
 1033.70        2982.50           2605        1027.00      4472.35
 1033.73        2982.75           2609         995.00      4332.81
 1033.77        2983.00           2612        1036.00      4511.59
 1033.80        2983.25           2616        1019.00      4437.46
 1033.83        2983.50           2619         998.00      4345.89
 1033.86        2983.75           2623        1020.00      4441.82
 1033.89        2984.00           2626         992.00      4319.73
HS scan finished at 17:14:07
end
