************************************************************
  HS Scan of (1) Internal mercury lamp
************************************************************
Integration time is 0.2294 seconds per sample
dh011217Reading 51.44 .94 2.45pr1000
************************************************************
Dead Time -------------------------  3.4E-08 
Number of Cycles Used -------------  4 
Starting Wavelength (Angstroms) ---  2950 
Final Wavelength (Angstoms) -------  2984 
Wavelength Increment (Angstroms) --  .25 
Filter Wheel #1 Position ---------- (1) Ground quartz diffuser (ND=2.32)
Filter Wheel #2 Position ---------- (1) Neutral Density 0.494



************************************************************
HS scan start time = 04:59:28
Dark Count =  .3 


Time (GMT)  Wavelength (Ang)  Step Number  Raw Counts  Counts/Second

  300.36        2950.00           2144         101.00       438.98
  300.55        2950.25           2147         105.00       456.42
  300.58        2950.50           2151         100.00       434.62
  300.61        2950.75           2155         102.00       443.34
  300.64        2951.00           2158          89.00       386.67
  300.67        2951.25           2162         121.00       526.16
  300.70        2951.50           2165          91.00       395.38
  300.73        2951.75           2169         100.00       434.62
  300.77        2952.00           2172          93.00       404.10
  300.80        2952.25           2176         100.00       434.62
  300.83        2952.50           2179         120.00       521.81
  300.86        2952.75           2183         124.00       539.24
  300.89        2953.00           2186          98.00       425.90
  300.92        2953.25           2190          97.00       421.54
  300.95        2953.50           2193          97.00       421.54
  300.98        2953.75           2197          96.00       417.18
  301.01        2954.00           2200         103.00       447.70
  301.04        2954.25           2204         129.00       561.04
  301.07        2954.50           2208         100.00       434.62
  301.10        2954.75           2211         128.00       556.68
  301.13        2955.00           2215          99.00       430.26
  301.16        2955.25           2218         108.00       469.49
  301.19        2955.50           2222         105.00       456.42
  301.22        2955.75           2225         106.00       460.77
  301.25        2956.00           2229         119.00       517.45
  301.29        2956.25           2232         108.00       469.49
  301.32        2956.50           2236         106.00       460.77
  301.35        2956.75           2239         108.00       469.49
  301.38        2957.00           2243         134.00       582.84
  301.41        2957.25           2246         113.00       491.29
  301.44        2957.50           2250         128.00       556.68
  301.47        2957.75           2254         115.00       500.01
  301.51        2958.00           2257         129.00       561.04
  301.55        2958.25           2261         114.00       495.65
  301.58        2958.50           2264         128.00       556.68
  301.61        2958.75           2268         139.00       604.63
  301.64        2959.00           2271         144.00       626.43
  301.67        2959.25           2275         120.00       521.81
  301.70        2959.50           2278         158.00       687.46
  301.73        2959.75           2282         136.00       591.56
  301.76        2960.00           2285         131.00       569.76
  301.79        2960.25           2289         128.00       556.68
  301.82        2960.50           2293         135.00       587.20
  301.85        2960.75           2296         131.00       569.76
  301.88        2961.00           2300         146.00       635.15
  301.91        2961.25           2303         210.00       914.15
  301.94        2961.50           2307         867.00      3778.60
  301.97        2961.75           2310        1799.00      7842.98
  302.00        2962.00           2314        3054.00     13317.71
  302.04        2962.25           2317        4058.00     17698.97
  302.07        2962.50           2321        5466.00     23845.40
  302.10        2962.75           2324        6644.00     28989.76
  302.13        2963.00           2328        8381.00     36578.60
  302.16        2963.25           2331        9653.00     42138.36
  302.19        2963.50           2335       11069.00     48330.01
  302.22        2963.75           2339       12713.00     55521.89
  302.25        2964.00           2342       14044.00     61347.10
  302.28        2964.25           2346       15900.00     69473.85
  302.31        2964.50           2349       17016.00     74362.58
  302.34        2964.75           2353       18419.00     80510.85
  302.37        2965.00           2356       19604.00     85705.79
  302.40        2965.25           2360       21098.00     92257.99
  302.43        2965.50           2363       22281.00     97448.31
  302.46        2965.75           2367       23414.00    102421.00
  302.49        2966.00           2370       24654.00    107865.20
  302.52        2966.25           2374       25859.00    113157.70
  302.55        2966.50           2378       26664.00    116694.40
  302.59        2966.75           2381       27021.00    118263.20
  302.62        2967.00           2385       27110.00    118654.30
  302.65        2967.25           2388       27051.00    118395.00
  302.68        2967.50           2392       27086.00    118548.80
  302.71        2967.75           2395       26611.00    116461.50
  302.74        2968.00           2399       25827.00    113017.10
  302.77        2968.25           2402       24903.00    108958.70
  302.80        2968.50           2406       23641.00    103417.50
  302.83        2968.75           2409       22700.00     99287.09
  302.86        2969.00           2413       21333.00     93288.88
  302.89        2969.25           2417       19872.00     86880.93
  302.92        2969.50           2420       18567.00     81159.57
  302.95        2969.75           2424       16944.00     74047.13
  302.98        2970.00           2427       15741.00     68777.47
  303.01        2970.25           2431       13879.00     60624.84
  303.04        2970.50           2434       12783.00     55828.19
  303.07        2970.75           2438       11095.00     48443.72
  303.11        2971.00           2441       10025.00     43764.73
  303.14        2971.25           2445        8492.00     37063.68
  303.17        2971.50           2449        6991.00     30505.47
  303.20        2971.75           2452        5855.00     25543.97
  303.23        2972.00           2456        4368.00     19052.01
  303.26        2972.25           2459        3241.00     14133.64
  303.29        2972.50           2463        1864.00      8126.48
  303.32        2972.75           2466        1039.00      4528.60
  303.35        2973.00           2470         323.00      1406.78
  303.38        2973.25           2473         167.00       726.70
  303.41        2973.50           2477         148.00       643.87
  303.44        2973.75           2481         149.00       648.23
  303.47        2974.00           2484         147.00       639.51
  303.50        2974.25           2488         136.00       591.56
  303.53        2974.50           2491         134.00       582.84
  303.56        2974.75           2495         122.00       530.52
  303.59        2975.00           2498         137.00       595.91
  303.63        2975.25           2502         123.00       534.88
  303.66        2975.50           2505         125.00       543.60
  303.69        2975.75           2509         111.00       482.57
  303.72        2976.00           2512         126.00       547.96
  303.75        2976.25           2516         166.00       722.34
  303.78        2976.50           2520         124.00       539.24
  303.81        2976.75           2523          92.00       399.74
  303.84        2977.00           2527         111.00       482.57
  303.87        2977.25           2530         104.00       452.06
  303.90        2977.50           2534         121.00       526.16
  303.93        2977.75           2537         106.00       460.77
  303.96        2978.00           2541         108.00       469.49
  303.99        2978.25           2544         118.00       513.09
  304.02        2978.50           2548         105.00       456.42
  304.05        2978.75           2552          97.00       421.54
  304.08        2979.00           2555          93.00       404.10
  304.11        2979.25           2559          96.00       417.18
  304.15        2979.50           2562          97.00       421.54
  304.18        2979.75           2566          97.00       421.54
  304.21        2980.00           2569          89.00       386.67
  304.24        2980.25           2573          93.00       404.10
  304.27        2980.50           2577         105.00       456.42
  304.30        2980.75           2580          91.00       395.38
  304.33        2981.00           2584          86.00       373.59
  304.36        2981.25           2587          98.00       425.90
  304.39        2981.50           2591          78.00       338.71
  304.42        2981.75           2594          90.00       391.03
  304.45        2982.00           2598          90.00       391.03
  304.48        2982.25           2601          95.00       412.82
  304.51        2982.50           2605          92.00       399.74
  304.54        2982.75           2609          96.00       417.18
  304.57        2983.00           2612          96.00       417.18
  304.60        2983.25           2616         118.00       513.09
  304.63        2983.50           2619          82.00       356.15
  304.67        2983.75           2623          85.00       369.23
  304.70        2984.00           2626         120.00       521.81
HS scan finished at 05:04:55
end
************************************************************
  HS Scan of (1) Internal mercury lamp
************************************************************
Integration time is 0.2294 seconds per sample
dh011217Reading 51.44 .94 2.9pr1000
************************************************************
Dead Time -------------------------  3.4E-08 
Number of Cycles Used -------------  4 
Starting Wavelength (Angstroms) ---  2950 
Final Wavelength (Angstoms) -------  2984 
Wavelength Increment (Angstroms) --  .25 
Filter Wheel #1 Position ---------- (1) Ground quartz diffuser (ND=2.32)
Filter Wheel #2 Position ---------- (1) Neutral Density 0.494



************************************************************
HS scan start time = 17:07:23
Dark Count =  .8 


Time (GMT)  Wavelength (Ang)  Step Number  Raw Counts  Counts/Second

 1028.28        2950.00           2144          78.00       336.53
 1028.47        2950.25           2147          82.00       353.97
 1028.50        2950.50           2151          84.00       362.69
 1028.53        2950.75           2155         105.00       454.24
 1028.57        2951.00           2158          86.00       371.41
 1028.60        2951.25           2162          89.00       384.49
 1028.63        2951.50           2165          88.00       380.13
 1028.66        2951.75           2169          75.00       323.46
 1028.69        2952.00           2172          86.00       371.41
 1028.72        2952.25           2176          84.00       362.69
 1028.75        2952.50           2179          82.00       353.97
 1028.78        2952.75           2183          88.00       380.13
 1028.81        2953.00           2186          90.00       388.85
 1028.84        2953.25           2190          86.00       371.41
 1028.87        2953.50           2193         106.00       458.59
 1028.90        2953.75           2197          81.00       349.61
 1028.93        2954.00           2200          80.00       345.25
 1028.96        2954.25           2204          84.00       362.69
 1028.99        2954.50           2208          86.00       371.41
 1029.02        2954.75           2211          90.00       388.85
 1029.05        2955.00           2215          85.00       367.05
 1029.09        2955.25           2218          91.00       393.20
 1029.12        2955.50           2222         108.00       467.31
 1029.15        2955.75           2225          96.00       415.00
 1029.18        2956.00           2229          95.00       410.64
 1029.21        2956.25           2232          94.00       406.28
 1029.24        2956.50           2236          94.00       406.28
 1029.27        2956.75           2239          97.00       419.36
 1029.30        2957.00           2243          97.00       419.36
 1029.33        2957.25           2246         100.00       432.44
 1029.36        2957.50           2250          92.00       397.56
 1029.39        2957.75           2254          98.00       423.72
 1029.42        2958.00           2257         110.00       476.03
 1029.45        2958.25           2261          99.00       428.08
 1029.48        2958.50           2264         123.00       532.70
 1029.51        2958.75           2268         106.00       458.59
 1029.54        2959.00           2271         135.00       585.02
 1029.57        2959.25           2275         139.00       602.45
 1029.61        2959.50           2278          98.00       423.72
 1029.64        2959.75           2282         145.00       628.61
 1029.67        2960.00           2285         130.00       563.22
 1029.70        2960.25           2289         121.00       523.98
 1029.73        2960.50           2293         108.00       467.31
 1029.76        2960.75           2296         130.00       563.22
 1029.79        2961.00           2300         152.00       659.13
 1029.82        2961.25           2303         204.00       885.82
 1029.85        2961.50           2307         804.00      3501.72
 1029.88        2961.75           2310        1689.00      7361.04
 1029.91        2962.00           2314        3037.00     13241.36
 1029.94        2962.25           2317        4134.00     18028.49
 1029.97        2962.50           2321        5462.00     23825.75
 1030.00        2962.75           2324        6459.00     28179.56
 1030.03        2963.00           2328        7849.00     34251.73
 1030.06        2963.25           2331        8821.00     38499.36
 1030.09        2963.50           2335       10468.00     45699.55
 1030.13        2963.75           2339       12078.00     52741.40
 1030.16        2964.00           2342       13324.00     58193.50
 1030.19        2964.25           2346       14762.00     64488.24
 1030.22        2964.50           2349       15765.00     68880.40
 1030.25        2964.75           2353       17392.00     76007.85
 1030.28        2965.00           2356       18436.00     80583.18
 1030.31        2965.25           2360       19543.00     85436.13
 1030.34        2965.50           2363       20822.00     91045.12
 1030.37        2965.75           2367       22025.00     96322.79
 1030.40        2966.00           2370       22978.00    100505.00
 1030.43        2966.25           2374       24067.00    105285.60
 1030.46        2966.50           2378       24634.00    107775.20
 1030.49        2966.75           2381       25149.00    110036.90
 1030.52        2967.00           2385       24834.00    108653.50
 1030.55        2967.25           2388       24869.00    108807.20
 1030.58        2967.50           2392       24901.00    108947.70
 1030.62        2967.75           2395       24501.00    107191.20
 1030.65        2968.00           2399       23646.00    103437.30
 1030.69        2968.25           2402       22986.00    100540.10
 1030.72        2968.50           2406       21221.00     92795.36
 1030.75        2968.75           2409       20389.00     89145.99
 1030.78        2969.00           2413       19070.00     83362.36
 1030.81        2969.25           2417       17745.00     77554.71
 1030.84        2969.50           2420       16896.00     73834.63
 1030.87        2969.75           2424       15406.00     67308.18
 1030.90        2970.00           2427       14554.00     63577.57
 1030.94        2970.25           2431       12960.00     56600.54
 1030.97        2970.50           2434       11833.00     51669.60
 1031.00        2970.75           2438       10345.00     45161.71
 1031.03        2971.00           2441        9108.00     39753.79
 1031.06        2971.25           2445        7885.00     34409.02
 1031.09        2971.50           2449        6465.00     28205.76
 1031.12        2971.75           2452        5454.00     23790.82
 1031.15        2972.00           2456        4005.00     17465.47
 1031.18        2972.25           2459        2932.00     12783.24
 1031.21        2972.50           2463        1660.00      7234.56
 1031.24        2972.75           2466         907.00      3950.84
 1031.27        2973.00           2470         280.00      1217.14
 1031.30        2973.25           2473         153.00       663.48
 1031.33        2973.50           2477         124.00       537.06
 1031.36        2973.75           2481         128.00       554.50
 1031.39        2974.00           2484         167.00       724.52
 1031.43        2974.25           2488         112.00       484.75
 1031.46        2974.50           2491         118.00       510.91
 1031.49        2974.75           2495         116.00       502.19
 1031.52        2975.00           2498         131.00       567.58
 1031.55        2975.25           2502         111.00       480.39
 1031.58        2975.50           2505         100.00       432.44
 1031.61        2975.75           2509          99.00       428.08
 1031.64        2976.00           2512         102.00       441.16
 1031.67        2976.25           2516          99.00       428.08
 1031.70        2976.50           2520          98.00       423.72
 1031.73        2976.75           2523          88.00       380.13
 1031.76        2977.00           2527          95.00       410.64
 1031.79        2977.25           2530         115.00       497.83
 1031.82        2977.50           2534          88.00       380.13
 1031.85        2977.75           2537         101.00       436.80
 1031.88        2978.00           2541          92.00       397.56
 1031.91        2978.25           2544          86.00       371.41
 1031.95        2978.50           2548          97.00       419.36
 1031.98        2978.75           2552          94.00       406.28
 1032.01        2979.00           2555          98.00       423.72
 1032.04        2979.25           2559          83.00       358.33
 1032.07        2979.50           2562         106.00       458.59
 1032.10        2979.75           2566          87.00       375.77
 1032.13        2980.00           2569          82.00       353.97
 1032.16        2980.25           2573          85.00       367.05
 1032.19        2980.50           2577          84.00       362.69
 1032.22        2980.75           2580          84.00       362.69
 1032.25        2981.00           2584          91.00       393.20
 1032.28        2981.25           2587          89.00       384.49
 1032.31        2981.50           2591          86.00       371.41
 1032.34        2981.75           2594          74.00       319.10
 1032.37        2982.00           2598          85.00       367.05
 1032.40        2982.25           2601          82.00       353.97
 1032.43        2982.50           2605          85.00       367.05
 1032.47        2982.75           2609          82.00       353.97
 1032.50        2983.00           2612          80.00       345.25
 1032.53        2983.25           2616          75.00       323.46
 1032.56        2983.50           2619          81.00       349.61
 1032.59        2983.75           2623          80.00       345.25
 1032.62        2984.00           2626          79.00       340.89
HS scan finished at 17:12:51
end
