************************************************************
  HS Scan of (1) Internal mercury lamp
************************************************************
Integration time is 0.2294 seconds per sample
dh041217Reading 51.44 .94 2.7pr1000
************************************************************
Dead Time -------------------------  3.4E-08 
Number of Cycles Used -------------  4 
Starting Wavelength (Angstroms) ---  2950 
Final Wavelength (Angstoms) -------  2984 
Wavelength Increment (Angstroms) --  .25 
Filter Wheel #1 Position ---------- (1) Ground quartz diffuser (ND=2.32)
Filter Wheel #2 Position ---------- (1) Neutral Density 0.494



************************************************************
HS scan start time = 04:59:45
Dark Count =  .5 


Time (GMT)  Wavelength (Ang)  Step Number  Raw Counts  Counts/Second

  300.65        2950.00           2144          85.00       368.36
  300.85        2950.25           2147          83.00       359.64
  300.89        2950.50           2151          88.00       381.43
  300.92        2950.75           2155          79.00       342.20
  300.95        2951.00           2158          85.00       368.36
  300.98        2951.25           2162          82.00       355.28
  301.01        2951.50           2165          89.00       385.79
  301.04        2951.75           2169          91.00       394.51
  301.07        2952.00           2172          84.00       364.00
  301.11        2952.25           2176          84.00       364.00
  301.14        2952.50           2179          91.00       394.51
  301.17        2952.75           2183          88.00       381.43
  301.20        2953.00           2186          94.00       407.59
  301.23        2953.25           2190          84.00       364.00
  301.26        2953.50           2193          90.00       390.15
  301.29        2953.75           2197          80.00       346.56
  301.32        2954.00           2200          87.00       377.08
  301.35        2954.25           2204          93.00       403.23
  301.38        2954.50           2208          88.00       381.43
  301.41        2954.75           2211          84.00       364.00
  301.44        2955.00           2215          87.00       377.08
  301.47        2955.25           2218          92.00       398.87
  301.50        2955.50           2222          85.00       368.36
  301.53        2955.75           2225          86.00       372.72
  301.56        2956.00           2229          88.00       381.43
  301.59        2956.25           2232          86.00       372.72
  301.63        2956.50           2236          86.00       372.72
  301.66        2956.75           2239          83.00       359.64
  301.69        2957.00           2243          96.00       416.31
  301.72        2957.25           2246          83.00       359.64
  301.75        2957.50           2250          92.00       398.87
  301.78        2957.75           2254         101.00       438.11
  301.81        2958.00           2257          95.00       411.95
  301.84        2958.25           2261         125.00       542.73
  301.87        2958.50           2264         120.00       520.93
  301.90        2958.75           2268         122.00       529.65
  301.93        2959.00           2271         120.00       520.93
  301.96        2959.25           2275         103.00       446.82
  301.99        2959.50           2278         119.00       516.57
  302.02        2959.75           2282         125.00       542.73
  302.05        2960.00           2285         121.00       525.29
  302.08        2960.25           2289         133.00       577.61
  302.11        2960.50           2293         147.00       638.64
  302.15        2960.75           2296         139.00       603.76
  302.18        2961.00           2300         146.00       634.28
  302.21        2961.25           2303         313.00      1362.31
  302.24        2961.50           2307        1094.00      4767.56
  302.27        2961.75           2310        1927.00      8400.39
  302.30        2962.00           2314        3152.00     13744.43
  302.33        2962.25           2317        4114.00     17942.50
  302.36        2962.50           2321        5443.00     23744.10
  302.39        2962.75           2324        6357.00     27735.38
  302.42        2963.00           2328        7794.00     34012.72
  302.45        2963.25           2331        8946.00     39047.01
  302.48        2963.50           2335       10479.00     45748.96
  302.51        2963.75           2339       11955.00     52204.62
  302.54        2964.00           2342       13063.00     57052.59
  302.57        2964.25           2346       14325.00     62576.33
  302.60        2964.50           2349       15500.00     67721.15
  302.63        2964.75           2353       17122.00     74826.13
  302.67        2965.00           2356       18186.00     79488.74
  302.70        2965.25           2360       19495.00     85226.99
  302.73        2965.50           2363       20295.00     88735.06
  302.76        2965.75           2367       21434.00     93731.10
  302.79        2966.00           2370       22327.00     97649.30
  302.82        2966.25           2374       22813.00     99782.14
  302.85        2966.50           2378       23826.00    104228.80
  302.88        2966.75           2381       23956.00    104799.50
  302.91        2967.00           2385       24043.00    105181.50
  302.94        2967.25           2388       23690.00    103631.70
  302.97        2967.50           2392       23718.00    103754.60
  303.00        2967.75           2395       23552.00    103025.90
  303.03        2968.00           2399       22793.00     99694.38
  303.06        2968.25           2402       22043.00     96403.08
  303.09        2968.50           2406       20845.00     91147.34
  303.12        2968.75           2409       19722.00     86222.32
  303.15        2969.00           2413       18520.00     80952.68
  303.19        2969.25           2417       16970.00     74160.18
  303.22        2969.50           2420       15780.00     68947.41
  303.25        2969.75           2424       14309.00     62506.29
  303.28        2970.00           2427       13246.00     57853.45
  303.31        2970.25           2431       11820.00     51614.04
  303.34        2970.50           2434       10677.00     46614.80
  303.37        2970.75           2438        9256.00     40402.02
  303.40        2971.00           2441        8221.00     35878.53
  303.43        2971.25           2445        6943.00     30294.92
  303.46        2971.50           2449        5673.00     24748.37
  303.49        2971.75           2452        4674.00     20386.84
  303.52        2972.00           2456        3240.00     14128.41
  303.55        2972.25           2459        2248.00      9800.56
  303.58        2972.50           2463        1060.00      4619.30
  303.61        2972.75           2466         465.00      2024.99
  303.64        2973.00           2470         177.00       769.42
  303.67        2973.25           2473         159.00       690.95
  303.70        2973.50           2477         121.00       525.29
  303.74        2973.75           2481         119.00       516.57
  303.77        2974.00           2484         119.00       516.57
  303.80        2974.25           2488         127.00       551.45
  303.83        2974.50           2491         100.00       433.75
  303.86        2974.75           2495         124.00       538.37
  303.89        2975.00           2498         106.00       459.90
  303.92        2975.25           2502         124.00       538.37
  303.95        2975.50           2505          96.00       416.31
  303.98        2975.75           2509         118.00       512.21
  304.01        2976.00           2512         115.00       499.14
  304.04        2976.25           2516         117.00       507.86
  304.07        2976.50           2520          90.00       390.15
  304.10        2976.75           2523         120.00       520.93
  304.13        2977.00           2527          88.00       381.43
  304.16        2977.25           2530         115.00       499.14
  304.19        2977.50           2534          96.00       416.31
  304.22        2977.75           2537          98.00       425.03
  304.26        2978.00           2541          96.00       416.31
  304.29        2978.25           2544          91.00       394.51
  304.32        2978.50           2548          96.00       416.31
  304.35        2978.75           2552          90.00       390.15
  304.38        2979.00           2555          86.00       372.72
  304.41        2979.25           2559          88.00       381.43
  304.44        2979.50           2562          82.00       355.28
  304.47        2979.75           2566          80.00       346.56
  304.50        2980.00           2569          86.00       372.72
  304.53        2980.25           2573          88.00       381.43
  304.56        2980.50           2577          84.00       364.00
  304.59        2980.75           2580          82.00       355.28
  304.62        2981.00           2584          88.00       381.43
  304.65        2981.25           2587          90.00       390.15
  304.68        2981.50           2591          81.00       350.92
  304.71        2981.75           2594          88.00       381.43
  304.74        2982.00           2598          82.00       355.28
  304.78        2982.25           2601          87.00       377.08
  304.81        2982.50           2605          82.00       355.28
  304.84        2982.75           2609          85.00       368.36
  304.87        2983.00           2612         102.00       442.47
  304.90        2983.25           2616          79.00       342.20
  304.93        2983.50           2619          77.00       333.48
  304.96        2983.75           2623          78.00       337.84
  304.99        2984.00           2626          82.00       355.28
HS scan finished at 05:05:13
end
************************************************************
  HS Scan of (1) Internal mercury lamp
************************************************************
Integration time is 0.2294 seconds per sample
dh041217Reading 51.44 .94 3.11pr1000
************************************************************
Dead Time -------------------------  3.4E-08 
Number of Cycles Used -------------  4 
Starting Wavelength (Angstroms) ---  2950 
Final Wavelength (Angstoms) -------  2984 
Wavelength Increment (Angstroms) --  .25 
Filter Wheel #1 Position ---------- (1) Ground quartz diffuser (ND=2.32)
Filter Wheel #2 Position ---------- (1) Neutral Density 0.494



************************************************************
HS scan start time = 16:37:23
Dark Count =  1 


Time (GMT)  Wavelength (Ang)  Step Number  Raw Counts  Counts/Second

  998.28        2950.00           2144          78.00       335.66
  998.47        2950.25           2147          74.00       318.22
  998.51        2950.50           2151          79.00       340.02
  998.54        2950.75           2155          82.00       353.10
  998.57        2951.00           2158          85.00       366.18
  998.60        2951.25           2162          78.00       335.66
  998.63        2951.50           2165          81.00       348.74
  998.66        2951.75           2169          89.00       383.61
  998.69        2952.00           2172          83.00       357.46
  998.72        2952.25           2176          84.00       361.82
  998.75        2952.50           2179          71.00       305.15
  998.78        2952.75           2183          77.00       331.30
  998.81        2953.00           2186          84.00       361.82
  998.84        2953.25           2190          82.00       353.10
  998.87        2953.50           2193          77.00       331.30
  998.90        2953.75           2197          80.00       344.38
  998.93        2954.00           2200          80.00       344.38
  998.96        2954.25           2204          83.00       357.46
  998.99        2954.50           2208          83.00       357.46
  999.03        2954.75           2211          85.00       366.18
  999.06        2955.00           2215          83.00       357.46
  999.09        2955.25           2218          84.00       361.82
  999.12        2955.50           2222          84.00       361.82
  999.15        2955.75           2225          90.00       387.97
  999.18        2956.00           2229          90.00       387.97
  999.21        2956.25           2232          92.00       396.69
  999.24        2956.50           2236          81.00       348.74
  999.27        2956.75           2239          91.00       392.33
  999.30        2957.00           2243          90.00       387.97
  999.33        2957.25           2246          95.00       409.77
  999.36        2957.50           2250          92.00       396.69
  999.39        2957.75           2254          97.00       418.49
  999.42        2958.00           2257          95.00       409.77
  999.45        2958.25           2261         101.00       435.93
  999.48        2958.50           2264          96.00       414.13
  999.51        2958.75           2268          95.00       409.77
  999.55        2959.00           2271         126.00       544.91
  999.58        2959.25           2275          99.00       427.21
  999.61        2959.50           2278         119.00       514.39
  999.64        2959.75           2282         104.00       449.00
  999.67        2960.00           2285         108.00       466.44
  999.70        2960.25           2289         116.00       501.32
  999.73        2960.50           2293         106.00       457.72
  999.76        2960.75           2296         117.00       505.68
  999.79        2961.00           2300         159.00       688.77
  999.82        2961.25           2303         342.00      1486.56
  999.85        2961.50           2307        1201.00      5231.97
  999.88        2961.75           2310        2069.00      9017.59
  999.91        2962.00           2314        3402.00     14833.11
  999.94        2962.25           2317        4508.00     19660.04
  999.97        2962.50           2321        5819.00     25383.71
 1000.00        2962.75           2324        6802.00     29676.84
 1000.03        2963.00           2328        8293.00     36190.97
 1000.07        2963.25           2331        9490.00     41422.73
 1000.10        2963.50           2335       10965.00     47872.10
 1000.13        2963.75           2339       12243.00     53462.39
 1000.16        2964.00           2342       13296.00     58070.08
 1000.19        2964.25           2346       14686.00     64154.62
 1000.22        2964.50           2349       16043.00     70097.12
 1000.25        2964.75           2353       17493.00     76449.56
 1000.28        2965.00           2356       18524.00     80968.02
 1000.31        2965.25           2360       19815.00     86627.92
 1000.34        2965.50           2363       20853.00     91180.24
 1000.37        2965.75           2367       22450.00     98186.87
 1000.40        2966.00           2370       23296.00    101900.00
 1000.43        2966.25           2374       24685.00    107998.30
 1000.46        2966.50           2378       25200.00    110260.00
 1000.49        2966.75           2381       25619.00    112100.40
 1000.52        2967.00           2385       25383.00    111063.80
 1000.55        2967.25           2388       25568.00    111876.40
 1000.59        2967.50           2392       25206.00    110286.40
 1000.62        2967.75           2395       25248.00    110470.80
 1000.65        2968.00           2399       24341.00    106487.70
 1000.68        2968.25           2402       23430.00    102488.20
 1000.71        2968.50           2406       22116.00     96721.22
 1000.74        2968.75           2409       20948.00     91596.93
 1000.77        2969.00           2413       19475.00     85137.11
 1000.80        2969.25           2417       18078.00     79013.21
 1000.83        2969.50           2420       16629.00     72664.04
 1000.86        2969.75           2424       14816.00     64723.80
 1000.89        2970.00           2427       13590.00     59356.81
 1000.92        2970.25           2431       11996.00     52381.79
 1000.95        2970.50           2434       10902.00     47596.58
 1000.98        2970.75           2438        9387.00     40972.47
 1001.01        2971.00           2441        8317.00     36295.85
 1001.04        2971.25           2445        7047.00     30747.04
 1001.07        2971.50           2449        5596.00     24409.96
 1001.10        2971.75           2452        4450.00     19406.87
 1001.14        2972.00           2456        3095.00     13493.55
 1001.17        2972.25           2459        2259.00      9846.37
 1001.20        2972.50           2463        1070.00      4660.72
 1001.23        2972.75           2466         528.00      2297.48
 1001.26        2973.00           2470         184.00       797.75
 1001.29        2973.25           2473         160.00       693.13
 1001.32        2973.50           2477         141.00       610.30
 1001.35        2973.75           2481         114.00       492.60
 1001.38        2974.00           2484         109.00       470.80
 1001.41        2974.25           2488         101.00       435.93
 1001.44        2974.50           2491          97.00       418.49
 1001.47        2974.75           2495          99.00       427.21
 1001.50        2975.00           2498          97.00       418.49
 1001.53        2975.25           2502          93.00       401.05
 1001.56        2975.50           2505          95.00       409.77
 1001.59        2975.75           2509         107.00       462.08
 1001.62        2976.00           2512          83.00       357.46
 1001.66        2976.25           2516          88.00       379.26
 1001.69        2976.50           2520          91.00       392.33
 1001.72        2976.75           2523          87.00       374.90
 1001.75        2977.00           2527         110.00       475.16
 1001.78        2977.25           2530          88.00       379.26
 1001.82        2977.50           2534          89.00       383.61
 1001.85        2977.75           2537          90.00       387.97
 1001.88        2978.00           2541          87.00       374.90
 1001.91        2978.25           2544         122.00       527.47
 1001.94        2978.50           2548          82.00       353.10
 1001.97        2978.75           2552          89.00       383.61
 1002.00        2979.00           2555          87.00       374.90
 1002.03        2979.25           2559          71.00       305.15
 1002.06        2979.50           2562          86.00       370.54
 1002.09        2979.75           2566          72.00       309.51
 1002.12        2980.00           2569          81.00       348.74
 1002.15        2980.25           2573          77.00       331.30
 1002.18        2980.50           2577          84.00       361.82
 1002.21        2980.75           2580          80.00       344.38
 1002.24        2981.00           2584          80.00       344.38
 1002.27        2981.25           2587          79.00       340.02
 1002.30        2981.50           2591          79.00       340.02
 1002.33        2981.75           2594          78.00       335.66
 1002.37        2982.00           2598          76.00       326.94
 1002.40        2982.25           2601          73.00       313.87
 1002.43        2982.50           2605          77.00       331.30
 1002.46        2982.75           2609          71.00       305.15
 1002.49        2983.00           2612          77.00       331.30
 1002.52        2983.25           2616          73.00       313.87
 1002.55        2983.50           2619          69.00       296.43
 1002.58        2983.75           2623          79.00       340.02
 1002.61        2984.00           2626          74.00       318.22
HS scan finished at 16:42:50
end
