************************************************************
  HS Scan of (1) Internal mercury lamp
************************************************************
Integration time is 0.2294 seconds per sample
dh301117Reading 51.44 .94 2.25pr1000
************************************************************
Dead Time -------------------------  3.4E-08 
Number of Cycles Used -------------  4 
Starting Wavelength (Angstroms) ---  2950 
Final Wavelength (Angstoms) -------  2984 
Wavelength Increment (Angstroms) --  .25 
Filter Wheel #1 Position ---------- (1) Ground quartz diffuser (ND=2.32)
Filter Wheel #2 Position ---------- (1) Neutral Density 0.494



************************************************************
HS scan start time = 04:58:25
Dark Count =  .4 


Time (GMT)  Wavelength (Ang)  Step Number  Raw Counts  Counts/Second

  299.31        2950.00           2144          97.00       421.10
  299.50        2950.25           2147         115.00       499.57
  299.53        2950.50           2151          99.00       429.82
  299.56        2950.75           2155          93.00       403.67
  299.59        2951.00           2158         124.00       538.81
  299.62        2951.25           2162          91.00       394.95
  299.65        2951.50           2165         119.00       517.01
  299.69        2951.75           2169         105.00       455.98
  299.72        2952.00           2172          99.00       429.82
  299.76        2952.25           2176         101.00       438.54
  299.79        2952.50           2179         103.00       447.26
  299.82        2952.75           2183          97.00       421.10
  299.85        2953.00           2186         102.00       442.90
  299.88        2953.25           2190          99.00       429.82
  299.91        2953.50           2193         140.00       608.56
  299.95        2953.75           2197          94.00       408.03
  299.98        2954.00           2200         112.00       486.49
  300.01        2954.25           2204          99.00       429.82
  300.04        2954.50           2208          95.00       412.39
  300.07        2954.75           2211         126.00       547.53
  300.10        2955.00           2215         100.00       434.18
  300.13        2955.25           2218         101.00       438.54
  300.16        2955.50           2222         153.00       665.23
  300.19        2955.75           2225         147.00       639.07
  300.22        2956.00           2229         114.00       495.21
  300.25        2956.25           2232         113.00       490.85
  300.28        2956.50           2236         109.00       473.42
  300.31        2956.75           2239         124.00       538.81
  300.34        2957.00           2243         111.00       482.14
  300.37        2957.25           2246         102.00       442.90
  300.40        2957.50           2250         112.00       486.49
  300.43        2957.75           2254         147.00       639.07
  300.47        2958.00           2257         146.00       634.71
  300.50        2958.25           2261         109.00       473.42
  300.53        2958.50           2264         118.00       512.65
  300.56        2958.75           2268         122.00       530.09
  300.59        2959.00           2271         123.00       534.45
  300.62        2959.25           2275         116.00       503.93
  300.65        2959.50           2278         128.00       556.24
  300.68        2959.75           2282         113.00       490.85
  300.71        2960.00           2285         150.00       652.15
  300.74        2960.25           2289         134.00       582.40
  300.77        2960.50           2293         136.00       591.12
  300.80        2960.75           2296         126.00       547.53
  300.83        2961.00           2300         137.00       595.48
  300.86        2961.25           2303         240.00      1044.50
  300.89        2961.50           2307         834.00      3634.28
  300.92        2961.75           2310        1606.00      7000.79
  300.95        2962.00           2314        2920.00     12732.63
  300.99        2962.25           2317        4014.00     17506.50
  301.02        2962.50           2321        5317.00     23194.40
  301.05        2962.75           2324        6238.00     27216.11
  301.08        2963.00           2328        7668.00     33462.63
  301.11        2963.25           2331        8836.00     38566.67
  301.14        2963.50           2335       10338.00     45132.85
  301.17        2963.75           2339       11764.00     51369.50
  301.20        2964.00           2342       12730.00     55595.84
  301.23        2964.25           2346       14109.00     61631.19
  301.26        2964.50           2349       15307.00     66876.40
  301.29        2964.75           2353       16878.00     73757.53
  301.32        2965.00           2356       18271.00     79861.72
  301.35        2965.25           2360       19641.00     85867.59
  301.38        2965.50           2363       20454.00     89432.81
  301.41        2965.75           2367       21683.00     94823.97
  301.44        2966.00           2370       22784.00     99655.31
  301.47        2966.25           2374       24061.00    105261.00
  301.51        2966.50           2378       24800.00    108505.90
  301.54        2966.75           2381       24956.00    109191.00
  301.57        2967.00           2385       25194.00    110236.30
  301.60        2967.25           2388       25173.00    110144.10
  301.63        2967.50           2392       24912.00    108997.80
  301.66        2967.75           2395       25174.00    110148.50
  301.69        2968.00           2399       24604.00    107645.20
  301.72        2968.25           2402       23870.00    104422.40
  301.75        2968.50           2406       22309.00     97570.75
  301.78        2968.75           2409       21210.00     92748.86
  301.81        2969.00           2413       19612.00     85740.43
  301.84        2969.25           2417       18218.00     79629.43
  301.87        2969.50           2420       17079.00     74638.18
  301.90        2969.75           2424       15808.00     69070.47
  301.93        2970.00           2427       14664.00     64060.92
  301.96        2970.25           2431       12798.00     55893.39
  301.99        2970.50           2434       11688.00     51037.05
  302.03        2970.75           2438       10255.00     44769.93
  302.06        2971.00           2441        9070.00     39589.43
  302.09        2971.25           2445        7737.00     33764.11
  302.12        2971.50           2449        6316.00     27556.76
  302.15        2971.75           2452        5345.00     23316.65
  302.18        2972.00           2456        3750.00     16354.34
  302.21        2972.25           2459        2723.00     11873.15
  302.24        2972.50           2463        1458.00      6355.34
  302.27        2972.75           2466         689.00      3002.05
  302.30        2973.00           2470         237.00      1031.42
  302.33        2973.25           2473         156.00       678.31
  302.36        2973.50           2477         138.00       599.84
  302.39        2973.75           2481         157.00       682.67
  302.42        2974.00           2484         159.00       691.39
  302.45        2974.25           2488         135.00       586.76
  302.48        2974.50           2491         140.00       608.56
  302.51        2974.75           2495         134.00       582.40
  302.55        2975.00           2498         130.00       564.96
  302.58        2975.25           2502         121.00       525.73
  302.61        2975.50           2505         119.00       517.01
  302.64        2975.75           2509         117.00       508.29
  302.67        2976.00           2512         135.00       586.76
  302.70        2976.25           2516         114.00       495.21
  302.73        2976.50           2520         122.00       530.09
  302.76        2976.75           2523         111.00       482.14
  302.79        2977.00           2527         124.00       538.81
  302.82        2977.25           2530         117.00       508.29
  302.85        2977.50           2534         103.00       447.26
  302.88        2977.75           2537         160.00       695.74
  302.91        2978.00           2541         109.00       473.42
  302.94        2978.25           2544         109.00       473.42
  302.97        2978.50           2548         138.00       599.84
  303.00        2978.75           2552         102.00       442.90
  303.03        2979.00           2555         116.00       503.93
  303.06        2979.25           2559         125.00       543.17
  303.10        2979.50           2562         106.00       460.34
  303.13        2979.75           2566         106.00       460.34
  303.16        2980.00           2569         100.00       434.18
  303.19        2980.25           2573         102.00       442.90
  303.22        2980.50           2577         106.00       460.34
  303.25        2980.75           2580          94.00       408.03
  303.28        2981.00           2584         104.00       451.62
  303.31        2981.25           2587         104.00       451.62
  303.34        2981.50           2591         104.00       451.62
  303.37        2981.75           2594         100.00       434.18
  303.40        2982.00           2598         110.00       477.78
  303.43        2982.25           2601          98.00       425.46
  303.46        2982.50           2605          93.00       403.67
  303.49        2982.75           2609         105.00       455.98
  303.52        2983.00           2612          93.00       403.67
  303.55        2983.25           2616          99.00       429.82
  303.58        2983.50           2619          91.00       394.95
  303.62        2983.75           2623         104.00       451.62
  303.65        2984.00           2626          94.00       408.03
HS scan finished at 05:03:52
end
************************************************************
  HS Scan of (1) Internal mercury lamp
************************************************************
Integration time is 0.2294 seconds per sample
dh301117Reading 51.44 .94 2.66pr1000
************************************************************
Dead Time -------------------------  3.4E-08 
Number of Cycles Used -------------  4 
Starting Wavelength (Angstroms) ---  2950 
Final Wavelength (Angstoms) -------  2984 
Wavelength Increment (Angstroms) --  .25 
Filter Wheel #1 Position ---------- (1) Ground quartz diffuser (ND=2.32)
Filter Wheel #2 Position ---------- (1) Neutral Density 0.494



************************************************************
HS scan start time = 17:07:22
Dark Count =  .4 


Time (GMT)  Wavelength (Ang)  Step Number  Raw Counts  Counts/Second

 1028.26        2950.00           2144          85.00       368.79
 1028.45        2950.25           2147          87.00       377.51
 1028.48        2950.50           2151          85.00       368.79
 1028.51        2950.75           2155          88.00       381.87
 1028.54        2951.00           2158          89.00       386.23
 1028.57        2951.25           2162          86.00       373.15
 1028.60        2951.50           2165          98.00       425.46
 1028.64        2951.75           2169          93.00       403.67
 1028.67        2952.00           2172          87.00       377.51
 1028.70        2952.25           2176          91.00       394.95
 1028.73        2952.50           2179         108.00       469.06
 1028.76        2952.75           2183          87.00       377.51
 1028.79        2953.00           2186          86.00       373.15
 1028.82        2953.25           2190          86.00       373.15
 1028.85        2953.50           2193          84.00       364.43
 1028.88        2953.75           2197         109.00       473.42
 1028.91        2954.00           2200          89.00       386.23
 1028.94        2954.25           2204          84.00       364.43
 1028.97        2954.50           2208          97.00       421.10
 1029.00        2954.75           2211          91.00       394.95
 1029.03        2955.00           2215          92.00       399.31
 1029.06        2955.25           2218          96.00       416.75
 1029.09        2955.50           2222          90.00       390.59
 1029.12        2955.75           2225          97.00       421.10
 1029.16        2956.00           2229          97.00       421.10
 1029.19        2956.25           2232          98.00       425.46
 1029.22        2956.50           2236          90.00       390.59
 1029.25        2956.75           2239          93.00       403.67
 1029.28        2957.00           2243          90.00       390.59
 1029.31        2957.25           2246          95.00       412.39
 1029.34        2957.50           2250          96.00       416.75
 1029.37        2957.75           2254          95.00       412.39
 1029.40        2958.00           2257         133.00       578.04
 1029.43        2958.25           2261         117.00       508.29
 1029.46        2958.50           2264         105.00       455.98
 1029.49        2958.75           2268         102.00       442.90
 1029.52        2959.00           2271         103.00       447.26
 1029.55        2959.25           2275         113.00       490.85
 1029.58        2959.50           2278         104.00       451.62
 1029.61        2959.75           2282         103.00       447.26
 1029.64        2960.00           2285         126.00       547.53
 1029.68        2960.25           2289         131.00       569.32
 1029.71        2960.50           2293         109.00       473.42
 1029.74        2960.75           2296         137.00       595.48
 1029.77        2961.00           2300         154.00       669.59
 1029.80        2961.25           2303         254.00      1105.53
 1029.83        2961.50           2307         910.00      3965.66
 1029.86        2961.75           2310        1870.00      8152.22
 1029.89        2962.00           2314        3038.00     13247.47
 1029.92        2962.25           2317        3982.00     17366.84
 1029.95        2962.50           2321        5177.00     22583.16
 1029.98        2962.75           2324        6110.00     26657.11
 1030.01        2963.00           2328        7588.00     33113.11
 1030.04        2963.25           2331        8701.00     37976.64
 1030.07        2963.50           2335       10060.00     43917.32
 1030.10        2963.75           2339       11479.00     50122.84
 1030.13        2964.00           2342       12615.00     55092.64
 1030.16        2964.25           2346       13812.00     60331.13
 1030.20        2964.50           2349       14918.00     65173.03
 1030.23        2964.75           2353       16368.00     71523.33
 1030.26        2965.00           2356       17449.00     76259.37
 1030.29        2965.25           2360       18844.00     82373.37
 1030.32        2965.50           2363       19694.00     86099.98
 1030.35        2965.75           2367       21103.00     92279.49
 1030.38        2966.00           2370       22046.00     96416.68
 1030.41        2966.25           2374       22951.00    100388.30
 1030.44        2966.50           2378       23531.00    102934.20
 1030.47        2966.75           2381       23688.00    103623.40
 1030.50        2967.00           2385       23496.00    102780.50
 1030.53        2967.25           2388       23557.00    103048.30
 1030.56        2967.50           2392       23469.00    102662.00
 1030.59        2967.75           2395       23265.00    101766.50
 1030.62        2968.00           2399       22292.00     97496.15
 1030.65        2968.25           2402       21235.00     92858.53
 1030.68        2968.50           2406       20079.00     87788.24
 1030.72        2968.75           2409       19551.00     85472.96
 1030.75        2969.00           2413       18596.00     81286.25
 1030.78        2969.25           2417       17151.00     74953.63
 1030.81        2969.50           2420       16004.00     69928.93
 1030.84        2969.75           2424       14910.00     65138.00
 1030.87        2970.00           2427       13644.00     59595.79
 1030.90        2970.25           2431       11840.00     51701.97
 1030.93        2970.50           2434       10807.00     47183.74
 1030.96        2970.75           2438        9510.00     41512.78
 1030.99        2971.00           2441        8514.00     37159.38
 1031.02        2971.25           2445        7228.00     31540.35
 1031.05        2971.50           2449        5844.00     25495.50
 1031.08        2971.75           2452        4885.00     21308.37
 1031.11        2972.00           2456        3671.00     16009.58
 1031.14        2972.25           2459        2721.00     11864.42
 1031.17        2972.50           2463        1476.00      6433.84
 1031.20        2972.75           2466         693.00      3019.49
 1031.24        2973.00           2470         223.00       970.39
 1031.27        2973.25           2473         172.00       748.06
 1031.30        2973.50           2477         140.00       608.56
 1031.33        2973.75           2481         145.00       630.35
 1031.36        2974.00           2484         127.00       551.88
 1031.39        2974.25           2488         104.00       451.62
 1031.42        2974.50           2491         107.00       464.70
 1031.45        2974.75           2495         124.00       538.81
 1031.48        2975.00           2498          98.00       425.46
 1031.51        2975.25           2502         104.00       451.62
 1031.54        2975.50           2505         109.00       473.42
 1031.57        2975.75           2509         101.00       438.54
 1031.60        2976.00           2512         104.00       451.62
 1031.63        2976.25           2516          99.00       429.82
 1031.66        2976.50           2520         100.00       434.18
 1031.69        2976.75           2523          94.00       408.03
 1031.72        2977.00           2527         101.00       438.54
 1031.76        2977.25           2530          91.00       394.95
 1031.79        2977.50           2534          96.00       416.75
 1031.82        2977.75           2537          80.00       347.00
 1031.85        2978.00           2541          99.00       429.82
 1031.88        2978.25           2544          87.00       377.51
 1031.91        2978.50           2548          87.00       377.51
 1031.94        2978.75           2552          84.00       364.43
 1031.97        2979.00           2555          88.00       381.87
 1032.00        2979.25           2559          84.00       364.43
 1032.03        2979.50           2562          81.00       351.36
 1032.06        2979.75           2566         102.00       442.90
 1032.09        2980.00           2569          84.00       364.43
 1032.12        2980.25           2573          92.00       399.31
 1032.15        2980.50           2577          91.00       394.95
 1032.18        2980.75           2580          73.00       316.48
 1032.21        2981.00           2584          85.00       368.79
 1032.24        2981.25           2587          78.00       338.28
 1032.28        2981.50           2591          81.00       351.36
 1032.31        2981.75           2594          83.00       360.07
 1032.34        2982.00           2598          73.00       316.48
 1032.37        2982.25           2601          74.00       320.84
 1032.40        2982.50           2605          77.00       333.92
 1032.43        2982.75           2609          74.00       320.84
 1032.46        2983.00           2612          86.00       373.15
 1032.49        2983.25           2616          77.00       333.92
 1032.52        2983.50           2619          79.00       342.64
 1032.55        2983.75           2623          83.00       360.07
 1032.58        2984.00           2626          75.00       325.20
HS scan finished at 17:12:48
end
