************************************************************
  HS Scan of (1) Internal mercury lamp
************************************************************
Integration time is 0.2294 seconds per sample
dh051218Reading 51.44 .94 2.7pr1000
************************************************************
Dead Time -------------------------  3.4E-08 
Number of Cycles Used -------------  4 
Starting Wavelength (Angstroms) ---  2950 
Final Wavelength (Angstoms) -------  2984 
Wavelength Increment (Angstroms) --  .25 
Filter Wheel #1 Position ---------- (1) Ground quartz diffuser (ND=2.32)
Filter Wheel #2 Position ---------- (1) Neutral Density 0.494



************************************************************
HS scan start time = 05:00:31
Dark Count =  .7 


Time (GMT)  Wavelength (Ang)  Step Number  Raw Counts  Counts/Second

  301.41        2950.00           2144        1629.00      7099.80
  301.60        2950.25           2147        1620.00      7060.54
  301.63        2950.50           2151        1581.00      6890.45
  301.66        2950.75           2155        1605.00      6995.12
  301.69        2951.00           2158        1611.00      7021.29
  301.73        2951.25           2162        1617.00      7047.46
  301.76        2951.50           2165        1577.00      6873.01
  301.79        2951.75           2169        1606.00      6999.49
  301.82        2952.00           2172        1598.00      6964.60
  301.85        2952.25           2176        1584.00      6903.54
  301.88        2952.50           2179        1599.00      6968.96
  301.91        2952.75           2183        1616.00      7043.10
  301.94        2953.00           2186        1624.00      7077.99
  301.97        2953.25           2190        1628.00      7095.43
  302.00        2953.50           2193        1629.00      7099.80
  302.03        2953.75           2197        1678.00      7313.50
  302.06        2954.00           2200        1635.00      7125.96
  302.09        2954.25           2204        1677.00      7309.14
  302.12        2954.50           2208        1639.00      7143.41
  302.15        2954.75           2211        1691.00      7370.20
  302.18        2955.00           2215        1656.00      7217.55
  302.21        2955.25           2218        1752.00      7636.25
  302.25        2955.50           2222        1713.00      7466.15
  302.28        2955.75           2225        1740.00      7583.91
  302.31        2956.00           2229        1698.00      7400.73
  302.34        2956.25           2232        1768.00      7706.03
  302.37        2956.50           2236        1761.00      7675.50
  302.40        2956.75           2239        1771.00      7719.11
  302.43        2957.00           2243        1752.00      7636.25
  302.46        2957.25           2246        1822.00      7941.55
  302.49        2957.50           2250        1803.00      7858.68
  302.52        2957.75           2254        1822.00      7941.55
  302.55        2958.00           2257        1859.00      8102.93
  302.58        2958.25           2261        1859.00      8102.93
  302.61        2958.50           2264        1878.00      8185.80
  302.64        2958.75           2268        1896.00      8264.31
  302.67        2959.00           2271        1876.00      8177.08
  302.70        2959.25           2275        1906.00      8307.93
  302.73        2959.50           2278        1992.00      8683.04
  302.77        2959.75           2282        1986.00      8656.86
  302.80        2960.00           2285        1996.00      8700.48
  302.83        2960.25           2289        2047.00      8922.93
  302.86        2960.50           2293        2090.00      9110.49
  302.89        2960.75           2296        2148.00      9363.49
  302.92        2961.00           2300        2319.00     10109.40
  302.95        2961.25           2303        3048.00     13289.79
  302.98        2961.50           2307        9215.00     40221.93
  303.01        2961.75           2310       19316.00     84441.30
  303.04        2962.00           2314       38584.00    169162.40
  303.07        2962.25           2317       55932.00    245862.30
  303.10        2962.50           2321       79429.00    350393.30
  303.13        2962.75           2324       97764.00    432482.50
  303.16        2963.00           2328      121377.00    538887.00
  303.19        2963.25           2331      140190.00    624221.50
  303.22        2963.50           2335      167239.00    747798.10
  303.25        2963.75           2339      193573.00    869127.20
  303.29        2964.00           2342      211639.00    952954.60
  303.32        2964.25           2346      234638.00   1060379.00
  303.35        2964.50           2349      252959.00   1146529.00
  303.38        2964.75           2353      279686.00   1273138.00
  303.41        2965.00           2356      297348.00   1357420.00
  303.44        2965.25           2360      320989.00   1471014.00
  303.47        2965.50           2363      336789.00   1547437.00
  303.50        2965.75           2367      357842.00   1649908.00
  303.53        2966.00           2370      375005.00   1733992.00
  303.56        2966.25           2374      398289.00   1848862.00
  303.59        2966.50           2378      414416.00   1928971.00
  303.62        2966.75           2381      419584.00   1954738.00
  303.65        2967.00           2385      421525.00   1964428.00
  303.68        2967.25           2388      422536.00   1969477.00
  303.71        2967.50           2392      422740.00   1970496.00
  303.74        2967.75           2395      421683.00   1965216.00
  303.77        2968.00           2399      417943.00   1946551.00
  303.81        2968.25           2402      409447.00   1904239.00
  303.84        2968.50           2406      389870.00   1807220.00
  303.87        2968.75           2409      371064.00   1714640.00
  303.90        2969.00           2413      346606.00   1595128.00
  303.93        2969.25           2417      321927.00   1475540.00
  303.96        2969.50           2420      304846.00   1393351.00
  303.99        2969.75           2424      281695.00   1282700.00
  304.02        2970.00           2427      262829.00   1193155.00
  304.05        2970.25           2431      235152.00   1062789.00
  304.08        2970.50           2434      215737.00    972037.20
  304.11        2970.75           2438      188491.00    845633.60
  304.14        2971.00           2441      169935.00    760172.90
  304.17        2971.25           2445      146039.00    650854.50
  304.20        2971.50           2449      121143.00    537828.80
  304.23        2971.75           2452      102094.00    451936.20
  304.26        2972.00           2456       75847.00    334409.70
  304.29        2972.25           2459       55965.00    246008.60
  304.33        2972.50           2463       31222.00    136734.00
  304.36        2972.75           2466       16616.00     72608.41
  304.39        2973.00           2470        5656.00     24673.26
  304.42        2973.25           2473        3121.00     13608.30
  304.45        2973.50           2477        2336.00     10183.56
  304.48        2973.75           2481        2190.00      9546.69
  304.51        2974.00           2484        2150.00      9372.21
  304.54        2974.25           2488        2072.00      9031.98
  304.57        2974.50           2491        2043.00      8905.49
  304.60        2974.75           2495        2060.00      8979.64
  304.63        2975.00           2498        1970.00      8587.08
  304.66        2975.25           2502        1973.00      8600.16
  304.69        2975.50           2505        1952.00      8508.56
  304.72        2975.75           2509        1925.00      8390.80
  304.75        2976.00           2512        1879.00      8190.16
  304.78        2976.25           2516        1871.00      8155.27
  304.81        2976.50           2520        1824.00      7950.28
  304.85        2976.75           2523        1848.00      8054.95
  304.88        2977.00           2527        1843.00      8033.14
  304.91        2977.25           2530        1762.00      7679.86
  304.94        2977.50           2534        1767.00      7701.67
  304.97        2977.75           2537        1779.00      7754.01
  305.00        2978.00           2541        1754.00      7644.97
  305.03        2978.25           2544        1733.00      7553.38
  305.06        2978.50           2548        1705.00      7431.26
  305.09        2978.75           2552        1718.00      7487.96
  305.12        2979.00           2555        1711.00      7457.43
  305.15        2979.25           2559        1686.00      7348.39
  305.18        2979.50           2562        1683.00      7335.31
  305.21        2979.75           2566        1648.00      7182.66
  305.24        2980.00           2569        1700.00      7409.45
  305.27        2980.25           2573        1595.00      6951.51
  305.30        2980.50           2577        1628.00      7095.43
  305.33        2980.75           2580        1615.00      7038.74
  305.36        2981.00           2584        1654.00      7208.83
  305.40        2981.25           2587        1611.00      7021.29
  305.43        2981.50           2591        1598.00      6964.60
  305.46        2981.75           2594        1594.00      6947.15
  305.49        2982.00           2598        1591.00      6934.07
  305.52        2982.25           2601        1597.00      6960.23
  305.55        2982.50           2605        1600.00      6973.32
  305.58        2982.75           2609        1598.00      6964.60
  305.61        2983.00           2612        1558.00      6790.15
  305.64        2983.25           2616        1579.00      6881.73
  305.67        2983.50           2619        1575.00      6864.29
  305.70        2983.75           2623        1574.00      6859.93
  305.73        2984.00           2626        1553.00      6768.34
HS scan finished at 05:05:57
end
************************************************************
  HS Scan of (1) Internal mercury lamp
************************************************************
Integration time is 0.2294 seconds per sample
dh051218Reading 51.44 .94 3.17pr1000
************************************************************
Dead Time -------------------------  3.4E-08 
Number of Cycles Used -------------  4 
Starting Wavelength (Angstroms) ---  2950 
Final Wavelength (Angstoms) -------  2984 
Wavelength Increment (Angstroms) --  .25 
Filter Wheel #1 Position ---------- (1) Ground quartz diffuser (ND=2.32)
Filter Wheel #2 Position ---------- (1) Neutral Density 0.494



************************************************************
HS scan start time = 16:37:25
Dark Count =  1.3 


Time (GMT)  Wavelength (Ang)  Step Number  Raw Counts  Counts/Second

  998.32        2950.00           2144        1190.00      5182.69
  998.51        2950.25           2147        1154.00      5025.71
  998.54        2950.50           2151        1153.00      5021.35
  998.57        2950.75           2155        1163.00      5064.95
  998.60        2951.00           2158        1181.00      5143.45
  998.64        2951.25           2162        1182.00      5147.81
  998.67        2951.50           2165        1225.00      5335.32
  998.70        2951.75           2169        1182.00      5147.81
  998.73        2952.00           2172        1239.00      5396.37
  998.76        2952.25           2176        1205.00      5248.10
  998.79        2952.50           2179        1175.00      5117.28
  998.82        2952.75           2183        1190.00      5182.69
  998.85        2953.00           2186        1204.00      5243.74
  998.88        2953.25           2190        1226.00      5339.68
  998.91        2953.50           2193        1212.00      5278.63
  998.94        2953.75           2197        1173.00      5108.56
  998.97        2954.00           2200        1206.00      5252.46
  999.00        2954.25           2204        1228.00      5348.40
  999.03        2954.50           2208        1254.00      5461.78
  999.06        2954.75           2211        1212.00      5278.63
  999.09        2955.00           2215        1244.00      5418.17
  999.13        2955.25           2218        1230.00      5357.12
  999.16        2955.50           2222        1257.00      5474.86
  999.19        2955.75           2225        1259.00      5483.59
  999.22        2956.00           2229        1238.00      5392.01
  999.25        2956.25           2232        1297.00      5649.30
  999.28        2956.50           2236        1296.00      5644.94
  999.31        2956.75           2239        1294.00      5636.22
  999.34        2957.00           2243        1325.00      5771.40
  999.37        2957.25           2246        1304.00      5679.82
  999.40        2957.50           2250        1313.00      5719.07
  999.43        2957.75           2254        1357.00      5910.95
  999.46        2958.00           2257        1345.00      5858.62
  999.49        2958.25           2261        1345.00      5858.62
  999.52        2958.50           2264        1388.00      6046.14
  999.55        2958.75           2268        1396.00      6081.03
  999.58        2959.00           2271        1394.00      6072.31
  999.61        2959.25           2275        1394.00      6072.31
  999.64        2959.50           2278        1436.00      6255.47
  999.68        2959.75           2282        1419.00      6181.33
  999.71        2960.00           2285        1479.00      6443.00
  999.74        2960.25           2289        1481.00      6451.72
  999.77        2960.50           2293        1546.00      6735.20
  999.80        2960.75           2296        1537.00      6695.95
  999.83        2961.00           2300        1575.00      6861.67
  999.86        2961.25           2303        1790.00      7799.37
  999.89        2961.50           2307        4131.00     18013.21
  999.92        2961.75           2310       10253.00     44757.25
  999.95        2962.00           2314       23107.00    101069.00
  999.98        2962.25           2317       35032.00    153504.80
 1000.01        2962.50           2321       51585.00    226602.70
 1000.04        2962.75           2324       65609.00    288819.30
 1000.07        2963.00           2328       85005.00    375306.60
 1000.10        2963.25           2331      100201.00    443425.50
 1000.13        2963.50           2335      118733.00    526931.30
 1000.16        2963.75           2339      136178.00    605978.60
 1000.20        2964.00           2342      149496.00    666615.90
 1000.23        2964.25           2346      168403.00    753136.90
 1000.26        2964.50           2349      183538.00    822770.30
 1000.29        2964.75           2353      202467.00    910332.40
 1000.32        2965.00           2356      215513.00    970990.80
 1000.35        2965.25           2360      232175.00   1048834.00
 1000.38        2965.50           2363      245002.00   1109048.00
 1000.41        2965.75           2367      260325.00   1181309.00
 1000.44        2966.00           2370      271185.00   1232744.00
 1000.47        2966.25           2374      288770.00   1316422.00
 1000.50        2966.50           2378      303136.00   1385145.00
 1000.53        2966.75           2381      308134.00   1409132.00
 1000.56        2967.00           2385      309880.00   1417521.00
 1000.59        2967.25           2388      310439.00   1420208.00
 1000.62        2967.50           2392      310526.00   1420626.00
 1000.65        2967.75           2395      310294.00   1419511.00
 1000.68        2968.00           2399      308478.00   1410784.00
 1000.72        2968.25           2402      303159.00   1385255.00
 1000.75        2968.50           2406      288993.00   1317486.00
 1000.78        2968.75           2409      277294.00   1261758.00
 1000.81        2969.00           2413      260301.00   1181196.00
 1000.84        2969.25           2417      243966.00   1104175.00
 1000.87        2969.50           2420      230852.00   1042638.00
 1000.90        2969.75           2424      212859.00    958630.20
 1000.93        2970.00           2427      199786.00    897898.40
 1000.96        2970.25           2431      181635.00    813996.50
 1000.99        2970.50           2434      166765.00    745620.80
 1001.02        2970.75           2438      147450.00    657284.00
 1001.05        2971.00           2441      133129.00    592131.90
 1001.08        2971.25           2445      114445.00    507566.80
 1001.11        2971.50           2449       95044.00    420272.70
 1001.14        2971.75           2452       80156.00    353636.80
 1001.17        2972.00           2456       60118.00    264427.30
 1001.20        2972.25           2459       46213.00    202840.00
 1001.24        2972.50           2463       28712.00    125691.60
 1001.27        2972.75           2466       17657.00     77166.88
 1001.30        2973.00           2470        6274.00     27369.40
 1001.33        2973.25           2473        2830.00     12336.04
 1001.36        2973.50           2477        1749.00      7620.55
 1001.39        2973.75           2481        1587.00      6914.01
 1001.42        2974.00           2484        1558.00      6787.53
 1001.45        2974.25           2488        1572.00      6848.59
 1001.48        2974.50           2491        1455.00      6338.33
 1001.51        2974.75           2495        1513.00      6591.28
 1001.54        2975.00           2498        1451.00      6320.89
 1001.57        2975.25           2502        1431.00      6233.67
 1001.60        2975.50           2505        1380.00      6011.25
 1001.63        2975.75           2509        1395.00      6076.67
 1001.66        2976.00           2512        1370.00      5967.64
 1001.69        2976.25           2516        1372.00      5976.37
 1001.72        2976.50           2520        1332.00      5801.93
 1001.76        2976.75           2523        1329.00      5788.85
 1001.79        2977.00           2527        1294.00      5636.22
 1001.82        2977.25           2530        1334.00      5810.65
 1001.85        2977.50           2534        1311.00      5710.35
 1001.88        2977.75           2537        1238.00      5392.01
 1001.91        2978.00           2541        1249.00      5439.98
 1001.94        2978.25           2544        1257.00      5474.86
 1001.97        2978.50           2548        1240.00      5400.73
 1002.00        2978.75           2552        1233.00      5370.20
 1002.03        2979.00           2555        1238.00      5392.01
 1002.06        2979.25           2559        1259.00      5483.59
 1002.09        2979.50           2562        1194.00      5200.13
 1002.12        2979.75           2566        1226.00      5339.68
 1002.15        2980.00           2569        1194.00      5200.13
 1002.18        2980.25           2573        1206.00      5252.46
 1002.21        2980.50           2577        1183.00      5152.17
 1002.24        2980.75           2580        1160.00      5051.87
 1002.28        2981.00           2584        1179.00      5134.72
 1002.31        2981.25           2587        1174.00      5112.92
 1002.34        2981.50           2591        1148.00      4999.54
 1002.37        2981.75           2594        1135.00      4942.85
 1002.40        2982.00           2598        1143.00      4977.74
 1002.43        2982.25           2601        1141.00      4969.02
 1002.46        2982.50           2605        1141.00      4969.02
 1002.49        2982.75           2609        1133.00      4934.13
 1002.52        2983.00           2612        1118.00      4868.72
 1002.55        2983.25           2616        1118.00      4868.72
 1002.58        2983.50           2619        1126.00      4903.61
 1002.61        2983.75           2623        1123.00      4890.53
 1002.64        2984.00           2626        1099.00      4785.87
HS scan finished at 16:42:52
end
