************************************************************
  HS Scan of (1) Internal mercury lamp
************************************************************
Integration time is 0.2294 seconds per sample
dh271118Reading 51.44 .94 2.72pr1000
************************************************************
Dead Time -------------------------  3.4E-08 
Number of Cycles Used -------------  4 
Starting Wavelength (Angstroms) ---  2950 
Final Wavelength (Angstoms) -------  2984 
Wavelength Increment (Angstroms) --  .25 
Filter Wheel #1 Position ---------- (1) Ground quartz diffuser (ND=2.32)
Filter Wheel #2 Position ---------- (1) Neutral Density 0.494



************************************************************
HS scan start time = 04:51:32
Dark Count =  .5 


Time (GMT)  Wavelength (Ang)  Step Number  Raw Counts  Counts/Second

  292.43        2950.00           2144        1567.00      6830.27
  292.62        2950.25           2147        1592.00      6939.30
  292.65        2950.50           2151        1602.00      6982.91
  292.68        2950.75           2155        1588.00      6921.86
  292.71        2951.00           2158        1590.00      6930.58
  292.74        2951.25           2162        1602.00      6982.91
  292.77        2951.50           2165        1573.00      6856.44
  292.80        2951.75           2169        1638.00      7139.92
  292.83        2952.00           2172        1604.00      6991.64
  292.86        2952.25           2176        1616.00      7043.97
  292.89        2952.50           2179        1667.00      7266.40
  292.92        2952.75           2183        1576.00      6869.52
  292.96        2953.00           2186        1606.00      7000.36
  292.99        2953.25           2190        1648.00      7183.53
  293.02        2953.50           2193        1609.00      7013.44
  293.05        2953.75           2197        1646.00      7174.81
  293.08        2954.00           2200        1637.00      7135.56
  293.11        2954.25           2204        1647.00      7179.17
  293.14        2954.50           2208        1688.00      7357.99
  293.17        2954.75           2211        1682.00      7331.82
  293.20        2955.00           2215        1656.00      7218.42
  293.23        2955.25           2218        1642.00      7157.37
  293.26        2955.50           2222        1682.00      7331.82
  293.29        2955.75           2225        1705.00      7432.13
  293.32        2956.00           2229        1673.00      7292.57
  293.35        2956.25           2232        1738.00      7576.06
  293.38        2956.50           2236        1729.00      7536.81
  293.41        2956.75           2239        1724.00      7515.00
  293.44        2957.00           2243        1750.00      7628.40
  293.47        2957.25           2246        1762.00      7680.73
  293.51        2957.50           2250        1725.00      7519.36
  293.54        2957.75           2254        1769.00      7711.26
  293.57        2958.00           2257        1760.00      7672.01
  293.60        2958.25           2261        1794.00      7820.30
  293.63        2958.50           2264        1819.00      7929.34
  293.66        2958.75           2268        1830.00      7977.32
  293.69        2959.00           2271        1864.00      8125.61
  293.72        2959.25           2275        1844.00      8038.38
  293.75        2959.50           2278        1929.00      8409.12
  293.78        2959.75           2282        1877.00      8182.31
  293.81        2960.00           2285        1950.00      8500.71
  293.84        2960.25           2289        1940.00      8457.10
  293.87        2960.50           2293        2005.00      8740.61
  293.90        2960.75           2296        2006.00      8744.97
  293.93        2961.00           2300        2115.00      9220.41
  293.96        2961.25           2303        2432.00     10603.21
  294.00        2961.50           2307        5811.00     25350.96
  294.03        2961.75           2310       14486.00     63281.17
  294.06        2962.00           2314       31810.00    139322.30
  294.09        2962.25           2317       45811.00    201066.90
  294.12        2962.50           2321       65566.00    288631.60
  294.15        2962.75           2324       81432.00    359339.60
  294.18        2963.00           2328      103196.00    456892.30
  294.21        2963.25           2331      120632.00    535519.00
  294.24        2963.50           2335      142751.00    635877.70
  294.27        2963.75           2339      164091.00    733362.80
  294.30        2964.00           2342      179444.00    803905.10
  294.33        2964.25           2346      200899.00    903062.80
  294.36        2964.50           2349      216676.00    976414.40
  294.39        2964.75           2353      236792.00   1070482.00
  294.42        2965.00           2356      252617.00   1144918.00
  294.45        2965.25           2360      274255.00   1247321.00
  294.48        2965.50           2363      289801.00   1321347.00
  294.52        2965.75           2367      309341.00   1414935.00
  294.55        2966.00           2370      323253.00   1481941.00
  294.58        2966.25           2374      339490.00   1560544.00
  294.61        2966.50           2378      352084.00   1621810.00
  294.64        2966.75           2381      356592.00   1643804.00
  294.67        2967.00           2385      358511.00   1653177.00
  294.70        2967.25           2388      358485.00   1653050.00
  294.73        2967.50           2392      358435.00   1652806.00
  294.76        2967.75           2395      357593.00   1648692.00
  294.79        2968.00           2399      351108.00   1617053.00
  294.82        2968.25           2402      341784.00   1571684.00
  294.85        2968.50           2406      324589.00   1488392.00
  294.88        2968.75           2409      312323.00   1429271.00
  294.91        2969.00           2413      293033.00   1336784.00
  294.94        2969.25           2417      272585.00   1239392.00
  294.97        2969.50           2420      257879.00   1169754.00
  295.00        2969.75           2424      238378.00   1077925.00
  295.03        2970.00           2427      223360.00   1007603.00
  295.07        2970.25           2431      200723.00    902246.60
  295.10        2970.50           2434      183646.00    823272.00
  295.13        2970.75           2438      162116.00    724313.10
  295.16        2971.00           2441      145522.00    648499.30
  295.19        2971.25           2445      125566.00    557845.70
  295.22        2971.50           2449      105175.00    465795.20
  295.25        2971.75           2452       89467.00    395279.00
  295.28        2972.00           2456       68182.00    300266.50
  295.31        2972.25           2459       52415.00    230281.20
  295.34        2972.50           2463       32164.00    140880.30
  295.37        2972.75           2466       18468.00     80724.75
  295.40        2973.00           2470        6338.00     27652.41
  295.43        2973.25           2473        3093.00     13487.00
  295.46        2973.50           2477        2218.00      9669.70
  295.49        2973.75           2481        2029.00      8845.29
  295.52        2974.00           2484        2026.00      8832.21
  295.55        2974.25           2488        1974.00      8605.39
  295.59        2974.50           2491        1938.00      8448.37
  295.62        2974.75           2495        1826.00      7959.87
  295.65        2975.00           2498        1925.00      8391.67
  295.68        2975.25           2502        1853.00      8077.63
  295.71        2975.50           2505        1831.00      7981.68
  295.74        2975.75           2509        1768.00      7706.90
  295.77        2976.00           2512        1769.00      7711.26
  295.80        2976.25           2516        1753.00      7641.48
  295.83        2976.50           2520        1736.00      7567.34
  295.86        2976.75           2523        1734.00      7558.61
  295.89        2977.00           2527        1701.00      7414.69
  295.92        2977.25           2530        1713.00      7467.02
  295.95        2977.50           2534        1682.00      7331.82
  295.98        2977.75           2537        1693.00      7379.79
  296.01        2978.00           2541        1691.00      7371.07
  296.04        2978.25           2544        1645.00      7170.45
  296.07        2978.50           2548        1662.00      7244.59
  296.11        2978.75           2552        1627.00      7091.95
  296.14        2979.00           2555        1631.00      7109.39
  296.17        2979.25           2559        1618.00      7052.69
  296.20        2979.50           2562        1592.00      6939.30
  296.23        2979.75           2566        1584.00      6904.41
  296.26        2980.00           2569        1593.00      6943.66
  296.29        2980.25           2573        1537.00      6699.43
  296.32        2980.50           2577        1590.00      6930.58
  296.35        2980.75           2580        1538.00      6703.80
  296.38        2981.00           2584        1565.00      6821.55
  296.41        2981.25           2587        1538.00      6703.80
  296.44        2981.50           2591        1551.00      6760.49
  296.47        2981.75           2594        1519.00      6620.93
  296.50        2982.00           2598        1484.00      6468.29
  296.53        2982.25           2601        1457.00      6350.54
  296.56        2982.50           2605        1537.00      6699.43
  296.59        2982.75           2609        1501.00      6542.43
  296.63        2983.00           2612        1479.00      6446.49
  296.66        2983.25           2616        1491.00      6498.82
  296.69        2983.50           2619        1496.00      6520.63
  296.72        2983.75           2623        1534.00      6686.35
  296.75        2984.00           2626        1502.00      6546.79
HS scan finished at 04:56:58
end
************************************************************
  HS Scan of (1) Internal mercury lamp
************************************************************
Integration time is 0.2294 seconds per sample
dh271118Reading 51.44 .94 2.88pr1000
************************************************************
Dead Time -------------------------  3.4E-08 
Number of Cycles Used -------------  4 
Starting Wavelength (Angstroms) ---  2950 
Final Wavelength (Angstoms) -------  2984 
Wavelength Increment (Angstroms) --  .25 
Filter Wheel #1 Position ---------- (1) Ground quartz diffuser (ND=2.32)
Filter Wheel #2 Position ---------- (1) Neutral Density 0.494



************************************************************
HS scan start time = 17:07:24
Dark Count =  .7 


Time (GMT)  Wavelength (Ang)  Step Number  Raw Counts  Counts/Second

 1028.29        2950.00           2144        1515.00      6602.62
 1028.49        2950.25           2147        1512.00      6589.53
 1028.52        2950.50           2151        1517.00      6611.34
 1028.55        2950.75           2155        1468.00      6397.64
 1028.58        2951.00           2158        1475.00      6428.17
 1028.61        2951.25           2162        1533.00      6681.12
 1028.64        2951.50           2165        1505.00      6559.00
 1028.67        2951.75           2169        1562.00      6807.59
 1028.70        2952.00           2172        1522.00      6633.14
 1028.73        2952.25           2176        1519.00      6620.06
 1028.76        2952.50           2179        1509.00      6576.45
 1028.79        2952.75           2183        1553.00      6768.34
 1028.82        2953.00           2186        1559.00      6794.51
 1028.85        2953.25           2190        1540.00      6711.64
 1028.88        2953.50           2193        1591.00      6934.07
 1028.92        2953.75           2197        1556.00      6781.42
 1028.95        2954.00           2200        1538.00      6702.92
 1028.98        2954.25           2204        1529.00      6663.67
 1029.01        2954.50           2208        1540.00      6711.64
 1029.04        2954.75           2211        1571.00      6846.84
 1029.07        2955.00           2215        1584.00      6903.54
 1029.10        2955.25           2218        1620.00      7060.54
 1029.13        2955.50           2222        1619.00      7056.18
 1029.16        2955.75           2225        1613.00      7030.01
 1029.19        2956.00           2229        1630.00      7104.16
 1029.22        2956.25           2232        1637.00      7134.69
 1029.25        2956.50           2236        1662.00      7243.72
 1029.28        2956.75           2239        1645.00      7169.58
 1029.31        2957.00           2243        1642.00      7156.49
 1029.34        2957.25           2246        1676.00      7304.78
 1029.37        2957.50           2250        1673.00      7291.70
 1029.40        2957.75           2254        1678.00      7313.50
 1029.44        2958.00           2257        1706.00      7435.62
 1029.47        2958.25           2261        1747.00      7614.44
 1029.50        2958.50           2264        1725.00      7518.49
 1029.53        2958.75           2268        1775.00      7736.56
 1029.56        2959.00           2271        1762.00      7679.86
 1029.59        2959.25           2275        1786.00      7784.54
 1029.62        2959.50           2278        1764.00      7688.58
 1029.65        2959.75           2282        1854.00      8081.12
 1029.68        2960.00           2285        1822.00      7941.55
 1029.71        2960.25           2289        1884.00      8211.97
 1029.74        2960.50           2293        1916.00      8351.54
 1029.77        2960.75           2296        1897.00      8268.67
 1029.80        2961.00           2300        1990.00      8674.31
 1029.83        2961.25           2303        2274.00      9913.11
 1029.86        2961.50           2307        4781.00     20853.06
 1029.89        2961.75           2310       11669.00     50952.63
 1029.92        2962.00           2314       27693.00    121214.80
 1029.95        2962.25           2317       41743.00    183099.30
 1029.99        2962.50           2321       62189.00    273624.90
 1030.02        2962.75           2324       77859.00    343385.50
 1030.05        2963.00           2328       96879.00    428509.60
 1030.08        2963.25           2331      110292.00    488839.20
 1030.11        2963.50           2335      132580.00    589642.80
 1030.14        2963.75           2339      155180.00    692575.30
 1030.17        2964.00           2342      172222.00    770678.60
 1030.20        2964.25           2346      193126.00    867059.30
 1030.23        2964.50           2349      208804.00    939767.90
 1030.26        2964.75           2353      228916.00   1033578.00
 1030.29        2965.00           2356      243488.00   1101930.00
 1030.32        2965.25           2360      262536.00   1191769.00
 1030.35        2965.50           2363      277358.00   1262066.00
 1030.38        2965.75           2367      296937.00   1355453.00
 1030.41        2966.00           2370      310942.00   1422629.00
 1030.44        2966.25           2374      328391.00   1506766.00
 1030.47        2966.50           2378      341951.00   1572494.00
 1030.51        2966.75           2381      346997.00   1597031.00
 1030.54        2967.00           2385      349417.00   1608813.00
 1030.57        2967.25           2388      350027.00   1611784.00
 1030.60        2967.50           2392      349809.00   1610722.00
 1030.63        2967.75           2395      349606.00   1609734.00
 1030.66        2968.00           2399      345679.00   1590618.00
 1030.70        2968.25           2402      337661.00   1551667.00
 1030.73        2968.50           2406      322297.00   1477325.00
 1030.76        2968.75           2409      309724.00   1416774.00
 1030.79        2969.00           2413      290087.00   1322711.00
 1030.82        2969.25           2417      269993.00   1227093.00
 1030.85        2969.50           2420      255576.00   1158877.00
 1030.88        2969.75           2424      235173.00   1062888.00
 1030.91        2970.00           2427      219108.00    987753.60
 1030.94        2970.25           2431      199070.00    894582.30
 1030.97        2970.50           2434      185396.00    831344.40
 1031.00        2970.75           2438      161875.00    723208.30
 1031.03        2971.00           2441      144459.00    643655.30
 1031.06        2971.25           2445      122529.00    544098.10
 1031.09        2971.50           2449      101711.00    450214.40
 1031.12        2971.75           2452       86302.00    381111.00
 1031.15        2972.00           2456       67624.00    297783.10
 1031.18        2972.25           2459       53439.00    234815.40
 1031.22        2972.50           2463       33879.00    148429.40
 1031.25        2972.75           2466       19900.00     87001.97
 1031.28        2973.00           2470        6885.00     30040.69
 1031.31        2973.25           2473        3324.00     14494.06
 1031.34        2973.50           2477        2107.00      9184.65
 1031.37        2973.75           2481        1956.00      8526.01
 1031.40        2974.00           2484        1920.00      8368.99
 1031.43        2974.25           2488        1837.00      8006.97
 1031.46        2974.50           2491        1867.00      8137.82
 1031.49        2974.75           2495        1869.00      8146.55
 1031.52        2975.00           2498        1781.00      7762.73
 1031.55        2975.25           2502        1816.00      7915.38
 1031.58        2975.50           2505        1728.00      7531.57
 1031.61        2975.75           2509        1733.00      7553.38
 1031.64        2976.00           2512        1695.00      7387.64
 1031.67        2976.25           2516        1685.00      7344.03
 1031.70        2976.50           2520        1693.00      7378.92
 1031.74        2976.75           2523        1659.00      7230.64
 1031.77        2977.00           2527        1635.00      7125.96
 1031.80        2977.25           2530        1656.00      7217.55
 1031.83        2977.50           2534        1613.00      7030.01
 1031.86        2977.75           2537        1607.00      7003.85
 1031.89        2978.00           2541        1640.00      7147.77
 1031.92        2978.25           2544        1568.00      6833.76
 1031.95        2978.50           2548        1563.00      6811.95
 1031.98        2978.75           2552        1559.00      6794.51
 1032.01        2979.00           2555        1555.00      6777.06
 1032.04        2979.25           2559        1539.00      6707.28
 1032.07        2979.50           2562        1540.00      6711.64
 1032.10        2979.75           2566        1537.00      6698.56
 1032.13        2980.00           2569        1503.00      6550.28
 1032.16        2980.25           2573        1465.00      6384.56
 1032.19        2980.50           2577        1492.00      6502.31
 1032.22        2980.75           2580        1484.00      6467.42
 1032.26        2981.00           2584        1471.00      6410.73
 1032.29        2981.25           2587        1457.00      6349.67
 1032.32        2981.50           2591        1427.00      6218.84
 1032.35        2981.75           2594        1458.00      6354.03
 1032.38        2982.00           2598        1485.00      6471.78
 1032.41        2982.25           2601        1432.00      6240.64
 1032.44        2982.50           2605        1426.00      6214.48
 1032.47        2982.75           2609        1430.00      6231.92
 1032.50        2983.00           2612        1462.00      6371.48
 1032.53        2983.25           2616        1423.00      6201.40
 1032.56        2983.50           2619        1479.00      6445.62
 1032.59        2983.75           2623        1419.00      6183.95
 1032.62        2984.00           2626        1416.00      6170.87
HS scan finished at 17:12:51
end
