************************************************************
  HS Scan of (1) Internal mercury lamp
************************************************************
Integration time is 0.2294 seconds per sample
dh031217Reading 51.44 .94 2.72pr1000
************************************************************
Dead Time -------------------------  3.4E-08 
Number of Cycles Used -------------  4 
Starting Wavelength (Angstroms) ---  2950 
Final Wavelength (Angstoms) -------  2984 
Wavelength Increment (Angstroms) --  .25 
Filter Wheel #1 Position ---------- (1) Ground quartz diffuser (ND=2.32)
Filter Wheel #2 Position ---------- (1) Neutral Density 0.494



************************************************************
HS scan start time = 04:58:45
Dark Count =  .7 


Time (GMT)  Wavelength (Ang)  Step Number  Raw Counts  Counts/Second

  299.65        2950.00           2144          74.00       319.53
  299.84        2950.25           2147          88.00       380.56
  299.87        2950.50           2151          96.00       415.44
  299.90        2950.75           2155          87.00       376.20
  299.94        2951.00           2158          87.00       376.20
  299.97        2951.25           2162          86.00       371.84
  300.00        2951.50           2165          81.00       350.05
  300.03        2951.75           2169          85.00       367.49
  300.06        2952.00           2172          94.00       406.72
  300.09        2952.25           2176          85.00       367.49
  300.12        2952.50           2179          80.00       345.69
  300.15        2952.75           2183          83.00       358.77
  300.18        2953.00           2186          83.00       358.77
  300.21        2953.25           2190          91.00       393.64
  300.24        2953.50           2193          90.00       389.28
  300.27        2953.75           2197          85.00       367.49
  300.30        2954.00           2200          89.00       384.92
  300.33        2954.25           2204          89.00       384.92
  300.36        2954.50           2208          90.00       389.28
  300.39        2954.75           2211          86.00       371.84
  300.42        2955.00           2215          92.00       398.00
  300.46        2955.25           2218         112.00       485.19
  300.49        2955.50           2222          92.00       398.00
  300.52        2955.75           2225          91.00       393.64
  300.55        2956.00           2229          86.00       371.84
  300.58        2956.25           2232          92.00       398.00
  300.61        2956.50           2236          90.00       389.28
  300.64        2956.75           2239          95.00       411.08
  300.67        2957.00           2243          95.00       411.08
  300.70        2957.25           2246          98.00       424.16
  300.73        2957.50           2250          97.00       419.80
  300.76        2957.75           2254         116.00       502.62
  300.79        2958.00           2257         104.00       450.31
  300.82        2958.25           2261          99.00       428.52
  300.85        2958.50           2264         113.00       489.55
  300.89        2958.75           2268         103.00       445.95
  300.92        2959.00           2271         111.00       480.83
  300.95        2959.25           2275         101.00       437.23
  300.98        2959.50           2278          94.00       406.72
  301.01        2959.75           2282         108.00       467.75
  301.04        2960.00           2285         137.00       594.17
  301.07        2960.25           2289         126.00       546.22
  301.10        2960.50           2293         107.00       463.39
  301.13        2960.75           2296         147.00       637.76
  301.17        2961.00           2300         143.00       620.33
  301.20        2961.25           2303         205.00       890.61
  301.23        2961.50           2307         652.00      2839.42
  301.26        2961.75           2310        1368.00      5961.54
  301.29        2962.00           2314        2668.00     11631.89
  301.32        2962.25           2317        3729.00     16261.39
  301.35        2962.50           2321        5216.00     22752.12
  301.38        2962.75           2324        6295.00     27463.74
  301.41        2963.00           2328        7700.00     33601.14
  301.44        2963.25           2331        8761.00     38237.56
  301.47        2963.50           2335       10235.00     44681.17
  301.50        2963.75           2339       11794.00     51499.42
  301.53        2964.00           2342       12955.00     56579.10
  301.56        2964.25           2346       14442.00     63087.67
  301.59        2964.50           2349       15465.00     67566.99
  301.62        2964.75           2353       16713.00     73033.35
  301.65        2965.00           2356       17916.00     78304.54
  301.69        2965.25           2360       19441.00     84989.35
  301.72        2965.50           2363       20199.00     88313.16
  301.75        2965.75           2367       21825.00     95445.69
  301.78        2966.00           2370       22786.00     99662.78
  301.81        2966.25           2374       23821.00    104206.00
  301.84        2966.50           2378       24305.00    106331.00
  301.87        2966.75           2381       24300.00    106309.00
  301.90        2967.00           2385       24717.00    108140.10
  301.93        2967.25           2388       24387.00    106691.00
  301.96        2967.50           2392       24474.00    107073.10
  301.99        2967.75           2395       24230.00    106001.70
  302.02        2968.00           2399       23312.00    101971.50
  302.05        2968.25           2402       22357.00     97780.08
  302.08        2968.50           2406       21117.00     92339.59
  302.11        2968.75           2409       20001.00     87444.87
  302.14        2969.00           2413       18486.00     80802.78
  302.17        2969.25           2417       17150.00     74947.93
  302.20        2969.50           2420       16093.00     70317.43
  302.24        2969.75           2424       14641.00     63958.90
  302.27        2970.00           2427       14097.00     61577.35
  302.30        2970.25           2431       12630.00     55156.96
  302.33        2970.50           2434       11177.00     48800.61
  302.36        2970.75           2438        9871.00     43089.67
  302.39        2971.00           2441        8796.00     38390.53
  302.42        2971.25           2445        7460.00     32552.58
  302.45        2971.50           2449        5918.00     25817.34
  302.48        2971.75           2452        4759.00     20757.01
  302.51        2972.00           2456        3479.00     15170.42
  302.54        2972.25           2459        2635.00     11487.92
  302.57        2972.50           2463        1322.00      5760.94
  302.60        2972.75           2466         582.00      2534.22
  302.63        2973.00           2470         218.00       947.28
  302.66        2973.25           2473         136.00       589.81
  302.69        2973.50           2477         139.00       602.89
  302.73        2973.75           2481         147.00       637.76
  302.76        2974.00           2484         143.00       620.33
  302.79        2974.25           2488         115.00       498.26
  302.82        2974.50           2491         132.00       572.37
  302.85        2974.75           2495         134.00       581.09
  302.88        2975.00           2498         116.00       502.62
  302.91        2975.25           2502         103.00       445.95
  302.94        2975.50           2505         104.00       450.31
  302.97        2975.75           2509         125.00       541.86
  303.00        2976.00           2512         121.00       524.42
  303.03        2976.25           2516         101.00       437.23
  303.06        2976.50           2520          94.00       406.72
  303.09        2976.75           2523         120.00       520.06
  303.12        2977.00           2527          92.00       398.00
  303.15        2977.25           2530          98.00       424.16
  303.18        2977.50           2534          99.00       428.52
  303.21        2977.75           2537          95.00       411.08
  303.24        2978.00           2541          88.00       380.56
  303.28        2978.25           2544          92.00       398.00
  303.31        2978.50           2548          87.00       376.20
  303.34        2978.75           2552          95.00       411.08
  303.37        2979.00           2555          86.00       371.84
  303.40        2979.25           2559          89.00       384.92
  303.43        2979.50           2562          96.00       415.44
  303.46        2979.75           2566          96.00       415.44
  303.49        2980.00           2569          88.00       380.56
  303.52        2980.25           2573          91.00       393.64
  303.55        2980.50           2577          89.00       384.92
  303.58        2980.75           2580          80.00       345.69
  303.61        2981.00           2584          82.00       354.41
  303.64        2981.25           2587          83.00       358.77
  303.67        2981.50           2591          89.00       384.92
  303.70        2981.75           2594          90.00       389.28
  303.73        2982.00           2598          86.00       371.84
  303.76        2982.25           2601          79.00       341.33
  303.80        2982.50           2605          80.00       345.69
  303.83        2982.75           2609          77.00       332.61
  303.86        2983.00           2612          91.00       393.64
  303.89        2983.25           2616          78.00       336.97
  303.92        2983.50           2619          84.00       363.13
  303.95        2983.75           2623          80.00       345.69
  303.98        2984.00           2626          81.00       350.05
HS scan finished at 05:04:12
end
************************************************************
  HS Scan of (1) Internal mercury lamp
************************************************************
Integration time is 0.2294 seconds per sample
dh031217Reading 51.44 .94 3.03pr1000
************************************************************
Dead Time -------------------------  3.4E-08 
Number of Cycles Used -------------  4 
Starting Wavelength (Angstroms) ---  2950 
Final Wavelength (Angstoms) -------  2984 
Wavelength Increment (Angstroms) --  .25 
Filter Wheel #1 Position ---------- (1) Ground quartz diffuser (ND=2.32)
Filter Wheel #2 Position ---------- (1) Neutral Density 0.494



************************************************************
HS scan start time = 17:07:23
Dark Count =  1 


Time (GMT)  Wavelength (Ang)  Step Number  Raw Counts  Counts/Second

 1028.28        2950.00           2144          87.00       374.90
 1028.47        2950.25           2147          85.00       366.18
 1028.50        2950.50           2151          77.00       331.30
 1028.53        2950.75           2155          82.00       353.10
 1028.56        2951.00           2158          79.00       340.02
 1028.59        2951.25           2162          81.00       348.74
 1028.62        2951.50           2165          85.00       366.18
 1028.65        2951.75           2169          90.00       387.97
 1028.68        2952.00           2172          80.00       344.38
 1028.72        2952.25           2176          81.00       348.74
 1028.75        2952.50           2179          93.00       401.05
 1028.78        2952.75           2183         111.00       479.52
 1028.81        2953.00           2186          92.00       396.69
 1028.84        2953.25           2190          85.00       366.18
 1028.87        2953.50           2193          91.00       392.33
 1028.90        2953.75           2197          88.00       379.26
 1028.93        2954.00           2200          88.00       379.26
 1028.96        2954.25           2204          82.00       353.10
 1028.99        2954.50           2208          86.00       370.54
 1029.02        2954.75           2211          83.00       357.46
 1029.05        2955.00           2215          79.00       340.02
 1029.08        2955.25           2218          85.00       366.18
 1029.11        2955.50           2222          90.00       387.97
 1029.14        2955.75           2225          92.00       396.69
 1029.17        2956.00           2229          99.00       427.21
 1029.20        2956.25           2232          98.00       422.85
 1029.24        2956.50           2236         102.00       440.29
 1029.27        2956.75           2239          84.00       361.82
 1029.30        2957.00           2243          98.00       422.85
 1029.33        2957.25           2246         101.00       435.93
 1029.36        2957.50           2250          90.00       387.97
 1029.39        2957.75           2254          90.00       387.97
 1029.42        2958.00           2257          93.00       401.05
 1029.45        2958.25           2261          99.00       427.21
 1029.48        2958.50           2264          98.00       422.85
 1029.51        2958.75           2268         103.00       444.64
 1029.54        2959.00           2271         100.00       431.57
 1029.57        2959.25           2275          98.00       422.85
 1029.60        2959.50           2278         103.00       444.64
 1029.63        2959.75           2282         106.00       457.72
 1029.66        2960.00           2285         150.00       649.53
 1029.69        2960.25           2289         100.00       431.57
 1029.72        2960.50           2293         121.00       523.11
 1029.75        2960.75           2296         121.00       523.11
 1029.79        2961.00           2300         161.00       697.49
 1029.82        2961.25           2303         372.00      1617.35
 1029.85        2961.50           2307        1126.00      4904.92
 1029.88        2961.75           2310        1930.00      8411.30
 1029.91        2962.00           2314        3281.00     14305.13
 1029.94        2962.25           2317        4411.00     19236.64
 1029.97        2962.50           2321        5979.00     26082.41
 1030.00        2962.75           2324        6993.00     30511.15
 1030.03        2963.00           2328        8381.00     36575.53
 1030.06        2963.25           2331        9511.00     41514.53
 1030.09        2963.50           2335       11129.00     48589.37
 1030.12        2963.75           2339       12638.00     55190.65
 1030.15        2964.00           2342       13784.00     60205.94
 1030.18        2964.25           2346       15493.00     67688.30
 1030.21        2964.50           2349       16525.00     72208.46
 1030.24        2964.75           2353       17994.00     78645.06
 1030.27        2965.00           2356       18935.00     82769.66
 1030.31        2965.25           2360       20123.00     87978.56
 1030.34        2965.50           2363       21193.00     92671.66
 1030.37        2965.75           2367       22637.00     99007.53
 1030.40        2966.00           2370       24000.00    104990.50
 1030.43        2966.25           2374       25066.00    109671.50
 1030.46        2966.50           2378       25544.00    111770.90
 1030.49        2966.75           2381       25672.00    112333.20
 1030.52        2967.00           2385       25546.00    111779.70
 1030.55        2967.25           2388       25500.00    111577.70
 1030.58        2967.50           2392       25494.00    111551.30
 1030.61        2967.75           2395       25298.00    110690.40
 1030.64        2968.00           2399       24468.00    107045.40
 1030.67        2968.25           2402       23374.00    102242.30
 1030.70        2968.50           2406       22108.00     96686.10
 1030.73        2968.75           2409       21204.00     92719.92
 1030.76        2969.00           2413       19741.00     86303.44
 1030.79        2969.25           2417       18379.00     80332.46
 1030.83        2969.50           2420       17355.00     75844.86
 1030.86        2969.75           2424       15940.00     69645.98
 1030.89        2970.00           2427       14726.00     64329.74
 1030.92        2970.25           2431       13163.00     57488.02
 1030.95        2970.50           2434       12126.00     52950.52
 1030.98        2970.75           2438       10559.00     46096.61
 1031.01        2971.00           2441        9236.00     40312.41
 1031.04        2971.25           2445        7762.00     33870.72
 1031.07        2971.50           2449        6152.00     26837.91
 1031.10        2971.75           2452        5167.00     22536.88
 1031.13        2972.00           2456        3748.00     16342.99
 1031.16        2972.25           2459        2709.00     11809.45
 1031.19        2972.50           2463        1415.00      6165.20
 1031.22        2972.75           2466         636.00      2768.35
 1031.25        2973.00           2470         199.00       863.15
 1031.28        2973.25           2473         142.00       614.66
 1031.31        2973.50           2477         119.00       514.39
 1031.35        2973.75           2481         168.00       728.00
 1031.38        2974.00           2484         105.00       453.36
 1031.41        2974.25           2488         117.00       505.68
 1031.44        2974.50           2491         164.00       710.57
 1031.47        2974.75           2495         117.00       505.68
 1031.50        2975.00           2498         145.00       627.74
 1031.53        2975.25           2502         102.00       440.29
 1031.56        2975.50           2505         105.00       453.36
 1031.59        2975.75           2509         105.00       453.36
 1031.62        2976.00           2512         116.00       501.32
 1031.65        2976.25           2516          97.00       418.49
 1031.68        2976.50           2520         123.00       531.83
 1031.71        2976.75           2523          98.00       422.85
 1031.74        2977.00           2527          97.00       418.49
 1031.77        2977.25           2530          95.00       409.77
 1031.80        2977.50           2534          99.00       427.21
 1031.83        2977.75           2537          95.00       409.77
 1031.87        2978.00           2541          90.00       387.97
 1031.90        2978.25           2544         118.00       510.03
 1031.93        2978.50           2548          95.00       409.77
 1031.96        2978.75           2552          87.00       374.90
 1031.99        2979.00           2555          89.00       383.61
 1032.02        2979.25           2559          85.00       366.18
 1032.05        2979.50           2562          88.00       379.26
 1032.08        2979.75           2566          86.00       370.54
 1032.11        2980.00           2569          99.00       427.21
 1032.14        2980.25           2573          87.00       374.90
 1032.17        2980.50           2577          83.00       357.46
 1032.20        2980.75           2580          81.00       348.74
 1032.23        2981.00           2584          86.00       370.54
 1032.26        2981.25           2587          80.00       344.38
 1032.29        2981.50           2591          84.00       361.82
 1032.32        2981.75           2594          91.00       392.33
 1032.35        2982.00           2598          71.00       305.15
 1032.39        2982.25           2601          77.00       331.30
 1032.42        2982.50           2605          79.00       340.02
 1032.45        2982.75           2609          83.00       357.46
 1032.48        2983.00           2612          70.00       300.79
 1032.51        2983.25           2616          87.00       374.90
 1032.54        2983.50           2619          88.00       379.26
 1032.57        2983.75           2623          72.00       309.51
 1032.60        2984.00           2626          77.00       331.30
HS scan finished at 17:12:49
end
