************************************************************
  HS Scan of (1) Internal mercury lamp
************************************************************
Integration time is 0.2294 seconds per sample
dh261118Reading 51.44 .94 2.74pr1000
************************************************************
Dead Time -------------------------  3.4E-08 
Number of Cycles Used -------------  4 
Starting Wavelength (Angstroms) ---  2950 
Final Wavelength (Angstoms) -------  2984 
Wavelength Increment (Angstroms) --  .25 
Filter Wheel #1 Position ---------- (1) Ground quartz diffuser (ND=2.32)
Filter Wheel #2 Position ---------- (1) Neutral Density 0.494



************************************************************
HS scan start time = 04:50:23
Dark Count =  .3 


Time (GMT)  Wavelength (Ang)  Step Number  Raw Counts  Counts/Second

  291.28        2950.00           2144        1610.00      7018.68
  291.47        2950.25           2147        1629.00      7101.54
  291.50        2950.50           2151        1612.00      7027.40
  291.53        2950.75           2155        1609.00      7014.31
  291.56        2951.00           2158        1584.00      6905.28
  291.59        2951.25           2162        1597.00      6961.98
  291.63        2951.50           2165        1606.00      7001.23
  291.66        2951.75           2169        1573.00      6857.31
  291.69        2952.00           2172        1649.00      7188.77
  291.72        2952.25           2176        1609.00      7014.31
  291.75        2952.50           2179        1630.00      7105.90
  291.78        2952.75           2183        1631.00      7110.26
  291.81        2953.00           2186        1642.00      7158.24
  291.84        2953.25           2190        1703.00      7424.28
  291.87        2953.50           2193        1660.00      7236.74
  291.90        2953.75           2197        1625.00      7084.09
  291.93        2954.00           2200        1646.00      7175.68
  291.96        2954.25           2204        1631.00      7110.26
  291.99        2954.50           2208        1677.00      7310.88
  292.02        2954.75           2211        1657.00      7223.66
  292.05        2955.00           2215        1666.00      7262.91
  292.08        2955.25           2218        1682.00      7332.69
  292.11        2955.50           2222        1704.00      7428.64
  292.15        2955.75           2225        1664.00      7254.19
  292.18        2956.00           2229        1737.00      7572.57
  292.21        2956.25           2232        1747.00      7616.18
  292.24        2956.50           2236        1731.00      7546.40
  292.27        2956.75           2239        1712.00      7463.53
  292.30        2957.00           2243        1712.00      7463.53
  292.33        2957.25           2246        1726.00      7524.59
  292.36        2957.50           2250        1775.00      7738.30
  292.39        2957.75           2254        1797.00      7834.26
  292.42        2958.00           2257        1763.00      7685.97
  292.45        2958.25           2261        1806.00      7873.51
  292.48        2958.50           2264        1795.00      7825.53
  292.51        2958.75           2268        1825.00      7956.38
  292.54        2959.00           2271        1862.00      8117.76
  292.57        2959.25           2275        1879.00      8191.91
  292.60        2959.50           2278        1881.00      8200.63
  292.63        2959.75           2282        1938.00      8449.24
  292.66        2960.00           2285        1928.00      8405.63
  292.70        2960.25           2289        1953.00      8514.67
  292.73        2960.50           2293        2023.00      8819.99
  292.76        2960.75           2296        2040.00      8894.14
  292.79        2961.00           2300        2252.00      9818.88
  292.82        2961.25           2303        3327.00     14508.90
  292.85        2961.50           2307       10842.00     47337.24
  292.88        2961.75           2310       20959.00     91648.25
  292.91        2962.00           2314       38698.00    169666.90
  292.94        2962.25           2317       53708.00    236008.70
  292.97        2962.50           2321       73826.00    325401.10
  293.00        2962.75           2324       89349.00    394751.50
  293.03        2963.00           2328      111293.00    493353.40
  293.06        2963.25           2331      129238.00    574485.00
  293.09        2963.50           2335      150937.00    673196.60
  293.12        2963.75           2339      170267.00    761699.30
  293.15        2964.00           2342      185179.00    830345.00
  293.18        2964.25           2346      207976.00    935920.60
  293.22        2964.50           2349      224222.00   1011631.00
  293.25        2964.75           2353      245383.00   1110845.00
  293.28        2965.00           2356      261366.00   1186236.00
  293.31        2965.25           2360      278768.00   1268773.00
  293.34        2965.50           2363      293028.00   1336761.00
  293.37        2965.75           2367      313562.00   1435233.00
  293.40        2966.00           2370      327916.00   1504471.00
  293.43        2966.25           2374      345586.00   1590167.00
  293.46        2966.50           2378      356317.00   1642462.00
  293.49        2966.75           2381      359755.00   1659257.00
  293.52        2967.00           2385      360848.00   1664601.00
  293.55        2967.25           2388      361226.00   1666449.00
  293.58        2967.50           2392      360464.00   1662723.00
  293.61        2967.75           2395      359887.00   1659902.00
  293.64        2968.00           2399      352826.00   1625429.00
  293.67        2968.25           2402      341639.00   1570981.00
  293.70        2968.50           2406      324430.00   1487625.00
  293.74        2968.75           2409      309685.00   1416589.00
  293.77        2969.00           2413      291360.00   1328792.00
  293.80        2969.25           2417      272013.00   1236678.00
  293.83        2969.50           2420      257450.00   1167728.00
  293.86        2969.75           2424      235578.00   1064789.00
  293.89        2970.00           2427      217066.00    978233.20
  293.92        2970.25           2431      196108.00    880862.40
  293.95        2970.50           2434      181075.00    811420.20
  293.98        2970.75           2438      159350.00    711649.50
  294.01        2971.00           2441      142626.00    635309.50
  294.04        2971.25           2445      119927.00    532332.40
  294.07        2971.50           2449       95798.00    423660.00
  294.10        2971.75           2452       78911.00    348082.60
  294.13        2972.00           2456       58341.00    256546.70
  294.16        2972.25           2459       44267.00    194246.00
  294.19        2972.50           2463       24064.00    105274.60
  294.22        2972.75           2466       11635.00     50805.65
  294.26        2973.00           2470        4253.00     18550.06
  294.29        2973.25           2473        2609.00     11376.24
  294.32        2973.50           2477        2105.00      9177.67
  294.35        2973.75           2481        2031.00      8854.89
  294.38        2974.00           2484        2027.00      8837.44
  294.41        2974.25           2488        1961.00      8549.56
  294.44        2974.50           2491        1909.00      8322.76
  294.47        2974.75           2495        1880.00      8196.27
  294.50        2975.00           2498        1900.00      8283.50
  294.53        2975.25           2502        1889.00      8235.52
  294.56        2975.50           2505        1796.00      7829.90
  294.59        2975.75           2509        1799.00      7842.98
  294.62        2976.00           2512        1771.00      7720.86
  294.65        2976.25           2516        1772.00      7725.22
  294.68        2976.50           2520        1777.00      7747.03
  294.71        2976.75           2523        1730.00      7542.04
  294.74        2977.00           2527        1729.00      7537.68
  294.78        2977.25           2530        1698.00      7402.47
  294.81        2977.50           2534        1700.00      7411.20
  294.84        2977.75           2537        1666.00      7262.91
  294.87        2978.00           2541        1661.00      7241.10
  294.90        2978.25           2544        1638.00      7140.79
  294.93        2978.50           2548        1622.00      7071.01
  294.96        2978.75           2552        1614.00      7036.12
  294.99        2979.00           2555        1603.00      6988.15
  295.02        2979.25           2559        1603.00      6988.15
  295.06        2979.50           2562        1629.00      7101.54
  295.09        2979.75           2566        1599.00      6970.70
  295.12        2980.00           2569        1558.00      6791.89
  295.15        2980.25           2573        1616.00      7044.84
  295.18        2980.50           2577        1573.00      6857.31
  295.21        2980.75           2580        1587.00      6918.37
  295.24        2981.00           2584        1537.00      6700.31
  295.27        2981.25           2587        1552.00      6765.72
  295.30        2981.50           2591        1544.00      6730.83
  295.33        2981.75           2594        1536.00      6695.95
  295.36        2982.00           2598        1535.00      6691.58
  295.39        2982.25           2601        1507.00      6569.47
  295.42        2982.50           2605        1467.00      6395.03
  295.46        2982.75           2609        1521.00      6630.53
  295.49        2983.00           2612        1486.00      6477.89
  295.52        2983.25           2616        1473.00      6421.19
  295.55        2983.50           2619        1481.00      6456.08
  295.58        2983.75           2623        1454.00      6338.33
  295.61        2984.00           2626        1495.00      6517.14
HS scan finished at 04:55:50
end
************************************************************
  HS Scan of (1) Internal mercury lamp
************************************************************
Integration time is 0.2294 seconds per sample
dh261118Reading 51.44 .94 2.9pr1000
************************************************************
Dead Time -------------------------  3.4E-08 
Number of Cycles Used -------------  4 
Starting Wavelength (Angstroms) ---  2950 
Final Wavelength (Angstoms) -------  2984 
Wavelength Increment (Angstroms) --  .25 
Filter Wheel #1 Position ---------- (1) Ground quartz diffuser (ND=2.32)
Filter Wheel #2 Position ---------- (1) Neutral Density 0.494



************************************************************
HS scan start time = 17:07:23
Dark Count =  .7 


Time (GMT)  Wavelength (Ang)  Step Number  Raw Counts  Counts/Second

 1028.29        2950.00           2144        1312.00      5717.33
 1028.48        2950.25           2147        1286.00      5603.95
 1028.51        2950.50           2151        1363.00      5939.74
 1028.54        2950.75           2155        1314.00      5726.05
 1028.57        2951.00           2158        1357.00      5913.57
 1028.60        2951.25           2162        1318.00      5743.49
 1028.63        2951.50           2165        1353.00      5896.13
 1028.66        2951.75           2169        1369.00      5965.90
 1028.69        2952.00           2172        1331.00      5800.19
 1028.72        2952.25           2176        1343.00      5852.52
 1028.75        2952.50           2179        1352.00      5891.76
 1028.79        2952.75           2183        1376.00      5996.43
 1028.82        2953.00           2186        1377.00      6000.79
 1028.85        2953.25           2190        1349.00      5878.68
 1028.88        2953.50           2193        1386.00      6040.04
 1028.91        2953.75           2197        1386.00      6040.04
 1028.94        2954.00           2200        1351.00      5887.40
 1028.97        2954.25           2204        1377.00      6000.79
 1029.00        2954.50           2208        1398.00      6092.37
 1029.03        2954.75           2211        1413.00      6157.78
 1029.06        2955.00           2215        1388.00      6048.76
 1029.09        2955.25           2218        1402.00      6109.81
 1029.12        2955.50           2222        1416.00      6170.87
 1029.15        2955.75           2225        1419.00      6183.95
 1029.18        2956.00           2229        1421.00      6192.67
 1029.21        2956.25           2232        1447.00      6306.06
 1029.24        2956.50           2236        1497.00      6524.12
 1029.27        2956.75           2239        1458.00      6354.03
 1029.31        2957.00           2243        1443.00      6288.62
 1029.34        2957.25           2246        1471.00      6410.73
 1029.37        2957.50           2250        1448.00      6310.42
 1029.40        2957.75           2254        1486.00      6476.14
 1029.43        2958.00           2257        1473.00      6419.45
 1029.46        2958.25           2261        1495.00      6515.39
 1029.49        2958.50           2264        1514.00      6598.25
 1029.52        2958.75           2268        1550.00      6755.26
 1029.55        2959.00           2271        1549.00      6750.90
 1029.58        2959.25           2275        1523.00      6637.51
 1029.61        2959.50           2278        1590.00      6929.71
 1029.64        2959.75           2282        1594.00      6947.15
 1029.67        2960.00           2285        1585.00      6907.90
 1029.70        2960.25           2289        1624.00      7077.99
 1029.73        2960.50           2293        1650.00      7191.38
 1029.76        2960.75           2296        1688.00      7357.12
 1029.80        2961.00           2300        1702.00      7418.17
 1029.83        2961.25           2303        1893.00      8251.22
 1029.86        2961.50           2307        4471.00     19499.84
 1029.89        2961.75           2310       11028.00     48148.94
 1029.92        2962.00           2314       24561.00    107455.10
 1029.95        2962.25           2317       36770.00    161165.40
 1029.98        2962.50           2321       55528.00    244071.50
 1030.01        2962.75           2324       69798.00    307457.50
 1030.04        2963.00           2328       88511.00    390997.40
 1030.07        2963.25           2331      100982.00    446937.80
 1030.10        2963.50           2335      120824.00    536386.20
 1030.13        2963.75           2339      138447.00    616294.30
 1030.16        2964.00           2342      153220.00    683619.40
 1030.19        2964.25           2346      172618.00    772498.50
 1030.22        2964.50           2349      187542.00    841250.70
 1030.25        2964.75           2353      205483.00    924335.80
 1030.28        2965.00           2356      218740.00    986037.10
 1030.31        2965.25           2360      235430.00   1064093.00
 1030.35        2965.50           2363      248240.00   1124290.00
 1030.38        2965.75           2367      265227.00   1204506.00
 1030.41        2966.00           2370      277709.00   1263734.00
 1030.44        2966.25           2374      295344.00   1347832.00
 1030.47        2966.50           2378      309659.00   1416462.00
 1030.50        2966.75           2381      312372.00   1429506.00
 1030.53        2967.00           2385      314023.00   1437449.00
 1030.56        2967.25           2388      314124.00   1437935.00
 1030.59        2967.50           2392      314115.00   1437892.00
 1030.62        2967.75           2395      313822.00   1436482.00
 1030.65        2968.00           2399      308811.00   1412387.00
 1030.68        2968.25           2402      300847.00   1374176.00
 1030.71        2968.50           2406      285729.00   1301919.00
 1030.74        2968.75           2409      274107.00   1246618.00
 1030.77        2969.00           2413      257309.00   1167060.00
 1030.80        2969.25           2417      241523.00   1092694.00
 1030.83        2969.50           2420      227544.00   1027159.00
 1030.86        2969.75           2424      207662.00    934459.30
 1030.90        2970.00           2427      194566.00    873722.20
 1030.93        2970.25           2431      175130.00    784048.10
 1030.96        2970.50           2434      161541.00    721678.50
 1030.99        2970.75           2438      144572.00    644170.00
 1031.02        2971.00           2441      131383.00    584211.30
 1031.05        2971.25           2445      112544.00    498992.90
 1031.08        2971.50           2449       93607.00    413830.30
 1031.11        2971.75           2452       79249.00    349589.70
 1031.14        2972.00           2456       61354.00    269917.00
 1031.17        2972.25           2459       46936.00    206038.60
 1031.20        2972.50           2463       28715.00    125707.50
 1031.23        2972.75           2466       17137.00     74890.99
 1031.26        2973.00           2470        6729.00     29359.28
 1031.29        2973.25           2473        3265.00     14236.62
 1031.32        2973.50           2477        1890.00      8238.14
 1031.35        2973.75           2481        1719.00      7492.32
 1031.39        2974.00           2484        1690.00      7365.84
 1031.42        2974.25           2488        1629.00      7099.80
 1031.45        2974.50           2491        1628.00      7095.43
 1031.48        2974.75           2495        1603.00      6986.40
 1031.51        2975.00           2498        1610.00      7016.93
 1031.54        2975.25           2502        1576.00      6868.65
 1031.57        2975.50           2505        1579.00      6881.73
 1031.60        2975.75           2509        1529.00      6663.67
 1031.63        2976.00           2512        1521.00      6628.78
 1031.66        2976.25           2516        1512.00      6589.53
 1031.69        2976.50           2520        1481.00      6454.34
 1031.72        2976.75           2523        1438.00      6266.81
 1031.75        2977.00           2527        1423.00      6201.40
 1031.78        2977.25           2530        1419.00      6183.95
 1031.81        2977.50           2534        1430.00      6231.92
 1031.84        2977.75           2537        1433.00      6245.01
 1031.87        2978.00           2541        1401.00      6105.45
 1031.91        2978.25           2544        1435.00      6253.73
 1031.94        2978.50           2548        1391.00      6061.84
 1031.97        2978.75           2552        1345.00      5861.24
 1032.00        2979.00           2555        1375.00      5992.07
 1032.03        2979.25           2559        1350.00      5883.04
 1032.06        2979.50           2562        1351.00      5887.40
 1032.09        2979.75           2566        1313.00      5721.69
 1032.12        2980.00           2569        1331.00      5800.19
 1032.15        2980.25           2573        1291.00      5625.75
 1032.18        2980.50           2577        1289.00      5617.03
 1032.21        2980.75           2580        1333.00      5808.91
 1032.24        2981.00           2584        1298.00      5656.28
 1032.27        2981.25           2587        1294.00      5638.83
 1032.30        2981.50           2591        1257.00      5477.48
 1032.33        2981.75           2594        1311.00      5712.97
 1032.36        2982.00           2598        1293.00      5634.47
 1032.39        2982.25           2601        1282.00      5586.50
 1032.42        2982.50           2605        1264.00      5508.01
 1032.46        2982.75           2609        1268.00      5525.45
 1032.49        2983.00           2612        1299.00      5660.64
 1032.52        2983.25           2616        1268.00      5525.45
 1032.55        2983.50           2619        1245.00      5425.15
 1032.58        2983.75           2623        1236.00      5385.90
 1032.61        2984.00           2626        1249.00      5442.59
HS scan finished at 17:12:50
end
