************************************************************
  HS Scan of (1) Internal mercury lamp
************************************************************
Integration time is 0.2294 seconds per sample
dh041218Reading 51.44 .94 2.47pr1000
************************************************************
Dead Time -------------------------  3.4E-08 
Number of Cycles Used -------------  4 
Starting Wavelength (Angstroms) ---  2950 
Final Wavelength (Angstoms) -------  2984 
Wavelength Increment (Angstroms) --  .25 
Filter Wheel #1 Position ---------- (1) Ground quartz diffuser (ND=2.32)
Filter Wheel #2 Position ---------- (1) Neutral Density 0.494



************************************************************
HS scan start time = 05:02:25
Dark Count =  .3 


Time (GMT)  Wavelength (Ang)  Step Number  Raw Counts  Counts/Second

  303.32        2950.00           2144        1626.00      7088.46
  303.51        2950.25           2147        1638.00      7140.79
  303.54        2950.50           2151        1629.00      7101.54
  303.57        2950.75           2155        1675.00      7302.16
  303.60        2951.00           2158        1723.00      7511.51
  303.63        2951.25           2162        1656.00      7219.30
  303.67        2951.50           2165        1663.00      7249.83
  303.70        2951.75           2169        1666.00      7262.91
  303.73        2952.00           2172        1658.00      7228.02
  303.76        2952.25           2176        1639.00      7145.15
  303.79        2952.50           2179        1654.00      7210.57
  303.82        2952.75           2183        1667.00      7267.27
  303.85        2953.00           2186        1669.00      7275.99
  303.88        2953.25           2190        1689.00      7363.22
  303.91        2953.50           2193        1697.00      7398.11
  303.94        2953.75           2197        1707.00      7441.73
  303.98        2954.00           2200        1672.00      7289.08
  304.01        2954.25           2204        1727.00      7528.95
  304.04        2954.50           2208        1700.00      7411.20
  304.07        2954.75           2211        1712.00      7463.53
  304.10        2955.00           2215        1709.00      7450.45
  304.13        2955.25           2218        1722.00      7507.15
  304.16        2955.50           2222        1724.00      7515.87
  304.19        2955.75           2225        1764.00      7690.33
  304.22        2956.00           2229        1714.00      7472.26
  304.25        2956.25           2232        1735.00      7563.85
  304.28        2956.50           2236        1771.00      7720.86
  304.31        2956.75           2239        1768.00      7707.77
  304.34        2957.00           2243        1798.00      7838.62
  304.37        2957.25           2246        1803.00      7860.43
  304.40        2957.50           2250        1788.00      7795.00
  304.43        2957.75           2254        1784.00      7777.56
  304.46        2958.00           2257        1803.00      7860.43
  304.50        2958.25           2261        1894.00      8257.33
  304.53        2958.50           2264        1874.00      8170.10
  304.56        2958.75           2268        1877.00      8183.18
  304.59        2959.00           2271        1875.00      8174.46
  304.62        2959.25           2275        1917.00      8357.65
  304.65        2959.50           2278        1951.00      8505.95
  304.68        2959.75           2282        1963.00      8558.29
  304.71        2960.00           2285        1975.00      8610.63
  304.74        2960.25           2289        1972.00      8597.54
  304.77        2960.50           2293        2026.00      8833.08
  304.80        2960.75           2296        2034.00      8867.97
  304.83        2961.00           2300        2156.00      9400.13
  304.86        2961.25           2303        2576.00     11232.28
  304.89        2961.50           2307        6709.00     29273.68
  304.92        2961.75           2310       15492.00     67686.98
  304.95        2962.00           2314       30672.00    134316.00
  304.99        2962.25           2317       43305.00    189997.20
  305.02        2962.50           2321       61186.00    269172.80
  305.05        2962.75           2324       75709.00    333796.10
  305.08        2963.00           2328       95638.00    422942.10
  305.11        2963.25           2331      111066.00    492330.10
  305.14        2963.50           2335      132224.00    588029.00
  305.17        2963.75           2339      153334.00    684142.10
  305.20        2964.00           2342      168340.00    752852.40
  305.23        2964.25           2346      187543.00    841257.20
  305.26        2964.50           2349      201419.00    905475.30
  305.29        2964.75           2353      222032.00   1001402.00
  305.32        2965.00           2356      237971.00   1076016.00
  305.35        2965.25           2360      257015.00   1165674.00
  305.38        2965.50           2363      271900.00   1236142.00
  305.41        2965.75           2367      289041.00   1317720.00
  305.44        2966.00           2370      302482.00   1382014.00
  305.47        2966.25           2374      319855.00   1465547.00
  305.51        2966.50           2378      333647.00   1532209.00
  305.54        2966.75           2381      337896.00   1552809.00
  305.57        2967.00           2385      340488.00   1565390.00
  305.60        2967.25           2388      340237.00   1564171.00
  305.63        2967.50           2392      340594.00   1565905.00
  305.66        2967.75           2395      339366.00   1559943.00
  305.69        2968.00           2399      336950.00   1548220.00
  305.72        2968.25           2402      328938.00   1509414.00
  305.75        2968.50           2406      313879.00   1436758.00
  305.78        2968.75           2409      299300.00   1366767.00
  305.81        2969.00           2413      280028.00   1274767.00
  305.84        2969.25           2417      260108.00   1180288.00
  305.87        2969.50           2420      244944.00   1108779.00
  305.90        2969.75           2424      223404.00   1007809.00
  305.93        2970.00           2427      207774.00    934981.60
  305.96        2970.25           2431      186794.00    837799.00
  305.99        2970.50           2434      170768.00    764000.40
  306.03        2970.75           2438      149980.00    668829.00
  306.06        2971.00           2441      134850.00    599950.60
  306.09        2971.25           2445      113979.00    505468.50
  306.12        2971.50           2449       95156.00    420779.60
  306.15        2971.75           2452       81298.00    358741.90
  306.18        2972.00           2456       60227.00    264915.50
  306.21        2972.25           2459       44037.00    193230.00
  306.24        2972.50           2463       24574.00    107513.90
  306.27        2972.75           2466       12483.00     54515.52
  306.30        2973.00           2470        4685.00     20435.73
  306.33        2973.25           2473        2790.00     12165.89
  306.36        2973.50           2477        2123.00      9256.18
  306.39        2973.75           2481        2041.00      8898.51
  306.42        2974.00           2484        1993.00      8689.14
  306.45        2974.25           2488        1934.00      8431.80
  306.48        2974.50           2491        1885.00      8218.08
  306.51        2974.75           2495        1911.00      8331.48
  306.55        2975.00           2498        1876.00      8178.82
  306.58        2975.25           2502        1821.00      7938.93
  306.61        2975.50           2505        1847.00      8052.34
  306.64        2975.75           2509        1799.00      7842.98
  306.67        2976.00           2512        1819.00      7930.21
  306.70        2976.25           2516        1843.00      8034.89
  306.73        2976.50           2520        1805.00      7869.15
  306.76        2976.75           2523        1746.00      7611.82
  306.79        2977.00           2527        1745.00      7607.46
  306.82        2977.25           2530        1749.00      7624.91
  306.85        2977.50           2534        1728.00      7533.32
  306.88        2977.75           2537        1743.00      7598.74
  306.91        2978.00           2541        1706.00      7437.36
  306.94        2978.25           2544        1700.00      7411.20
  306.97        2978.50           2548        1680.00      7323.97
  307.00        2978.75           2552        1676.00      7306.52
  307.03        2979.00           2555        1645.00      7171.32
  307.06        2979.25           2559        1627.00      7092.82
  307.10        2979.50           2562        1620.00      7062.29
  307.13        2979.75           2566        1590.00      6931.45
  307.16        2980.00           2569        1568.00      6835.50
  307.19        2980.25           2573        1555.00      6778.81
  307.22        2980.50           2577        1574.00      6861.67
  307.25        2980.75           2580        1612.00      7027.40
  307.28        2981.00           2584        1585.00      6909.64
  307.31        2981.25           2587        1588.00      6922.73
  307.34        2981.50           2591        1567.00      6831.14
  307.37        2981.75           2594        1542.00      6722.11
  307.40        2982.00           2598        1526.00      6652.33
  307.43        2982.25           2601        1570.00      6844.23
  307.46        2982.50           2605        1556.00      6783.17
  307.49        2982.75           2609        1542.00      6722.11
  307.52        2983.00           2612        1517.00      6613.08
  307.55        2983.25           2616        1506.00      6565.11
  307.59        2983.50           2619        1511.00      6586.92
  307.62        2983.75           2623        1553.00      6770.08
  307.65        2984.00           2626        1491.00      6499.69
HS scan finished at 05:07:52
end
************************************************************
  HS Scan of (1) Internal mercury lamp
************************************************************
Integration time is 0.2294 seconds per sample
dh041218Reading 51.44 .94 3.01pr1000
************************************************************
Dead Time -------------------------  3.4E-08 
Number of Cycles Used -------------  4 
Starting Wavelength (Angstroms) ---  2950 
Final Wavelength (Angstoms) -------  2984 
Wavelength Increment (Angstroms) --  .25 
Filter Wheel #1 Position ---------- (1) Ground quartz diffuser (ND=2.32)
Filter Wheel #2 Position ---------- (1) Neutral Density 0.494



************************************************************
HS scan start time = 16:37:20
Dark Count =  .9 


Time (GMT)  Wavelength (Ang)  Step Number  Raw Counts  Counts/Second

  998.23        2950.00           2144        1396.00      6082.78
  998.43        2950.25           2147        1395.00      6078.41
  998.46        2950.50           2151        1340.00      5838.56
  998.49        2950.75           2155        1368.00      5960.67
  998.52        2951.00           2158        1385.00      6034.80
  998.55        2951.25           2162        1406.00      6126.39
  998.58        2951.50           2165        1381.00      6017.36
  998.61        2951.75           2169        1389.00      6052.25
  998.64        2952.00           2172        1401.00      6104.58
  998.67        2952.25           2176        1377.00      5999.92
  998.70        2952.50           2179        1380.00      6013.00
  998.73        2952.75           2183        1428.00      6222.33
  998.76        2953.00           2186        1374.00      5986.83
  998.79        2953.25           2190        1396.00      6082.78
  998.82        2953.50           2193        1440.00      6274.66
  998.85        2953.75           2197        1405.00      6122.02
  998.88        2954.00           2200        1409.00      6139.47
  998.91        2954.25           2204        1388.00      6047.89
  998.95        2954.50           2208        1411.00      6148.19
  998.98        2954.75           2211        1428.00      6222.33
  999.01        2955.00           2215        1462.00      6370.60
  999.04        2955.25           2218        1433.00      6244.13
  999.07        2955.50           2222        1478.00      6440.38
  999.10        2955.75           2225        1453.00      6331.35
  999.13        2956.00           2229        1495.00      6514.52
  999.16        2956.25           2232        1492.00      6501.44
  999.19        2956.50           2236        1494.00      6510.16
  999.22        2956.75           2239        1481.00      6453.47
  999.25        2957.00           2243        1542.00      6719.50
  999.28        2957.25           2246        1504.00      6553.77
  999.31        2957.50           2250        1517.00      6610.47
  999.34        2957.75           2254        1502.00      6545.05
  999.37        2958.00           2257        1549.00      6750.02
  999.40        2958.25           2261        1577.00      6872.14
  999.43        2958.50           2264        1570.00      6841.61
  999.47        2958.75           2268        1570.00      6841.61
  999.50        2959.00           2271        1630.00      7103.28
  999.53        2959.25           2275        1612.00      7024.78
  999.56        2959.50           2278        1659.00      7229.76
  999.59        2959.75           2282        1644.00      7164.34
  999.62        2960.00           2285        1689.00      7360.60
  999.65        2960.25           2289        1714.00      7469.64
  999.68        2960.50           2293        1733.00      7552.51
  999.71        2960.75           2296        1783.00      7770.58
  999.74        2961.00           2300        1845.00      8041.00
  999.77        2961.25           2303        2121.00      9244.84
  999.80        2961.50           2307        5605.00     24449.70
  999.83        2961.75           2310       13219.00     57733.53
  999.86        2962.00           2314       27960.00    122387.50
  999.89        2962.25           2317       41044.00    180013.40
  999.92        2962.50           2321       61744.00    271647.80
  999.95        2962.75           2324       76470.00    337187.60
  999.99        2963.00           2328       95259.00    421239.00
 1000.02        2963.25           2331      108964.00    482854.10
 1000.05        2963.50           2335      129681.00    576490.80
 1000.08        2963.75           2339      150976.00    673371.80
 1000.11        2964.00           2342      167628.00    749582.00
 1000.14        2964.25           2346      188410.00    845258.50
 1000.17        2964.50           2349      202548.00    910710.10
 1000.20        2964.75           2353      220643.00    994914.80
 1000.23        2965.00           2356      235316.00   1063557.00
 1000.26        2965.25           2360      254634.00   1154431.00
 1000.29        2965.50           2363      268379.00   1219439.00
 1000.32        2965.75           2367      287510.00   1310412.00
 1000.35        2966.00           2370      301297.00   1376332.00
 1000.38        2966.25           2374      318034.00   1456765.00
 1000.41        2966.50           2378      330360.00   1516291.00
 1000.44        2966.75           2381      334348.00   1535603.00
 1000.47        2967.00           2385      335565.00   1541501.00
 1000.51        2967.25           2388      336165.00   1544410.00
 1000.54        2967.50           2392      336178.00   1544473.00
 1000.57        2967.75           2395      335401.00   1540706.00
 1000.60        2968.00           2399      331574.00   1522167.00
 1000.63        2968.25           2402      322376.00   1477706.00
 1000.66        2968.50           2406      308009.00   1408533.00
 1000.69        2968.75           2409      295701.00   1349539.00
 1000.72        2969.00           2413      277813.00   1264228.00
 1000.75        2969.25           2417      258535.00   1172851.00
 1000.78        2969.50           2420      244862.00   1108391.00
 1000.81        2969.75           2424      225912.00   1019526.00
 1000.84        2970.00           2427      212015.00    954703.40
 1000.87        2970.25           2431      191909.00    861429.60
 1000.90        2970.50           2434      177121.00    793207.80
 1000.93        2970.75           2438      157268.00    702121.00
 1000.96        2971.00           2441      142712.00    635698.40
 1000.99        2971.25           2445      120604.00    535390.50
 1001.03        2971.50           2449       99774.00    441508.90
 1001.06        2971.75           2452       83420.00    368221.60
 1001.09        2972.00           2456       63746.00    280540.70
 1001.12        2972.25           2459       49339.00    216664.80
 1001.15        2972.50           2463       30587.00    133939.40
 1001.18        2972.75           2466       17246.00     75367.69
 1001.21        2973.00           2470        5331.00     23253.34
 1001.24        2973.25           2473        2610.00     11377.99
 1001.27        2973.50           2477        1895.00      8259.08
 1001.30        2973.75           2481        1824.00      7949.40
 1001.33        2974.00           2484        1728.00      7530.70
 1001.36        2974.25           2488        1734.00      7556.87
 1001.39        2974.50           2491        1693.00      7378.05
 1001.42        2974.75           2495        1684.00      7338.80
 1001.45        2975.00           2498        1686.00      7347.52
 1001.48        2975.25           2502        1620.00      7059.67
 1001.51        2975.50           2505        1628.00      7094.56
 1001.55        2975.75           2509        1601.00      6976.81
 1001.58        2976.00           2512        1574.00      6859.05
 1001.61        2976.25           2516        1574.00      6859.05
 1001.64        2976.50           2520        1537.00      6697.69
 1001.67        2976.75           2523        1485.00      6470.91
 1001.70        2977.00           2527        1512.00      6588.66
 1001.73        2977.25           2530        1517.00      6610.47
 1001.76        2977.50           2534        1487.00      6479.63
 1001.79        2977.75           2537        1453.00      6331.35
 1001.82        2978.00           2541        1407.00      6130.75
 1001.85        2978.25           2544        1441.00      6279.02
 1001.88        2978.50           2548        1448.00      6309.55
 1001.91        2978.75           2552        1431.00      6235.41
 1001.94        2979.00           2555        1457.00      6348.80
 1001.97        2979.25           2559        1393.00      6069.69
 1002.00        2979.50           2562        1380.00      6013.00
 1002.03        2979.75           2566        1407.00      6130.75
 1002.07        2980.00           2569        1367.00      5956.31
 1002.10        2980.25           2573        1370.00      5969.39
 1002.13        2980.50           2577        1366.00      5951.95
 1002.16        2980.75           2580        1335.00      5816.76
 1002.19        2981.00           2584        1357.00      5912.70
 1002.22        2981.25           2587        1336.00      5821.12
 1002.25        2981.50           2591        1340.00      5838.56
 1002.28        2981.75           2594        1312.00      5716.46
 1002.31        2982.00           2598        1314.00      5725.18
 1002.34        2982.25           2601        1354.00      5899.61
 1002.37        2982.50           2605        1315.00      5729.54
 1002.40        2982.75           2609        1332.00      5803.67
 1002.43        2983.00           2612        1334.00      5812.40
 1002.46        2983.25           2616        1288.00      5611.79
 1002.49        2983.50           2619        1306.00      5690.29
 1002.52        2983.75           2623        1286.00      5603.07
 1002.55        2984.00           2626        1276.00      5559.46
HS scan finished at 16:42:47
end
