************************************************************
  HS Scan of (1) Internal mercury lamp
************************************************************
Integration time is 0.2294 seconds per sample
dh021217Reading 51.44 .94 2.56pr1000
************************************************************
Dead Time -------------------------  3.4E-08 
Number of Cycles Used -------------  4 
Starting Wavelength (Angstroms) ---  2950 
Final Wavelength (Angstoms) -------  2984 
Wavelength Increment (Angstroms) --  .25 
Filter Wheel #1 Position ---------- (1) Ground quartz diffuser (ND=2.32)
Filter Wheel #2 Position ---------- (1) Neutral Density 0.494



************************************************************
HS scan start time = 04:57:37
Dark Count =  .2 


Time (GMT)  Wavelength (Ang)  Step Number  Raw Counts  Counts/Second

  298.52        2950.00           2144          91.00       395.82
  298.71        2950.25           2147          81.00       352.23
  298.74        2950.50           2151          93.00       404.54
  298.77        2950.75           2155          91.00       395.82
  298.80        2951.00           2158          91.00       395.82
  298.83        2951.25           2162          94.00       408.90
  298.86        2951.50           2165          89.00       387.10
  298.89        2951.75           2169          89.00       387.10
  298.92        2952.00           2172          94.00       408.90
  298.96        2952.25           2176          95.00       413.26
  298.99        2952.50           2179         112.00       487.37
  299.02        2952.75           2183          89.00       387.10
  299.05        2953.00           2186          86.00       374.02
  299.08        2953.25           2190          89.00       387.10
  299.11        2953.50           2193          93.00       404.54
  299.14        2953.75           2197          95.00       413.26
  299.17        2954.00           2200          88.00       382.74
  299.20        2954.25           2204          93.00       404.54
  299.23        2954.50           2208          90.00       391.46
  299.26        2954.75           2211          86.00       374.02
  299.29        2955.00           2215          92.00       400.18
  299.32        2955.25           2218         100.00       435.05
  299.35        2955.50           2222          96.00       417.62
  299.38        2955.75           2225          88.00       382.74
  299.41        2956.00           2229          96.00       417.62
  299.44        2956.25           2232         119.00       517.88
  299.48        2956.50           2236         118.00       513.52
  299.51        2956.75           2239          95.00       413.26
  299.54        2957.00           2243          96.00       417.62
  299.57        2957.25           2246          97.00       421.98
  299.60        2957.50           2250          94.00       408.90
  299.63        2957.75           2254          95.00       413.26
  299.66        2958.00           2257         105.00       456.85
  299.69        2958.25           2261         105.00       456.85
  299.72        2958.50           2264         105.00       456.85
  299.75        2958.75           2268          99.00       430.70
  299.78        2959.00           2271         109.00       474.29
  299.81        2959.25           2275         103.00       448.13
  299.84        2959.50           2278         103.00       448.13
  299.87        2959.75           2282         109.00       474.29
  299.90        2960.00           2285         115.00       500.44
  299.93        2960.25           2289          98.00       426.34
  299.96        2960.50           2293         112.00       487.37
  299.99        2960.75           2296         120.00       522.24
  300.03        2961.00           2300         138.00       600.71
  300.06        2961.25           2303         259.00      1128.20
  300.09        2961.50           2307         784.00      3417.14
  300.12        2961.75           2310        1509.00      6578.63
  300.15        2962.00           2314        2686.00     11712.60
  300.18        2962.25           2317        3713.00     16193.75
  300.21        2962.50           2321        4943.00     21562.45
  300.24        2962.75           2324        5702.00     24876.31
  300.27        2963.00           2328        6965.00     30392.33
  300.30        2963.25           2331        7968.00     34774.31
  300.33        2963.50           2335        9461.00     41299.45
  300.36        2963.75           2339       11471.00     50088.72
  300.39        2964.00           2342       12280.00     53627.77
  300.42        2964.25           2346       13642.00     59587.91
  300.45        2964.50           2349       15166.00     66259.83
  300.48        2964.75           2353       16737.00     73140.70
  300.51        2965.00           2356       17723.00     77460.94
  300.55        2965.25           2360       18916.00     82689.87
  300.58        2965.50           2363       20035.00     87596.16
  300.61        2965.75           2367       21228.00     92828.71
  300.64        2966.00           2370       22154.00     96891.47
  300.67        2966.25           2374       23420.00    102447.80
  300.70        2966.50           2378       23796.00    104098.40
  300.73        2966.75           2381       23862.00    104388.20
  300.76        2967.00           2385       24297.00    106298.00
  300.79        2967.25           2388       24137.00    105595.50
  300.82        2967.50           2392       23886.00    104493.50
  300.85        2967.75           2395       23974.00    104879.90
  300.88        2968.00           2399       22944.00    100358.40
  300.91        2968.25           2402       22045.00     96413.18
  300.94        2968.50           2406       20720.00     90600.37
  300.97        2968.75           2409       19707.00     86157.86
  301.00        2969.00           2413       18116.00     79183.25
  301.04        2969.25           2417       16891.00     73815.38
  301.07        2969.50           2420       16037.00     70074.35
  301.10        2969.75           2424       14817.00     64731.68
  301.13        2970.00           2427       13703.00     59854.91
  301.16        2970.25           2431       12282.00     53636.53
  301.19        2970.50           2434       11227.00     49021.48
  301.22        2970.75           2438        9710.00     42387.99
  301.25        2971.00           2441        8720.00     38060.56
  301.28        2971.25           2445        7317.00     31930.03
  301.31        2971.50           2449        5958.00     25994.19
  301.34        2971.75           2452        5008.00     21846.21
  301.37        2972.00           2456        3970.00     17315.34
  301.40        2972.25           2459        3109.00     13558.12
  301.43        2972.50           2463        1673.00      7293.88
  301.46        2972.75           2466         753.00      3281.97
  301.49        2973.00           2470         235.00      1023.58
  301.52        2973.25           2473         155.00       674.82
  301.55        2973.50           2477         134.00       583.27
  301.59        2973.75           2481         143.00       622.51
  301.62        2974.00           2484         109.00       474.29
  301.65        2974.25           2488         115.00       500.44
  301.68        2974.50           2491         111.00       483.01
  301.71        2974.75           2495         108.00       469.93
  301.74        2975.00           2498         110.00       478.65
  301.77        2975.25           2502         114.00       496.09
  301.80        2975.50           2505         102.00       443.77
  301.83        2975.75           2509         113.00       491.73
  301.86        2976.00           2512          89.00       387.10
  301.89        2976.25           2516         131.00       570.19
  301.92        2976.50           2520          95.00       413.26
  301.95        2976.75           2523         109.00       474.29
  301.98        2977.00           2527          93.00       404.54
  302.01        2977.25           2530          96.00       417.62
  302.04        2977.50           2534          87.00       378.38
  302.07        2977.75           2537         100.00       435.05
  302.11        2978.00           2541          96.00       417.62
  302.14        2978.25           2544          88.00       382.74
  302.17        2978.50           2548         112.00       487.37
  302.20        2978.75           2552         103.00       448.13
  302.23        2979.00           2555         114.00       496.09
  302.26        2979.25           2559          96.00       417.62
  302.29        2979.50           2562          91.00       395.82
  302.32        2979.75           2566          89.00       387.10
  302.35        2980.00           2569          86.00       374.02
  302.38        2980.25           2573          87.00       378.38
  302.41        2980.50           2577         106.00       461.21
  302.44        2980.75           2580          87.00       378.38
  302.47        2981.00           2584          82.00       356.59
  302.50        2981.25           2587          93.00       404.54
  302.53        2981.50           2591          89.00       387.10
  302.56        2981.75           2594          94.00       408.90
  302.59        2982.00           2598          90.00       391.46
  302.63        2982.25           2601          86.00       374.02
  302.66        2982.50           2605          83.00       360.95
  302.69        2982.75           2609          89.00       387.10
  302.72        2983.00           2612          90.00       391.46
  302.75        2983.25           2616          82.00       356.59
  302.78        2983.50           2619          88.00       382.74
  302.81        2983.75           2623          86.00       374.02
  302.84        2984.00           2626          75.00       326.07
HS scan finished at 05:03:04
end
************************************************************
  HS Scan of (1) Internal mercury lamp
************************************************************
Integration time is 0.2294 seconds per sample
dh021217Reading 51.44 .94 2.82pr1000
************************************************************
Dead Time -------------------------  3.4E-08 
Number of Cycles Used -------------  4 
Starting Wavelength (Angstroms) ---  2950 
Final Wavelength (Angstoms) -------  2984 
Wavelength Increment (Angstroms) --  .25 
Filter Wheel #1 Position ---------- (1) Ground quartz diffuser (ND=2.32)
Filter Wheel #2 Position ---------- (1) Neutral Density 0.494



************************************************************
HS scan start time = 17:07:23
Dark Count =  .5 


Time (GMT)  Wavelength (Ang)  Step Number  Raw Counts  Counts/Second

 1028.28        2950.00           2144          90.00       390.15
 1028.47        2950.25           2147          85.00       368.36
 1028.50        2950.50           2151          84.00       364.00
 1028.54        2950.75           2155          94.00       407.59
 1028.57        2951.00           2158          80.00       346.56
 1028.60        2951.25           2162          88.00       381.43
 1028.63        2951.50           2165          88.00       381.43
 1028.66        2951.75           2169          85.00       368.36
 1028.69        2952.00           2172          95.00       411.95
 1028.72        2952.25           2176          91.00       394.51
 1028.75        2952.50           2179          89.00       385.79
 1028.78        2952.75           2183          92.00       398.87
 1028.81        2953.00           2186          96.00       416.31
 1028.84        2953.25           2190         111.00       481.70
 1028.87        2953.50           2193          91.00       394.51
 1028.90        2953.75           2197          86.00       372.72
 1028.93        2954.00           2200          91.00       394.51
 1028.96        2954.25           2204          92.00       398.87
 1028.99        2954.50           2208          83.00       359.64
 1029.02        2954.75           2211          93.00       403.23
 1029.06        2955.00           2215          88.00       381.43
 1029.09        2955.25           2218          94.00       407.59
 1029.12        2955.50           2222          97.00       420.67
 1029.15        2955.75           2225          95.00       411.95
 1029.18        2956.00           2229          90.00       390.15
 1029.21        2956.25           2232          92.00       398.87
 1029.24        2956.50           2236          94.00       407.59
 1029.27        2956.75           2239         100.00       433.75
 1029.30        2957.00           2243          98.00       425.03
 1029.33        2957.25           2246         107.00       464.26
 1029.36        2957.50           2250          97.00       420.67
 1029.39        2957.75           2254         101.00       438.11
 1029.42        2958.00           2257          98.00       425.03
 1029.45        2958.25           2261         122.00       529.65
 1029.48        2958.50           2264         102.00       442.47
 1029.51        2958.75           2268         106.00       459.90
 1029.54        2959.00           2271         114.00       494.78
 1029.58        2959.25           2275         100.00       433.75
 1029.61        2959.50           2278         103.00       446.82
 1029.64        2959.75           2282         150.00       651.71
 1029.67        2960.00           2285         115.00       499.14
 1029.70        2960.25           2289         143.00       621.20
 1029.73        2960.50           2293         135.00       586.32
 1029.76        2960.75           2296         130.00       564.53
 1029.79        2961.00           2300         160.00       695.31
 1029.82        2961.25           2303         256.00      1113.82
 1029.85        2961.50           2307         874.00      3808.25
 1029.88        2961.75           2310        1605.00      6996.00
 1029.91        2962.00           2314        2882.00     12566.40
 1029.94        2962.25           2317        4044.00     17636.99
 1029.97        2962.50           2321        5477.00     23892.55
 1030.00        2962.75           2324        6499.00     28355.57
 1030.03        2963.00           2328        7988.00     34860.39
 1030.06        2963.25           2331        9129.00     39846.89
 1030.10        2963.50           2335       10695.00     46693.51
 1030.13        2963.75           2339       12043.00     52589.59
 1030.16        2964.00           2342       13224.00     57757.17
 1030.19        2964.25           2346       14601.00     63784.65
 1030.22        2964.50           2349       15912.00     69525.54
 1030.25        2964.75           2353       17727.00     77477.15
 1030.28        2965.00           2356       18764.00     82022.23
 1030.31        2965.25           2360       20431.00     89331.50
 1030.34        2965.50           2363       21481.00     93937.30
 1030.37        2965.75           2367       23060.00    100866.30
 1030.40        2966.00           2370       24167.00    105725.90
 1030.43        2966.25           2374       25417.00    111215.30
 1030.46        2966.50           2378       26512.00    116025.70
 1030.49        2966.75           2381       26210.00    114698.80
 1030.52        2967.00           2385       26187.00    114597.80
 1030.55        2967.25           2388       26010.00    113820.20
 1030.58        2967.50           2392       25907.00    113367.70
 1030.62        2967.75           2395       25808.00    112932.80
 1030.65        2968.00           2399       24689.00    108018.10
 1030.68        2968.25           2402       23765.00    103961.00
 1030.71        2968.50           2406       22369.00     97833.61
 1030.74        2968.75           2409       21480.00     93932.91
 1030.77        2969.00           2413       20159.00     88138.62
 1030.80        2969.25           2417       18534.00     81014.04
 1030.83        2969.50           2420       17488.00     76429.83
 1030.86        2969.75           2424       15982.00     69832.13
 1030.89        2970.00           2427       14772.00     64533.34
 1030.92        2970.25           2431       12925.00     56448.69
 1030.95        2970.50           2434       11663.00     50927.26
 1030.98        2970.75           2438       10255.00     44769.49
 1031.01        2971.00           2441        9209.00     40196.57
 1031.04        2971.25           2445        7555.00     32968.50
 1031.07        2971.50           2449        6043.00     26364.08
 1031.10        2971.75           2452        4784.00     20867.03
 1031.14        2972.00           2456        3460.00     15088.39
 1031.17        2972.25           2459        2486.00     10838.78
 1031.20        2972.50           2463        1254.00      5465.27
 1031.23        2972.75           2466         562.00      2447.89
 1031.26        2973.00           2470         194.00       843.53
 1031.29        2973.25           2473         155.00       673.51
 1031.32        2973.50           2477         140.00       608.12
 1031.35        2973.75           2481         120.00       520.93
 1031.38        2974.00           2484         137.00       595.04
 1031.41        2974.25           2488         155.00       673.51
 1031.44        2974.50           2491         130.00       564.53
 1031.47        2974.75           2495         141.00       612.48
 1031.50        2975.00           2498         165.00       717.11
 1031.53        2975.25           2502         102.00       442.47
 1031.56        2975.50           2505         122.00       529.65
 1031.59        2975.75           2509         105.00       455.54
 1031.62        2976.00           2512         106.00       459.90
 1031.65        2976.25           2516         104.00       451.18
 1031.69        2976.50           2520          99.00       429.39
 1031.72        2976.75           2523         101.00       438.11
 1031.75        2977.00           2527          94.00       407.59
 1031.78        2977.25           2530          94.00       407.59
 1031.81        2977.50           2534          95.00       411.95
 1031.84        2977.75           2537          99.00       429.39
 1031.87        2978.00           2541         114.00       494.78
 1031.90        2978.25           2544          96.00       416.31
 1031.93        2978.50           2548          97.00       420.67
 1031.96        2978.75           2552          88.00       381.43
 1031.99        2979.00           2555         105.00       455.54
 1032.02        2979.25           2559         111.00       481.70
 1032.05        2979.50           2562         100.00       433.75
 1032.08        2979.75           2566          94.00       407.59
 1032.11        2980.00           2569          96.00       416.31
 1032.14        2980.25           2573          93.00       403.23
 1032.17        2980.50           2577          85.00       368.36
 1032.21        2980.75           2580          88.00       381.43
 1032.24        2981.00           2584          85.00       368.36
 1032.27        2981.25           2587          95.00       411.95
 1032.30        2981.50           2591          78.00       337.84
 1032.33        2981.75           2594          94.00       407.59
 1032.36        2982.00           2598          85.00       368.36
 1032.39        2982.25           2601          87.00       377.08
 1032.42        2982.50           2605          91.00       394.51
 1032.45        2982.75           2609         100.00       433.75
 1032.48        2983.00           2612          89.00       385.79
 1032.51        2983.25           2616          88.00       381.43
 1032.54        2983.50           2619          81.00       350.92
 1032.57        2983.75           2623          85.00       368.36
 1032.60        2984.00           2626          79.00       342.20
HS scan finished at 17:12:50
end
