************************************************************
  HS Scan of (1) Internal mercury lamp
************************************************************
Integration time is 0.2294 seconds per sample
dh021218Reading 51.44 .94 3.17pr1000
************************************************************
Dead Time -------------------------  3.4E-08 
Number of Cycles Used -------------  4 
Starting Wavelength (Angstroms) ---  2950 
Final Wavelength (Angstoms) -------  2984 
Wavelength Increment (Angstroms) --  .25 
Filter Wheel #1 Position ---------- (1) Ground quartz diffuser (ND=2.32)
Filter Wheel #2 Position ---------- (1) Neutral Density 0.494



************************************************************
HS scan start time = 04:57:19
Dark Count =  1.4 


Time (GMT)  Wavelength (Ang)  Step Number  Raw Counts  Counts/Second

  298.21        2950.00           2144        1516.00      6603.92
  298.40        2950.25           2147        1506.00      6560.31
  298.43        2950.50           2151        1531.00      6669.34
  298.46        2950.75           2155        1503.00      6547.23
  298.50        2951.00           2158        1516.00      6603.92
  298.53        2951.25           2162        1491.00      6494.90
  298.56        2951.50           2165        1519.00      6617.01
  298.59        2951.75           2169        1554.00      6769.65
  298.62        2952.00           2172        1484.00      6464.37
  298.65        2952.25           2176        1518.00      6612.65
  298.68        2952.50           2179        1540.00      6708.59
  298.71        2952.75           2183        1548.00      6743.48
  298.74        2953.00           2186        1570.00      6839.43
  298.77        2953.25           2190        1569.00      6835.07
  298.80        2953.50           2193        1556.00      6778.37
  298.83        2953.75           2197        1577.00      6869.96
  298.86        2954.00           2200        1601.00      6974.63
  298.89        2954.25           2204        1559.00      6791.45
  298.92        2954.50           2208        1618.00      7048.77
  298.95        2954.75           2211        1589.00      6922.29
  298.98        2955.00           2215        1631.00      7105.47
  299.01        2955.25           2218        1633.00      7114.19
  299.05        2955.50           2222        1628.00      7092.38
  299.08        2955.75           2225        1619.00      7053.13
  299.11        2956.00           2229        1657.00      7218.86
  299.14        2956.25           2232        1674.00      7293.00
  299.17        2956.50           2236        1649.00      7183.97
  299.20        2956.75           2239        1654.00      7205.78
  299.23        2957.00           2243        1643.00      7157.80
  299.26        2957.25           2246        1700.00      7406.40
  299.29        2957.50           2250        1708.00      7441.29
  299.32        2957.75           2254        1747.00      7611.39
  299.35        2958.00           2257        1767.00      7698.61
  299.38        2958.25           2261        1723.00      7506.71
  299.41        2958.50           2264        1739.00      7576.49
  299.44        2958.75           2268        1780.00      7755.31
  299.47        2959.00           2271        1768.00      7702.98
  299.50        2959.25           2275        1782.00      7764.04
  299.54        2959.50           2278        1820.00      7929.78
  299.57        2959.75           2282        1872.00      8156.58
  299.60        2960.00           2285        1894.00      8252.53
  299.63        2960.25           2289        1912.00      8331.04
  299.66        2960.50           2293        1932.00      8418.28
  299.69        2960.75           2296        2003.00      8727.96
  299.72        2961.00           2300        2094.00      9124.89
  299.75        2961.25           2303        2647.00     11537.22
  299.78        2961.50           2307        7383.00     32213.12
  299.81        2961.75           2310       17078.00     74629.41
  299.84        2962.00           2314       36158.00    158465.30
  299.87        2962.25           2317       53395.00    234617.40
  299.90        2962.50           2321       76290.00    336382.40
  299.93        2962.75           2324       92471.00    408734.20
  299.96        2963.00           2328      115334.00    511579.00
  299.99        2963.25           2331      133132.00    592145.10
  300.02        2963.50           2335      157825.00    704666.60
  300.06        2963.75           2339      182507.00    818015.60
  300.09        2964.00           2342      200077.00    899247.00
  300.12        2964.25           2346      223643.00   1008920.00
  300.15        2964.50           2349      240962.00   1090055.00
  300.18        2964.75           2353      265075.00   1203783.00
  300.21        2965.00           2356      282157.00   1284896.00
  300.24        2965.25           2360      304921.00   1393707.00
  300.27        2965.50           2363      321734.00   1474605.00
  300.30        2965.75           2367      343003.00   1577603.00
  300.33        2966.00           2370      357702.00   1649220.00
  300.36        2966.25           2374      377150.00   1744532.00
  300.39        2966.50           2378      389595.00   1805859.00
  300.42        2966.75           2381      393422.00   1824771.00
  300.45        2967.00           2385      393481.00   1825062.00
  300.48        2967.25           2388      394928.00   1832220.00
  300.51        2967.50           2392      394958.00   1832368.00
  300.54        2967.75           2395      393924.00   1827253.00
  300.57        2968.00           2399      387552.00   1795773.00
  300.61        2968.25           2402      378337.00   1750370.00
  300.64        2968.50           2406      360776.00   1664243.00
  300.67        2968.75           2409      344479.00   1584778.00
  300.70        2969.00           2413      321878.00   1475300.00
  300.73        2969.25           2417      300790.00   1373900.00
  300.76        2969.50           2420      285007.00   1298474.00
  300.79        2969.75           2424      263398.00   1195844.00
  300.82        2970.00           2427      246210.00   1114731.00
  300.85        2970.25           2431      222055.00   1001504.00
  300.88        2970.50           2434      205189.00    922967.20
  300.91        2970.75           2438      179634.00    804776.10
  300.94        2971.00           2441      161242.00    720306.00
  300.97        2971.25           2445      138303.00    615636.50
  301.00        2971.50           2449      114767.00    509019.60
  301.03        2971.75           2452       98700.00    436682.40
  301.06        2972.00           2456       77334.00    341039.80
  301.09        2972.25           2459       60183.00    264715.40
  301.13        2972.50           2463       37283.00    163423.40
  301.16        2972.75           2466       20671.00     90380.18
  301.19        2973.00           2470        6226.00     27159.33
  301.22        2973.25           2473        2938.00     12806.80
  301.25        2973.50           2477        2148.00      9360.43
  301.28        2973.75           2481        2012.00      8767.22
  301.31        2974.00           2484        2027.00      8832.64
  301.34        2974.25           2488        1935.00      8431.36
  301.37        2974.50           2491        1937.00      8440.09
  301.40        2974.75           2495        1874.00      8165.30
  301.43        2975.00           2498        1859.00      8099.88
  301.46        2975.25           2502        1805.00      7864.35
  301.49        2975.50           2505        1840.00      8017.01
  301.52        2975.75           2509        1823.00      7942.86
  301.55        2976.00           2512        1731.00      7541.60
  301.58        2976.25           2516        1778.00      7746.59
  301.61        2976.50           2520        1700.00      7406.40
  301.65        2976.75           2523        1732.00      7545.96
  301.68        2977.00           2527        1731.00      7541.60
  301.71        2977.25           2530        1709.00      7445.65
  301.74        2977.50           2534        1701.00      7410.76
  301.77        2977.75           2537        1631.00      7105.47
  301.80        2978.00           2541        1645.00      7166.52
  301.83        2978.25           2544        1618.00      7048.77
  301.86        2978.50           2548        1630.00      7101.10
  301.89        2978.75           2552        1595.00      6948.46
  301.92        2979.00           2555        1599.00      6965.90
  301.95        2979.25           2559        1581.00      6887.40
  301.98        2979.50           2562        1563.00      6808.90
  302.01        2979.75           2566        1575.00      6861.23
  302.04        2980.00           2569        1526.00      6647.54
  302.07        2980.25           2573        1508.00      6569.04
  302.10        2980.50           2577        1514.00      6595.20
  302.13        2980.75           2580        1526.00      6647.54
  302.17        2981.00           2584        1499.00      6529.78
  302.20        2981.25           2587        1495.00      6512.34
  302.23        2981.50           2591        1482.00      6455.65
  302.26        2981.75           2594        1465.00      6381.51
  302.29        2982.00           2598        1470.00      6403.31
  302.32        2982.25           2601        1474.00      6420.76
  302.35        2982.50           2605        1497.00      6521.06
  302.38        2982.75           2609        1489.00      6486.17
  302.41        2983.00           2612        1449.00      6311.73
  302.44        2983.25           2616        1462.00      6368.42
  302.47        2983.50           2619        1393.00      6067.51
  302.50        2983.75           2623        1449.00      6311.73
  302.53        2984.00           2626        1457.00      6346.62
HS scan finished at 05:02:45
end
************************************************************
  HS Scan of (1) Internal mercury lamp
************************************************************
Integration time is 0.2294 seconds per sample
dh021218Reading 51.44 .94 3.29pr1000
************************************************************
Dead Time -------------------------  3.4E-08 
Number of Cycles Used -------------  4 
Starting Wavelength (Angstroms) ---  2950 
Final Wavelength (Angstoms) -------  2984 
Wavelength Increment (Angstroms) --  .25 
Filter Wheel #1 Position ---------- (1) Ground quartz diffuser (ND=2.32)
Filter Wheel #2 Position ---------- (1) Neutral Density 0.494



************************************************************
HS scan start time = 17:07:27
Dark Count =  1.2 


Time (GMT)  Wavelength (Ang)  Step Number  Raw Counts  Counts/Second

 1028.36        2950.00           2144        1239.00      5396.81
 1028.55        2950.25           2147        1291.00      5623.57
 1028.58        2950.50           2151        1234.00      5375.00
 1028.61        2950.75           2155        1247.00      5431.69
 1028.64        2951.00           2158        1259.00      5484.02
 1028.67        2951.25           2162        1267.00      5518.91
 1028.71        2951.50           2165        1256.00      5470.94
 1028.74        2951.75           2169        1224.00      5331.39
 1028.77        2952.00           2172        1280.00      5575.60
 1028.80        2952.25           2176        1293.00      5632.29
 1028.83        2952.50           2179        1299.00      5658.46
 1028.86        2952.75           2183        1260.00      5488.38
 1028.89        2953.00           2186        1271.00      5536.35
 1028.92        2953.25           2190        1311.00      5710.79
 1028.95        2953.50           2193        1285.00      5597.40
 1028.99        2953.75           2197        1281.00      5579.96
 1029.02        2954.00           2200        1332.00      5802.37
 1029.05        2954.25           2204        1302.00      5671.54
 1029.08        2954.50           2208        1318.00      5741.31
 1029.11        2954.75           2211        1329.00      5789.28
 1029.14        2955.00           2215        1366.00      5950.64
 1029.17        2955.25           2218        1321.00      5754.40
 1029.20        2955.50           2222        1347.00      5867.78
 1029.23        2955.75           2225        1365.00      5946.28
 1029.26        2956.00           2229        1378.00      6002.97
 1029.29        2956.25           2232        1362.00      5933.19
 1029.32        2956.50           2236        1328.00      5784.92
 1029.35        2956.75           2239        1359.00      5920.11
 1029.38        2957.00           2243        1375.00      5989.89
 1029.41        2957.25           2246        1436.00      6255.91
 1029.44        2957.50           2250        1438.00      6264.63
 1029.47        2957.75           2254        1426.00      6212.30
 1029.51        2958.00           2257        1449.00      6312.60
 1029.54        2958.25           2261        1450.00      6316.96
 1029.57        2958.50           2264        1466.00      6386.74
 1029.60        2958.75           2268        1501.00      6539.38
 1029.63        2959.00           2271        1528.00      6657.13
 1029.66        2959.25           2275        1542.00      6718.19
 1029.69        2959.50           2278        1509.00      6574.27
 1029.72        2959.75           2282        1576.00      6866.47
 1029.75        2960.00           2285        1559.00      6792.33
 1029.78        2960.25           2289        1590.00      6927.53
 1029.81        2960.50           2293        1655.00      7211.01
 1029.84        2960.75           2296        1660.00      7232.82
 1029.87        2961.00           2300        1768.00      7703.85
 1029.90        2961.25           2303        2089.00      9103.95
 1029.93        2961.50           2307        5467.00     23845.83
 1029.96        2961.75           2310       12961.00     56603.16
 1029.99        2962.00           2314       27587.00    120746.70
 1030.03        2962.25           2317       41288.00    181088.90
 1030.06        2962.50           2321       61810.00    271939.60
 1030.09        2962.75           2324       77275.00    340777.40
 1030.12        2963.00           2328       97526.00    431411.70
 1030.15        2963.25           2331      111299.00    493376.40
 1030.18        2963.50           2335      130375.00    579636.60
 1030.21        2963.75           2339      151549.00    675986.30
 1030.24        2964.00           2342      168311.00    752715.10
 1030.27        2964.25           2346      188853.00    847303.50
 1030.30        2964.50           2349      203816.00    916593.40
 1030.33        2964.75           2353      221760.00   1000127.00
 1030.36        2965.00           2356      236973.00   1071328.00
 1030.39        2965.25           2360      254647.00   1154490.00
 1030.42        2965.50           2363      267318.00   1214409.00
 1030.45        2965.75           2367      286527.00   1305722.00
 1030.48        2966.00           2370      301163.00   1375688.00
 1030.51        2966.25           2374      318767.00   1460297.00
 1030.55        2966.50           2378      329750.00   1513338.00
 1030.58        2966.75           2381      329243.00   1510885.00
 1030.61        2967.00           2385      334690.00   1537259.00
 1030.64        2967.25           2388      335049.00   1538999.00
 1030.67        2967.50           2392      335654.00   1541932.00
 1030.70        2967.75           2395      334817.00   1537874.00
 1030.73        2968.00           2399      330863.00   1518724.00
 1030.76        2968.25           2402      321967.00   1475730.00
 1030.79        2968.50           2406      307029.00   1403826.00
 1030.82        2968.75           2409      294525.00   1343913.00
 1030.85        2969.00           2413      277282.00   1261702.00
 1030.88        2969.25           2417      258549.00   1172915.00
 1030.91        2969.50           2420      244131.00   1104951.00
 1030.94        2969.75           2424      225499.00   1017594.00
 1030.97        2970.00           2427      211888.00    954110.90
 1031.00        2970.25           2431      191937.00    861557.70
 1031.03        2970.50           2434      177196.00    793551.60
 1031.07        2970.75           2438      157155.00    701602.90
 1031.10        2971.00           2441      141152.00    628596.30
 1031.13        2971.25           2445      118199.00    524518.80
 1031.16        2971.50           2449       97648.00    431959.40
 1031.19        2971.75           2452       82577.00    364452.50
 1031.22        2972.00           2456       64274.00    282885.70
 1031.25        2972.25           2459       51299.00    225337.10
 1031.28        2972.50           2463       31886.00    139653.70
 1031.31        2972.75           2466       17293.00     75572.31
 1031.34        2973.00           2470        5588.00     24374.16
 1031.37        2973.25           2473        2629.00     11459.57
 1031.40        2973.50           2477        1826.00      7956.82
 1031.43        2973.75           2481        1716.00      7477.05
 1031.46        2974.00           2484        1653.00      7202.29
 1031.49        2974.25           2488        1641.00      7149.95
 1031.52        2974.50           2491        1629.00      7097.62
 1031.55        2974.75           2495        1567.00      6827.22
 1031.58        2975.00           2498        1576.00      6866.47
 1031.62        2975.25           2502        1543.00      6722.55
 1031.66        2975.50           2505        1511.00      6582.99
 1031.69        2975.75           2509        1475.00      6425.99
 1031.72        2976.00           2512        1486.00      6473.96
 1031.75        2976.25           2516        1466.00      6386.74
 1031.78        2976.50           2520        1417.00      6173.05
 1031.81        2976.75           2523        1397.00      6085.83
 1031.84        2977.00           2527        1383.00      6024.77
 1031.87        2977.25           2530        1391.00      6059.66
 1031.90        2977.50           2534        1372.00      5976.80
 1031.93        2977.75           2537        1394.00      6072.74
 1031.97        2978.00           2541        1347.00      5867.78
 1032.00        2978.25           2544        1350.00      5880.86
 1032.03        2978.50           2548        1326.00      5776.20
 1032.06        2978.75           2552        1345.00      5859.06
 1032.09        2979.00           2555        1346.00      5863.42
 1032.12        2979.25           2559        1316.00      5732.59
 1032.15        2979.50           2562        1288.00      5610.49
 1032.18        2979.75           2566        1289.00      5614.85
 1032.21        2980.00           2569        1276.00      5558.16
 1032.24        2980.25           2573        1311.00      5710.79
 1032.27        2980.50           2577        1264.00      5505.83
 1032.30        2980.75           2580        1264.00      5505.83
 1032.33        2981.00           2584        1250.00      5444.77
 1032.36        2981.25           2587        1227.00      5344.48
 1032.39        2981.50           2591        1214.00      5287.79
 1032.42        2981.75           2594        1212.00      5279.07
 1032.45        2982.00           2598        1246.00      5427.33
 1032.49        2982.25           2601        1227.00      5344.48
 1032.52        2982.50           2605        1225.00      5335.75
 1032.55        2982.75           2609        1215.00      5292.15
 1032.58        2983.00           2612        1204.00      5244.18
 1032.61        2983.25           2616        1167.00      5082.83
 1032.64        2983.50           2619        1227.00      5344.48
 1032.67        2983.75           2623        1224.00      5331.39
 1032.70        2984.00           2626        1198.00      5218.01
HS scan finished at 17:12:55
end
