************************************************************
  HS Scan of (1) Internal mercury lamp
************************************************************
Integration time is 0.2294 seconds per sample
dh271117Reading 51.44 .94 2.8pr1000
************************************************************
Dead Time -------------------------  3.4E-08 
Number of Cycles Used -------------  4 
Starting Wavelength (Angstroms) ---  2950 
Final Wavelength (Angstoms) -------  2984 
Wavelength Increment (Angstroms) --  .25 
Filter Wheel #1 Position ---------- (1) Ground quartz diffuser (ND=2.32)
Filter Wheel #2 Position ---------- (1) Neutral Density 0.494



************************************************************
HS scan start time = 04:51:50
Dark Count =  .4 


Time (GMT)  Wavelength (Ang)  Step Number  Raw Counts  Counts/Second

  292.73        2950.00           2144          80.00       347.00
  292.92        2950.25           2147          85.00       368.79
  292.95        2950.50           2151          82.00       355.71
  292.98        2950.75           2155          88.00       381.87
  293.02        2951.00           2158          88.00       381.87
  293.05        2951.25           2162          81.00       351.36
  293.08        2951.50           2165          84.00       364.43
  293.11        2951.75           2169          89.00       386.23
  293.14        2952.00           2172          85.00       368.79
  293.17        2952.25           2176          79.00       342.64
  293.20        2952.50           2179          82.00       355.71
  293.23        2952.75           2183          88.00       381.87
  293.26        2953.00           2186          91.00       394.95
  293.29        2953.25           2190          82.00       355.71
  293.32        2953.50           2193          85.00       368.79
  293.35        2953.75           2197          86.00       373.15
  293.38        2954.00           2200          88.00       381.87
  293.41        2954.25           2204          87.00       377.51
  293.44        2954.50           2208          85.00       368.79
  293.47        2954.75           2211         100.00       434.18
  293.50        2955.00           2215          87.00       377.51
  293.54        2955.25           2218          90.00       390.59
  293.57        2955.50           2222          86.00       373.15
  293.60        2955.75           2225          93.00       403.67
  293.64        2956.00           2229          93.00       403.67
  293.67        2956.25           2232         112.00       486.49
  293.70        2956.50           2236          85.00       368.79
  293.73        2956.75           2239          82.00       355.71
  293.76        2957.00           2243          90.00       390.59
  293.80        2957.25           2246          90.00       390.59
  293.83        2957.50           2250         114.00       495.21
  293.86        2957.75           2254          86.00       373.15
  293.89        2958.00           2257          99.00       429.82
  293.92        2958.25           2261         100.00       434.18
  293.95        2958.50           2264         104.00       451.62
  293.98        2958.75           2268         105.00       455.98
  294.01        2959.00           2271          93.00       403.67
  294.04        2959.25           2275          98.00       425.46
  294.07        2959.50           2278          99.00       429.82
  294.10        2959.75           2282         104.00       451.62
  294.13        2960.00           2285         122.00       530.09
  294.16        2960.25           2289         129.00       560.60
  294.19        2960.50           2293         134.00       582.40
  294.22        2960.75           2296         133.00       578.04
  294.25        2961.00           2300         135.00       586.76
  294.28        2961.25           2303         244.00      1061.94
  294.32        2961.50           2307         793.00      3455.51
  294.35        2961.75           2310        1650.00      7192.69
  294.38        2962.00           2314        2869.00     12510.12
  294.41        2962.25           2317        3851.00     16795.12
  294.44        2962.50           2321        5071.00     22120.38
  294.47        2962.75           2324        6005.00     26198.57
  294.50        2963.00           2328        7447.00     32497.09
  294.53        2963.25           2331        8407.00     36691.77
  294.56        2963.50           2335        9845.00     42977.32
  294.59        2963.75           2339       11301.00     49344.27
  294.62        2964.00           2342       12239.00     53447.52
  294.65        2964.25           2346       13688.00     59788.38
  294.68        2964.50           2349       14486.00     63281.61
  294.71        2964.75           2353       16116.00     70419.50
  294.74        2965.00           2356       17006.00     74318.32
  294.77        2965.25           2360       18062.00     78945.71
  294.80        2965.50           2363       18997.00     83044.09
  294.83        2965.75           2367       20600.00     90073.16
  294.87        2966.00           2370       21435.00     93735.92
  294.90        2966.25           2374       22462.00     98242.18
  294.93        2966.50           2378       23090.00    100998.40
  294.96        2966.75           2381       23378.00    102262.50
  294.99        2967.00           2385       23751.00    103900.00
  295.02        2967.25           2388       23706.00    103702.40
  295.05        2967.50           2392       23395.00    102337.20
  295.08        2967.75           2395       23224.00    101586.50
  295.11        2968.00           2399       22462.00     98242.18
  295.14        2968.25           2402       21537.00     94183.41
  295.17        2968.50           2406       20632.00     90213.52
  295.20        2968.75           2409       19736.00     86284.14
  295.23        2969.00           2413       18208.00     79585.60
  295.26        2969.25           2417       16981.00     74208.80
  295.29        2969.50           2420       15847.00     69241.29
  295.32        2969.75           2424       14369.00     62769.39
  295.35        2970.00           2427       13560.00     59228.14
  295.39        2970.25           2431       12178.00     53180.64
  295.42        2970.50           2434       11007.00     48058.41
  295.45        2970.75           2438        9630.00     42037.37
  295.48        2971.00           2441        8743.00     38160.20
  295.51        2971.25           2445        7251.00     31640.82
  295.54        2971.50           2449        5750.00     25085.03
  295.57        2971.75           2452        4748.00     20710.31
  295.60        2972.00           2456        3372.00     14704.82
  295.63        2972.25           2459        2402.00     10472.78
  295.66        2972.50           2463        1133.00      4938.06
  295.69        2972.75           2466         493.00      2147.50
  295.72        2973.00           2470         177.00       769.85
  295.75        2973.25           2473         133.00       578.04
  295.78        2973.50           2477         190.00       826.53
  295.81        2973.75           2481         148.00       643.43
  295.84        2974.00           2484         143.00       621.63
  295.87        2974.25           2488         118.00       512.65
  295.91        2974.50           2491         105.00       455.98
  295.94        2974.75           2495          99.00       429.82
  295.97        2975.00           2498         108.00       469.06
  296.00        2975.25           2502         103.00       447.26
  296.03        2975.50           2505         104.00       451.62
  296.06        2975.75           2509         113.00       490.85
  296.09        2976.00           2512          95.00       412.39
  296.12        2976.25           2516          91.00       394.95
  296.15        2976.50           2520          96.00       416.75
  296.18        2976.75           2523         101.00       438.54
  296.21        2977.00           2527          99.00       429.82
  296.24        2977.25           2530         112.00       486.49
  296.27        2977.50           2534          97.00       421.10
  296.30        2977.75           2537         100.00       434.18
  296.33        2978.00           2541          98.00       425.46
  296.36        2978.25           2544          90.00       390.59
  296.39        2978.50           2548          92.00       399.31
  296.43        2978.75           2552          89.00       386.23
  296.46        2979.00           2555          87.00       377.51
  296.49        2979.25           2559          83.00       360.07
  296.52        2979.50           2562          89.00       386.23
  296.55        2979.75           2566          80.00       347.00
  296.58        2980.00           2569          84.00       364.43
  296.61        2980.25           2573          76.00       329.56
  296.64        2980.50           2577          83.00       360.07
  296.67        2980.75           2580          90.00       390.59
  296.70        2981.00           2584          85.00       368.79
  296.73        2981.25           2587          89.00       386.23
  296.76        2981.50           2591          83.00       360.07
  296.79        2981.75           2594          90.00       390.59
  296.82        2982.00           2598          79.00       342.64
  296.85        2982.25           2601          90.00       390.59
  296.88        2982.50           2605          85.00       368.79
  296.91        2982.75           2609          79.00       342.64
  296.95        2983.00           2612          85.00       368.79
  296.98        2983.25           2616          78.00       338.28
  297.01        2983.50           2619          86.00       373.15
  297.04        2983.75           2623          67.00       290.33
  297.07        2984.00           2626          75.00       325.20
HS scan finished at 04:57:17
end
************************************************************
  HS Scan of (1) Internal mercury lamp
************************************************************
Integration time is 0.2294 seconds per sample
dh271117Reading 51.44 .94 2.98pr1000
************************************************************
Dead Time -------------------------  3.4E-08 
Number of Cycles Used -------------  4 
Starting Wavelength (Angstroms) ---  2950 
Final Wavelength (Angstoms) -------  2984 
Wavelength Increment (Angstroms) --  .25 
Filter Wheel #1 Position ---------- (1) Ground quartz diffuser (ND=2.32)
Filter Wheel #2 Position ---------- (1) Neutral Density 0.494



************************************************************
HS scan start time = 17:07:28
Dark Count =  .9 


Time (GMT)  Wavelength (Ang)  Step Number  Raw Counts  Counts/Second

 1028.36        2950.00           2144          74.00       318.66
 1028.55        2950.25           2147          78.00       336.10
 1028.58        2950.50           2151          81.00       349.18
 1028.61        2950.75           2155          78.00       336.10
 1028.64        2951.00           2158          75.00       323.02
 1028.67        2951.25           2162          80.00       344.82
 1028.70        2951.50           2165          85.00       366.61
 1028.74        2951.75           2169          80.00       344.82
 1028.77        2952.00           2172          74.00       318.66
 1028.80        2952.25           2176          82.00       353.54
 1028.83        2952.50           2179          83.00       357.89
 1028.86        2952.75           2183          79.00       340.46
 1028.89        2953.00           2186          79.00       340.46
 1028.92        2953.25           2190          81.00       349.18
 1028.95        2953.50           2193          84.00       362.25
 1028.98        2953.75           2197          84.00       362.25
 1029.01        2954.00           2200          81.00       349.18
 1029.04        2954.25           2204          87.00       375.33
 1029.07        2954.50           2208          84.00       362.25
 1029.10        2954.75           2211          95.00       410.21
 1029.13        2955.00           2215          82.00       353.54
 1029.16        2955.25           2218          85.00       366.61
 1029.19        2955.50           2222          86.00       370.97
 1029.22        2955.75           2225          87.00       375.33
 1029.26        2956.00           2229          92.00       397.13
 1029.29        2956.25           2232          89.00       384.05
 1029.32        2956.50           2236         109.00       471.24
 1029.35        2956.75           2239         112.00       484.31
 1029.38        2957.00           2243          95.00       410.21
 1029.41        2957.25           2246         108.00       466.88
 1029.44        2957.50           2250          92.00       397.13
 1029.47        2957.75           2254          97.00       418.92
 1029.50        2958.00           2257          94.00       405.85
 1029.53        2958.25           2261          92.00       397.13
 1029.56        2958.50           2264          93.00       401.49
 1029.59        2958.75           2268         119.00       514.83
 1029.62        2959.00           2271          95.00       410.21
 1029.65        2959.25           2275         108.00       466.88
 1029.68        2959.50           2278         106.00       458.16
 1029.71        2959.75           2282         104.00       449.44
 1029.74        2960.00           2285         101.00       436.36
 1029.78        2960.25           2289          98.00       423.28
 1029.81        2960.50           2293         109.00       471.24
 1029.84        2960.75           2296         116.00       501.75
 1029.87        2961.00           2300         146.00       632.53
 1029.90        2961.25           2303         245.00      1064.12
 1029.93        2961.50           2307         805.00      3505.65
 1029.96        2961.75           2310        1573.00      6854.69
 1029.99        2962.00           2314        2794.00     12180.72
 1030.02        2962.25           2317        3732.00     16273.61
 1030.05        2962.50           2321        5016.00     21878.08
 1030.08        2962.75           2324        6131.00     26746.63
 1030.11        2963.00           2328        7609.00     33202.68
 1030.14        2963.25           2331        8773.00     38289.14
 1030.17        2963.50           2335       10080.00     44002.58
 1030.20        2963.75           2339       11641.00     50829.27
 1030.23        2964.00           2342       12513.00     54644.15
 1030.26        2964.25           2346       14011.00     61200.01
 1030.30        2964.50           2349       15235.00     66558.91
 1030.33        2964.75           2353       16700.00     72975.52
 1030.36        2965.00           2356       17744.00     77549.90
 1030.39        2965.25           2360       18981.00     82971.75
 1030.42        2965.50           2363       20193.00     88285.97
 1030.45        2965.75           2367       21540.00     94194.38
 1030.48        2966.00           2370       23017.00    100675.80
 1030.51        2966.25           2374       24051.00    105214.90
 1030.54        2966.50           2378       24655.00    107867.00
 1030.57        2966.75           2381       24675.00    107954.80
 1030.60        2967.00           2385       24668.00    107924.10
 1030.63        2967.25           2388       24668.00    107924.10
 1030.66        2967.50           2392       24508.00    107221.50
 1030.69        2967.75           2395       24204.00    105886.60
 1030.72        2968.00           2399       23341.00    102097.90
 1030.75        2968.25           2402       22275.00     97419.35
 1030.78        2968.50           2406       20771.00     90820.99
 1030.82        2968.75           2409       19871.00     86873.91
 1030.85        2969.00           2413       18680.00     81652.26
 1030.88        2969.25           2417       17261.00     75433.41
 1030.91        2969.50           2420       16202.00     70794.00
 1030.94        2969.75           2424       14812.00     64706.71
 1030.97        2970.00           2427       13631.00     59536.70
 1031.00        2970.25           2431       11923.00     52062.87
 1031.03        2970.50           2434       10945.00     47785.07
 1031.06        2970.75           2438        9584.00     41834.09
 1031.09        2971.00           2441        8478.00     36999.87
 1031.12        2971.25           2445        7176.00     31311.00
 1031.15        2971.50           2449        5681.00     24781.55
 1031.18        2971.75           2452        4592.00     20027.15
 1031.21        2972.00           2456        3327.00     14506.28
 1031.24        2972.25           2459        2339.00     10195.77
 1031.27        2972.50           2463        1207.00      5258.57
 1031.30        2972.75           2466         574.00      2498.47
 1031.33        2973.00           2470         189.00       819.99
 1031.37        2973.25           2473         153.00       663.05
 1031.40        2973.50           2477         117.00       506.11
 1031.43        2973.75           2481         116.00       501.75
 1031.46        2974.00           2484         111.00       479.96
 1031.49        2974.25           2488         132.00       571.50
 1031.52        2974.50           2491         110.00       475.60
 1031.55        2974.75           2495         103.00       445.08
 1031.58        2975.00           2498          98.00       423.28
 1031.61        2975.25           2502         102.00       440.72
 1031.64        2975.50           2505         107.00       462.52
 1031.67        2975.75           2509         101.00       436.36
 1031.70        2976.00           2512          95.00       410.21
 1031.73        2976.25           2516         111.00       479.96
 1031.76        2976.50           2520          90.00       388.41
 1031.79        2976.75           2523          91.00       392.77
 1031.82        2977.00           2527          90.00       388.41
 1031.85        2977.25           2530          91.00       392.77
 1031.89        2977.50           2534          86.00       370.97
 1031.92        2977.75           2537          88.00       379.69
 1031.95        2978.00           2541          98.00       423.28
 1031.98        2978.25           2544          88.00       379.69
 1032.01        2978.50           2548          88.00       379.69
 1032.04        2978.75           2552          83.00       357.89
 1032.07        2979.00           2555          81.00       349.18
 1032.10        2979.25           2559          84.00       362.25
 1032.13        2979.50           2562          78.00       336.10
 1032.16        2979.75           2566          91.00       392.77
 1032.19        2980.00           2569          87.00       375.33
 1032.22        2980.25           2573          85.00       366.61
 1032.25        2980.50           2577          85.00       366.61
 1032.28        2980.75           2580          76.00       327.38
 1032.31        2981.00           2584          81.00       349.18
 1032.34        2981.25           2587          77.00       331.74
 1032.37        2981.50           2591          84.00       362.25
 1032.41        2981.75           2594          77.00       331.74
 1032.44        2982.00           2598          87.00       375.33
 1032.47        2982.25           2601          79.00       340.46
 1032.50        2982.50           2605          78.00       336.10
 1032.53        2982.75           2609          78.00       336.10
 1032.56        2983.00           2612          84.00       362.25
 1032.59        2983.25           2616          72.00       309.94
 1032.62        2983.50           2619          86.00       370.97
 1032.65        2983.75           2623          80.00       344.82
 1032.68        2984.00           2626          74.00       318.66
HS scan finished at 17:12:54
end
