************************************************************
  HS Scan of (1) Internal mercury lamp
************************************************************
Integration time is 0.2294 seconds per sample
dh281117Reading 51.44 .94 2.58pr1000
************************************************************
Dead Time -------------------------  3.4E-08 
Number of Cycles Used -------------  4 
Starting Wavelength (Angstroms) ---  2950 
Final Wavelength (Angstoms) -------  2984 
Wavelength Increment (Angstroms) --  .25 
Filter Wheel #1 Position ---------- (1) Ground quartz diffuser (ND=2.32)
Filter Wheel #2 Position ---------- (1) Neutral Density 0.494



************************************************************
HS scan start time = 04:53:03
Dark Count =  .3 


Time (GMT)  Wavelength (Ang)  Step Number  Raw Counts  Counts/Second

  293.95        2950.00           2144          83.00       360.51
  294.14        2950.25           2147          96.00       417.18
  294.17        2950.50           2151          92.00       399.74
  294.20        2950.75           2155         108.00       469.49
  294.23        2951.00           2158         107.00       465.13
  294.26        2951.25           2162          88.00       382.31
  294.29        2951.50           2165          84.00       364.87
  294.32        2951.75           2169          90.00       391.03
  294.35        2952.00           2172          91.00       395.38
  294.38        2952.25           2176          95.00       412.82
  294.41        2952.50           2179          94.00       408.46
  294.45        2952.75           2183          96.00       417.18
  294.48        2953.00           2186         114.00       495.65
  294.51        2953.25           2190          89.00       386.67
  294.54        2953.50           2193          91.00       395.38
  294.57        2953.75           2197          92.00       399.74
  294.60        2954.00           2200          91.00       395.38
  294.63        2954.25           2204          96.00       417.18
  294.66        2954.50           2208         105.00       456.42
  294.69        2954.75           2211          89.00       386.67
  294.72        2955.00           2215          89.00       386.67
  294.75        2955.25           2218          89.00       386.67
  294.78        2955.50           2222          91.00       395.38
  294.81        2955.75           2225          99.00       430.26
  294.84        2956.00           2229          98.00       425.90
  294.87        2956.25           2232          98.00       425.90
  294.90        2956.50           2236         102.00       443.34
  294.93        2956.75           2239         116.00       504.37
  294.97        2957.00           2243          99.00       430.26
  295.00        2957.25           2246          96.00       417.18
  295.03        2957.50           2250         101.00       438.98
  295.06        2957.75           2254          98.00       425.90
  295.09        2958.00           2257         107.00       465.13
  295.12        2958.25           2261         116.00       504.37
  295.15        2958.50           2264         105.00       456.42
  295.18        2958.75           2268          94.00       408.46
  295.21        2959.00           2271          95.00       412.82
  295.24        2959.25           2275         108.00       469.49
  295.27        2959.50           2278         120.00       521.81
  295.30        2959.75           2282         135.00       587.20
  295.33        2960.00           2285         123.00       534.88
  295.36        2960.25           2289         147.00       639.51
  295.39        2960.50           2293         112.00       486.93
  295.42        2960.75           2296         172.00       748.49
  295.45        2961.00           2300         129.00       561.04
  295.49        2961.25           2303         141.00       613.35
  295.52        2961.50           2307         451.00      1964.82
  295.55        2961.75           2310        1069.00      4659.41
  295.58        2962.00           2314        2209.00      9631.31
  295.61        2962.25           2317        3187.00     13898.02
  295.64        2962.50           2321        4435.00     19344.46
  295.67        2962.75           2324        5343.00     23308.35
  295.70        2963.00           2328        6885.00     30042.44
  295.73        2963.25           2331        8077.00     35250.16
  295.76        2963.50           2335        9492.00     41434.53
  295.79        2963.75           2339       10736.00     46873.69
  295.82        2964.00           2342       12036.00     52559.84
  295.85        2964.25           2346       13434.00     58677.11
  295.88        2964.50           2349       14487.00     63286.43
  295.91        2964.75           2353       15815.00     69101.57
  295.94        2965.00           2356       16892.00     73819.31
  295.97        2965.25           2360       18206.00     79577.27
  296.00        2965.50           2363       19573.00     85569.87
  296.04        2965.75           2367       20804.00     90968.36
  296.07        2966.00           2370       21610.00     94504.12
  296.10        2966.25           2374       22803.00     99739.14
  296.13        2966.50           2378       23794.00    104089.20
  296.16        2966.75           2381       24197.00    105858.50
  296.19        2967.00           2385       23868.00    104414.00
  296.22        2967.25           2388       23983.00    104919.00
  296.25        2967.50           2392       24019.00    105077.00
  296.28        2967.75           2395       23711.00    103724.80
  296.31        2968.00           2399       23211.00    101529.90
  296.34        2968.25           2402       23070.00    100911.00
  296.37        2968.50           2406       22990.00    100559.90
  296.40        2968.75           2409       21812.00     95390.39
  296.43        2969.00           2413       20235.00     88472.80
  296.46        2969.25           2417       18397.00     80414.41
  296.49        2969.50           2420       17057.00     74542.21
  296.52        2969.75           2424       15717.00     68672.36
  296.56        2970.00           2427       14667.00     64074.49
  296.59        2970.25           2431       13048.00     56987.82
  296.62        2970.50           2434       11730.00     51221.21
  296.65        2970.75           2438       10219.00     44612.96
  296.68        2971.00           2441        9063.00     39559.27
  296.71        2971.25           2445        7676.00     33498.03
  296.74        2971.50           2449        6368.00     27784.30
  296.77        2971.75           2452        5314.00     23181.74
  296.80        2972.00           2456        3903.00     17022.49
  296.83        2972.25           2459        2810.00     12253.14
  296.86        2972.50           2463        1605.00      6996.87
  296.89        2972.75           2466         825.00      3595.47
  296.92        2973.00           2470         301.00      1310.87
  296.95        2973.25           2473         160.00       696.18
  296.98        2973.50           2477         128.00       556.68
  297.01        2973.75           2481         113.00       491.29
  297.05        2974.00           2484         147.00       639.51
  297.08        2974.25           2488         155.00       674.38
  297.11        2974.50           2491         145.00       630.79
  297.14        2974.75           2495         121.00       526.16
  297.17        2975.00           2498         118.00       513.09
  297.20        2975.25           2502         102.00       443.34
  297.23        2975.50           2505         107.00       465.13
  297.26        2975.75           2509         115.00       500.01
  297.29        2976.00           2512         113.00       491.29
  297.32        2976.25           2516         104.00       452.06
  297.35        2976.50           2520         136.00       591.56
  297.38        2976.75           2523          99.00       430.26
  297.41        2977.00           2527          92.00       399.74
  297.44        2977.25           2530          93.00       404.10
  297.47        2977.50           2534          99.00       430.26
  297.50        2977.75           2537         105.00       456.42
  297.53        2978.00           2541          94.00       408.46
  297.56        2978.25           2544          99.00       430.26
  297.60        2978.50           2548         117.00       508.73
  297.63        2978.75           2552          92.00       399.74
  297.66        2979.00           2555          89.00       386.67
  297.69        2979.25           2559          95.00       412.82
  297.72        2979.50           2562         100.00       434.62
  297.75        2979.75           2566         133.00       578.48
  297.78        2980.00           2569          91.00       395.38
  297.81        2980.25           2573          99.00       430.26
  297.84        2980.50           2577          92.00       399.74
  297.87        2980.75           2580          92.00       399.74
  297.90        2981.00           2584          91.00       395.38
  297.93        2981.25           2587          89.00       386.67
  297.96        2981.50           2591          87.00       377.95
  297.99        2981.75           2594          92.00       399.74
  298.02        2982.00           2598          89.00       386.67
  298.05        2982.25           2601          85.00       369.23
  298.09        2982.50           2605          93.00       404.10
  298.12        2982.75           2609          85.00       369.23
  298.15        2983.00           2612          94.00       408.46
  298.18        2983.25           2616          90.00       391.03
  298.21        2983.50           2619          93.00       404.10
  298.24        2983.75           2623          93.00       404.10
  298.27        2984.00           2626          93.00       404.10
HS scan finished at 04:58:30
end
************************************************************
  HS Scan of (1) Internal mercury lamp
************************************************************
Integration time is 0.2294 seconds per sample
dh281117Reading 51.44 .94 2.84pr1000
************************************************************
Dead Time -------------------------  3.4E-08 
Number of Cycles Used -------------  4 
Starting Wavelength (Angstroms) ---  2950 
Final Wavelength (Angstoms) -------  2984 
Wavelength Increment (Angstroms) --  .25 
Filter Wheel #1 Position ---------- (1) Ground quartz diffuser (ND=2.32)
Filter Wheel #2 Position ---------- (1) Neutral Density 0.494



************************************************************
HS scan start time = 17:07:22
Dark Count =  .5 


Time (GMT)  Wavelength (Ang)  Step Number  Raw Counts  Counts/Second

 1028.27        2950.00           2144          79.00       342.20
 1028.46        2950.25           2147          66.00       285.53
 1028.49        2950.50           2151          68.00       294.25
 1028.52        2950.75           2155          73.00       316.05
 1028.55        2951.00           2158          72.00       311.69
 1028.58        2951.25           2162          76.00       329.12
 1028.61        2951.50           2165          71.00       307.33
 1028.64        2951.75           2169          78.00       337.84
 1028.67        2952.00           2172          76.00       329.12
 1028.70        2952.25           2176          76.00       329.12
 1028.73        2952.50           2179          71.00       307.33
 1028.76        2952.75           2183          76.00       329.12
 1028.79        2953.00           2186          72.00       311.69
 1028.83        2953.25           2190          83.00       359.64
 1028.86        2953.50           2193          80.00       346.56
 1028.89        2953.75           2197          74.00       320.40
 1028.92        2954.00           2200          75.00       324.76
 1028.95        2954.25           2204          79.00       342.20
 1028.98        2954.50           2208          71.00       307.33
 1029.01        2954.75           2211          89.00       385.79
 1029.04        2955.00           2215          69.00       298.61
 1029.07        2955.25           2218          88.00       381.43
 1029.10        2955.50           2222          74.00       320.40
 1029.13        2955.75           2225          85.00       368.36
 1029.16        2956.00           2229          81.00       350.92
 1029.19        2956.25           2232          79.00       342.20
 1029.22        2956.50           2236          78.00       337.84
 1029.25        2956.75           2239          93.00       403.23
 1029.28        2957.00           2243          78.00       337.84
 1029.31        2957.25           2246          78.00       337.84
 1029.35        2957.50           2250          83.00       359.64
 1029.38        2957.75           2254          84.00       364.00
 1029.41        2958.00           2257          85.00       368.36
 1029.44        2958.25           2261          86.00       372.72
 1029.47        2958.50           2264          87.00       377.08
 1029.50        2958.75           2268          77.00       333.48
 1029.53        2959.00           2271          90.00       390.15
 1029.56        2959.25           2275          88.00       381.43
 1029.59        2959.50           2278          81.00       350.92
 1029.62        2959.75           2282          98.00       425.03
 1029.65        2960.00           2285          90.00       390.15
 1029.68        2960.25           2289         112.00       486.06
 1029.71        2960.50           2293          95.00       411.95
 1029.74        2960.75           2296         109.00       472.98
 1029.77        2961.00           2300         119.00       516.57
 1029.80        2961.25           2303         201.00       874.05
 1029.83        2961.50           2307         655.00      2853.37
 1029.87        2961.75           2310        1293.00      5635.34
 1029.90        2962.00           2314        2335.00     10180.07
 1029.93        2962.25           2317        3226.00     14067.32
 1029.96        2962.50           2321        4357.00     19003.12
 1029.99        2962.75           2324        5095.00     22224.72
 1030.02        2963.00           2328        6244.00     27241.87
 1030.05        2963.25           2331        7177.00     31317.11
 1030.08        2963.50           2335        8553.00     37329.40
 1030.11        2963.75           2339        9864.00     43059.94
 1030.14        2964.00           2342       10730.00     46846.58
 1030.17        2964.25           2346       11897.00     51950.88
 1030.20        2964.50           2349       12560.00     54851.55
 1030.23        2964.75           2353       13806.00     60304.43
 1030.26        2965.00           2356       14679.00     64126.15
 1030.29        2965.25           2360       15862.00     69306.54
 1030.32        2965.50           2363       17015.00     74357.32
 1030.35        2965.75           2367       18126.00     79225.77
 1030.39        2966.00           2370       18845.00     82377.31
 1030.42        2966.25           2374       19787.00     86507.34
 1030.45        2966.50           2378       20533.00     89778.86
 1030.48        2966.75           2381       21036.00     91985.13
 1030.51        2967.00           2385       21033.00     91971.99
 1030.54        2967.25           2388       20918.00     91467.53
 1030.57        2967.50           2392       20932.00     91528.96
 1030.60        2967.75           2395       21195.00     92682.62
 1030.63        2968.00           2399       20611.00     90120.97
 1030.66        2968.25           2402       19711.00     86174.08
 1030.69        2968.50           2406       18766.00     82031.00
 1030.72        2968.75           2409       17828.00     77919.76
 1030.75        2969.00           2413       16566.00     72390.25
 1030.78        2969.25           2417       15355.00     67086.15
 1030.81        2969.50           2420       14529.00     63469.43
 1030.84        2969.75           2424       13398.00     58518.67
 1030.87        2970.00           2427       12418.00     54230.24
 1030.91        2970.25           2431       10832.00     47292.64
 1030.94        2970.50           2434        9975.00     43545.24
 1030.97        2970.75           2438        8817.00     38483.19
 1031.00        2971.00           2441        7818.00     34117.58
 1031.03        2971.25           2445        6591.00     28757.40
 1031.06        2971.50           2449        5475.00     23883.82
 1031.09        2971.75           2452        4575.00     19954.68
 1031.12        2972.00           2456        3301.00     14394.58
 1031.15        2972.25           2459        2349.00     10241.14
 1031.18        2972.50           2463        1276.00      5561.21
 1031.21        2972.75           2466         660.00      2875.17
 1031.24        2973.00           2470         243.00      1057.14
 1031.27        2973.25           2473         152.00       660.43
 1031.30        2973.50           2477         102.00       442.47
 1031.33        2973.75           2481          98.00       425.03
 1031.36        2974.00           2484          94.00       407.59
 1031.39        2974.25           2488          97.00       420.67
 1031.43        2974.50           2491          86.00       372.72
 1031.46        2974.75           2495          85.00       368.36
 1031.49        2975.00           2498          84.00       364.00
 1031.52        2975.25           2502          73.00       316.05
 1031.55        2975.50           2505          81.00       350.92
 1031.58        2975.75           2509          87.00       377.08
 1031.61        2976.00           2512          77.00       333.48
 1031.64        2976.25           2516          87.00       377.08
 1031.67        2976.50           2520          84.00       364.00
 1031.70        2976.75           2523          82.00       355.28
 1031.73        2977.00           2527          90.00       390.15
 1031.76        2977.25           2530          87.00       377.08
 1031.79        2977.50           2534          83.00       359.64
 1031.82        2977.75           2537          84.00       364.00
 1031.85        2978.00           2541          73.00       316.05
 1031.88        2978.25           2544          82.00       355.28
 1031.91        2978.50           2548          82.00       355.28
 1031.95        2978.75           2552          77.00       333.48
 1031.98        2979.00           2555          79.00       342.20
 1032.01        2979.25           2559          80.00       346.56
 1032.04        2979.50           2562          76.00       329.12
 1032.07        2979.75           2566          82.00       355.28
 1032.10        2980.00           2569          81.00       350.92
 1032.13        2980.25           2573          74.00       320.40
 1032.16        2980.50           2577          69.00       298.61
 1032.19        2980.75           2580          78.00       337.84
 1032.22        2981.00           2584          80.00       346.56
 1032.25        2981.25           2587          70.00       302.97
 1032.28        2981.50           2591          78.00       337.84
 1032.31        2981.75           2594          71.00       307.33
 1032.34        2982.00           2598          70.00       302.97
 1032.37        2982.25           2601          70.00       302.97
 1032.40        2982.50           2605          81.00       350.92
 1032.43        2982.75           2609          71.00       307.33
 1032.47        2983.00           2612          73.00       316.05
 1032.50        2983.25           2616          73.00       316.05
 1032.53        2983.50           2619          72.00       311.69
 1032.56        2983.75           2623          76.00       329.12
 1032.59        2984.00           2626          68.00       294.25
HS scan finished at 17:12:49
end
