************************************************************
  HS Scan of (1) Internal mercury lamp
************************************************************
Integration time is 0.2294 seconds per sample
dh291118Reading 51.44 .94 3.09pr1000
************************************************************
Dead Time -------------------------  3.4E-08 
Number of Cycles Used -------------  4 
Starting Wavelength (Angstroms) ---  2950 
Final Wavelength (Angstoms) -------  2984 
Wavelength Increment (Angstroms) --  .25 
Filter Wheel #1 Position ---------- (1) Ground quartz diffuser (ND=2.32)
Filter Wheel #2 Position ---------- (1) Neutral Density 0.494



************************************************************
HS scan start time = 04:53:57
Dark Count =  .9 


Time (GMT)  Wavelength (Ang)  Step Number  Raw Counts  Counts/Second

  294.84        2950.00           2144        1401.00      6104.58
  295.04        2950.25           2147        1435.00      6252.86
  295.07        2950.50           2151        1454.00      6335.72
  295.10        2950.75           2155        1432.00      6239.77
  295.13        2951.00           2158        1422.00      6196.16
  295.16        2951.25           2162        1439.00      6270.30
  295.19        2951.50           2165        1427.00      6217.97
  295.22        2951.75           2169        1450.00      6318.27
  295.25        2952.00           2172        1471.00      6409.85
  295.28        2952.25           2176        1429.00      6226.69
  295.31        2952.50           2179        1444.00      6292.11
  295.34        2952.75           2183        1433.00      6244.13
  295.37        2953.00           2186        1456.00      6344.44
  295.40        2953.25           2190        1502.00      6545.05
  295.44        2953.50           2193        1468.00      6396.77
  295.47        2953.75           2197        1512.00      6588.66
  295.50        2954.00           2200        1487.00      6479.63
  295.53        2954.25           2204        1478.00      6440.38
  295.56        2954.50           2208        1494.00      6510.16
  295.59        2954.75           2211        1511.00      6584.30
  295.62        2955.00           2215        1571.00      6845.97
  295.65        2955.25           2218        1519.00      6619.19
  295.68        2955.50           2222        1550.00      6754.39
  295.71        2955.75           2225        1515.00      6601.74
  295.74        2956.00           2229        1564.00      6815.44
  295.77        2956.25           2232        1555.00      6776.19
  295.80        2956.50           2236        1565.00      6819.80
  295.83        2956.75           2239        1571.00      6845.97
  295.86        2957.00           2243        1596.00      6955.00
  295.89        2957.25           2246        1629.00      7098.92
  295.92        2957.50           2250        1635.00      7125.09
  295.96        2957.75           2254        1700.00      7408.58
  295.99        2958.00           2257        1679.00      7316.99
  296.02        2958.25           2261        1651.00      7194.87
  296.05        2958.50           2264        1722.00      7504.53
  296.08        2958.75           2268        1681.00      7325.71
  296.11        2959.00           2271        1721.00      7500.17
  296.14        2959.25           2275        1743.00      7596.12
  296.17        2959.50           2278        1784.00      7774.94
  296.20        2959.75           2282        1786.00      7783.66
  296.23        2960.00           2285        1821.00      7936.32
  296.26        2960.25           2289        1826.00      7958.13
  296.29        2960.50           2293        1903.00      8293.97
  296.32        2960.75           2296        1980.00      8629.82
  296.35        2961.00           2300        2094.00      9127.07
  296.38        2961.25           2303        2761.00     12036.75
  296.41        2961.50           2307        8156.00     35592.74
  296.44        2961.75           2310       18284.00     79916.50
  296.47        2962.00           2314       36454.00    159771.90
  296.51        2962.25           2317       52206.00    229353.90
  296.54        2962.50           2321       74744.00    329490.50
  296.57        2962.75           2324       92438.00    408588.50
  296.60        2963.00           2328      118407.00    525460.00
  296.63        2963.25           2331      138950.00    618580.60
  296.66        2963.50           2335      163484.00    730579.00
  296.69        2963.75           2339      185650.00    832515.60
  296.72        2964.00           2342      202734.00    911573.10
  296.75        2964.25           2346      227909.00   1028865.00
  296.78        2964.50           2349      246758.00   1117312.00
  296.81        2964.75           2353      269721.00   1225801.00
  296.84        2965.00           2356      286955.00   1307764.00
  296.87        2965.25           2360      309505.00   1415721.00
  296.90        2965.50           2363      324394.00   1487448.00
  296.93        2965.75           2367      345502.00   1589756.00
  296.96        2966.00           2370      362570.00   1673020.00
  296.99        2966.25           2374      384818.00   1782290.00
  297.03        2966.50           2378      400425.00   1859445.00
  297.06        2966.75           2381      405050.00   1882390.00
  297.09        2967.00           2385      406665.00   1890411.00
  297.12        2967.25           2388      407112.00   1892632.00
  297.15        2967.50           2392      408160.00   1897840.00
  297.18        2967.75           2395      407469.00   1894406.00
  297.21        2968.00           2399      402695.00   1870702.00
  297.24        2968.25           2402      392986.00   1822617.00
  297.27        2968.50           2406      373795.00   1728046.00
  297.30        2968.75           2409      357059.00   1646082.00
  297.33        2969.00           2413      336177.00   1544469.00
  297.36        2969.25           2417      315623.00   1445151.00
  297.39        2969.50           2420      298934.00   1365012.00
  297.42        2969.75           2424      274472.00   1248350.00
  297.45        2970.00           2427      255302.00   1157583.00
  297.48        2970.25           2431      229215.00   1034976.00
  297.51        2970.50           2434      211718.00    953321.20
  297.55        2970.75           2438      187963.00    843193.90
  297.58        2971.00           2441      169611.00    758684.20
  297.61        2971.25           2445      142827.00    636221.90
  297.64        2971.50           2449      115352.00    511662.50
  297.67        2971.75           2452       96594.00    427229.50
  297.70        2972.00           2456       71920.00    316905.90
  297.73        2972.25           2459       54667.00    240254.90
  297.76        2972.50           2463       32064.00    140438.40
  297.79        2972.75           2466       16817.00     73488.10
  297.82        2973.00           2470        5761.00     25130.88
  297.85        2973.25           2473        3011.00     13127.48
  297.88        2973.50           2477        2165.00      9436.77
  297.91        2973.75           2481        1985.00      8651.63
  297.94        2974.00           2484        1966.00      8568.76
  297.97        2974.25           2488        1925.00      8389.93
  298.00        2974.50           2491        1877.00      8180.57
  298.03        2974.75           2495        1882.00      8202.37
  298.07        2975.00           2498        1826.00      7958.13
  298.10        2975.25           2502        1777.00      7744.41
  298.13        2975.50           2505        1780.00      7757.50
  298.16        2975.75           2509        1801.00      7849.09
  298.19        2976.00           2512        1800.00      7844.73
  298.22        2976.25           2516        1747.00      7613.57
  298.25        2976.50           2520        1719.00      7491.45
  298.28        2976.75           2523        1678.00      7312.63
  298.31        2977.00           2527        1664.00      7251.57
  298.34        2977.25           2530        1654.00      7207.96
  298.37        2977.50           2534        1647.00      7177.43
  298.40        2977.75           2537        1665.00      7255.93
  298.43        2978.00           2541        1563.00      6811.08
  298.46        2978.25           2544        1629.00      7098.92
  298.49        2978.50           2548        1603.00      6985.53
  298.52        2978.75           2552        1594.00      6946.28
  298.55        2979.00           2555        1549.00      6750.02
  298.59        2979.25           2559        1571.00      6845.97
  298.62        2979.50           2562        1569.00      6837.25
  298.65        2979.75           2566        1558.00      6789.27
  298.68        2980.00           2569        1503.00      6549.41
  298.71        2980.25           2573        1526.00      6649.72
  298.74        2980.50           2577        1496.00      6518.88
  298.77        2980.75           2580        1507.00      6566.85
  298.80        2981.00           2584        1488.00      6483.99
  298.83        2981.25           2587        1475.00      6427.30
  298.86        2981.50           2591        1476.00      6431.66
  298.89        2981.75           2594        1470.00      6405.49
  298.92        2982.00           2598        1430.00      6231.05
  298.95        2982.25           2601        1452.00      6326.99
  298.98        2982.50           2605        1460.00      6361.88
  299.01        2982.75           2609        1429.00      6226.69
  299.04        2983.00           2612        1407.00      6130.75
  299.07        2983.25           2616        1424.00      6204.88
  299.11        2983.50           2619        1440.00      6274.66
  299.14        2983.75           2623        1430.00      6231.05
  299.17        2984.00           2626        1412.00      6152.55
HS scan finished at 04:59:23
end
************************************************************
  HS Scan of (1) Internal mercury lamp
************************************************************
Integration time is 0.2294 seconds per sample
dh291118Reading 51.44 .94 3.15pr1000
************************************************************
Dead Time -------------------------  3.4E-08 
Number of Cycles Used -------------  4 
Starting Wavelength (Angstroms) ---  2950 
Final Wavelength (Angstoms) -------  2984 
Wavelength Increment (Angstroms) --  .25 
Filter Wheel #1 Position ---------- (1) Ground quartz diffuser (ND=2.32)
Filter Wheel #2 Position ---------- (1) Neutral Density 0.494



************************************************************
HS scan start time = 17:07:24
Dark Count =  1.2 


Time (GMT)  Wavelength (Ang)  Step Number  Raw Counts  Counts/Second

 1028.30        2950.00           2144        1503.00      6548.10
 1028.49        2950.25           2147        1484.00      6465.24
 1028.52        2950.50           2151        1478.00      6439.07
 1028.55        2950.75           2155        1522.00      6630.96
 1028.58        2951.00           2158        1536.00      6692.02
 1028.61        2951.25           2162        1543.00      6722.55
 1028.64        2951.50           2165        1527.00      6652.77
 1028.67        2951.75           2169        1526.00      6648.41
 1028.70        2952.00           2172        1549.00      6748.72
 1028.73        2952.25           2176        1556.00      6779.24
 1028.76        2952.50           2179        1521.00      6626.60
 1028.80        2952.75           2183        1514.00      6596.07
 1028.83        2953.00           2186        1539.00      6705.10
 1028.86        2953.25           2190        1550.00      6753.08
 1028.89        2953.50           2193        1597.00      6958.05
 1028.92        2953.75           2197        1549.00      6748.72
 1028.95        2954.00           2200        1536.00      6692.02
 1028.98        2954.25           2204        1605.00      6992.95
 1029.01        2954.50           2208        1584.00      6901.36
 1029.04        2954.75           2211        1568.00      6831.58
 1029.07        2955.00           2215        1602.00      6979.86
 1029.10        2955.25           2218        1630.00      7101.98
 1029.13        2955.50           2222        1656.00      7215.37
 1029.16        2955.75           2225        1627.00      7088.89
 1029.19        2956.00           2229        1628.00      7093.25
 1029.22        2956.25           2232        1644.00      7163.03
 1029.25        2956.50           2236        1647.00      7176.12
 1029.28        2956.75           2239        1661.00      7237.18
 1029.32        2957.00           2243        1720.00      7494.50
 1029.35        2957.25           2246        1653.00      7202.29
 1029.38        2957.50           2250        1692.00      7372.38
 1029.41        2957.75           2254        1712.00      7459.61
 1029.44        2958.00           2257        1703.00      7420.36
 1029.47        2958.25           2261        1735.00      7559.92
 1029.50        2958.50           2264        1753.00      7638.43
 1029.53        2958.75           2268        1780.00      7756.19
 1029.56        2959.00           2271        1805.00      7865.23
 1029.59        2959.25           2275        1768.00      7703.85
 1029.62        2959.50           2278        1823.00      7943.73
 1029.65        2959.75           2282        1834.00      7991.71
 1029.68        2960.00           2285        1869.00      8144.37
 1029.71        2960.25           2289        1912.00      8331.92
 1029.74        2960.50           2293        1894.00      8253.41
 1029.77        2960.75           2296        1967.00      8571.81
 1029.80        2961.00           2300        2053.00      8946.92
 1029.84        2961.25           2303        2265.00      9871.67
 1029.87        2961.50           2307        4917.00     21444.58
 1029.90        2961.75           2310       11866.00     51812.21
 1029.93        2962.00           2314       26856.00    117534.10
 1029.96        2962.25           2317       40728.00    178617.60
 1029.99        2962.50           2321       61560.00    270829.40
 1030.02        2962.75           2324       78082.00    344378.40
 1030.05        2963.00           2328      101745.00    450365.00
 1030.09        2963.25           2331      120098.00    533101.40
 1030.12        2963.50           2335      144438.00    643557.40
 1030.15        2963.75           2339      167121.00    747254.40
 1030.18        2964.00           2342      182295.00    817039.20
 1030.21        2964.25           2346      205180.00    922926.30
 1030.24        2964.50           2349      223121.00   1006483.00
 1030.27        2964.75           2353      245958.00   1113546.00
 1030.30        2965.00           2356      263344.00   1195590.00
 1030.33        2965.25           2360      283468.00   1291142.00
 1030.36        2965.50           2363      297503.00   1358160.00
 1030.39        2965.75           2367      317570.00   1454528.00
 1030.42        2966.00           2370      334253.00   1535141.00
 1030.45        2966.25           2374      356358.00   1642658.00
 1030.48        2966.50           2378      372996.00   1724121.00
 1030.51        2966.75           2381      378713.00   1752221.00
 1030.55        2967.00           2385      381676.00   1766806.00
 1030.58        2967.25           2388      382249.00   1769628.00
 1030.61        2967.50           2392      381846.00   1767643.00
 1030.64        2967.75           2395      381930.00   1768057.00
 1030.67        2968.00           2399      380029.00   1758697.00
 1030.70        2968.25           2402      373369.00   1725953.00
 1030.73        2968.50           2406      357874.00   1650062.00
 1030.76        2968.75           2409      343294.00   1579018.00
 1030.79        2969.00           2413      323772.00   1484443.00
 1030.82        2969.25           2417      304476.00   1391573.00
 1030.85        2969.50           2420      289213.00   1318536.00
 1030.88        2969.75           2424      267922.00   1217271.00
 1030.91        2970.00           2427      248708.00   1126492.00
 1030.94        2970.25           2431      224862.00   1014617.00
 1030.97        2970.50           2434      207709.00    934675.40
 1031.00        2970.75           2438      186623.00    837005.30
 1031.03        2971.00           2441      168401.00    753128.10
 1031.07        2971.25           2445      144812.00    645261.10
 1031.10        2971.50           2449      119789.00    531704.50
 1031.13        2971.75           2452      101180.00    447825.40
 1031.16        2972.00           2456       78645.00    346891.20
 1031.19        2972.25           2459       61418.00    270198.90
 1031.22        2972.50           2463       39090.00    171391.70
 1031.25        2972.75           2466       24379.00    106653.70
 1031.28        2973.00           2470        8891.00     38803.56
 1031.31        2973.25           2473        3978.00     17345.89
 1031.34        2973.50           2477        2272.00      9902.20
 1031.37        2973.75           2481        2018.00      8794.26
 1031.40        2974.00           2484        2044.00      8907.67
 1031.43        2974.25           2488        1951.00      8502.02
 1031.46        2974.50           2491        1926.00      8392.98
 1031.49        2974.75           2495        1900.00      8279.58
 1031.52        2975.00           2498        1864.00      8122.56
 1031.55        2975.25           2502        1836.00      8000.43
 1031.59        2975.50           2505        1795.00      7821.61
 1031.62        2975.75           2509        1801.00      7847.78
 1031.65        2976.00           2512        1759.00      7664.60
 1031.68        2976.25           2516        1732.00      7546.84
 1031.71        2976.50           2520        1737.00      7568.64
 1031.74        2976.75           2523        1706.00      7433.44
 1031.77        2977.00           2527        1661.00      7237.18
 1031.80        2977.25           2530        1653.00      7202.29
 1031.83        2977.50           2534        1655.00      7211.01
 1031.86        2977.75           2537        1618.00      7049.64
 1031.89        2978.00           2541        1648.00      7180.48
 1031.92        2978.25           2544        1619.00      7054.00
 1031.95        2978.50           2548        1636.00      7128.14
 1031.98        2978.75           2552        1606.00      6997.31
 1032.01        2979.00           2555        1594.00      6944.97
 1032.04        2979.25           2559        1577.00      6870.83
 1032.07        2979.50           2562        1572.00      6849.02
 1032.11        2979.75           2566        1516.00      6604.80
 1032.14        2980.00           2569        1526.00      6648.41
 1032.17        2980.25           2573        1520.00      6622.24
 1032.20        2980.50           2577        1500.00      6535.02
 1032.23        2980.75           2580        1524.00      6639.69
 1032.26        2981.00           2584        1542.00      6718.19
 1032.29        2981.25           2587        1472.00      6412.91
 1032.32        2981.50           2591        1469.00      6399.82
 1032.35        2981.75           2594        1516.00      6604.80
 1032.38        2982.00           2598        1450.00      6316.96
 1032.41        2982.25           2601        1460.00      6360.57
 1032.44        2982.50           2605        1465.00      6382.38
 1032.47        2982.75           2609        1468.00      6395.46
 1032.50        2983.00           2612        1432.00      6238.46
 1032.53        2983.25           2616        1466.00      6386.74
 1032.56        2983.50           2619        1451.00      6321.32
 1032.59        2983.75           2623        1416.00      6168.69
 1032.62        2984.00           2626        1406.00      6125.08
HS scan finished at 17:12:51
end
