************************************************************
  HS Scan of (1) Internal mercury lamp
************************************************************
Integration time is 0.2294 seconds per sample
dh281118Reading 51.44 .94 2.96pr1000
************************************************************
Dead Time -------------------------  3.4E-08 
Number of Cycles Used -------------  4 
Starting Wavelength (Angstroms) ---  2950 
Final Wavelength (Angstoms) -------  2984 
Wavelength Increment (Angstroms) --  .25 
Filter Wheel #1 Position ---------- (1) Ground quartz diffuser (ND=2.32)
Filter Wheel #2 Position ---------- (1) Neutral Density 0.494



************************************************************
HS scan start time = 04:52:46
Dark Count =  .6 


Time (GMT)  Wavelength (Ang)  Step Number  Raw Counts  Counts/Second

  293.66        2950.00           2144        1462.00      6371.91
  293.86        2950.25           2147        1475.00      6428.61
  293.89        2950.50           2151        1496.00      6520.19
  293.92        2950.75           2155        1514.00      6598.69
  293.95        2951.00           2158        1487.00      6480.94
  293.98        2951.25           2162        1502.00      6546.36
  294.01        2951.50           2165        1468.00      6398.08
  294.04        2951.75           2169        1528.00      6659.75
  294.07        2952.00           2172        1524.00      6642.30
  294.10        2952.25           2176        1506.00      6563.80
  294.13        2952.50           2179        1488.00      6485.30
  294.16        2952.75           2183        1502.00      6546.36
  294.19        2953.00           2186        1521.00      6629.22
  294.22        2953.25           2190        1522.00      6633.58
  294.26        2953.50           2193        1520.00      6624.86
  294.29        2953.75           2197        1591.00      6934.50
  294.32        2954.00           2200        1583.00      6899.61
  294.35        2954.25           2204        1572.00      6851.64
  294.38        2954.50           2208        1581.00      6890.89
  294.41        2954.75           2211        1581.00      6890.89
  294.44        2955.00           2215        1593.00      6943.23
  294.47        2955.25           2218        1594.00      6947.59
  294.50        2955.50           2222        1590.00      6930.14
  294.53        2955.75           2225        1618.00      7052.26
  294.56        2956.00           2229        1618.00      7052.26
  294.59        2956.25           2232        1599.00      6969.39
  294.62        2956.50           2236        1622.00      7069.70
  294.65        2956.75           2239        1655.00      7213.63
  294.68        2957.00           2243        1669.00      7274.69
  294.71        2957.25           2246        1656.00      7217.99
  294.74        2957.50           2250        1654.00      7209.26
  294.78        2957.75           2254        1671.00      7283.41
  294.81        2958.00           2257        1719.00      7492.75
  294.84        2958.25           2261        1703.00      7422.97
  294.87        2958.50           2264        1759.00      7667.21
  294.90        2958.75           2268        1769.00      7710.83
  294.93        2959.00           2271        1776.00      7741.36
  294.96        2959.25           2275        1820.00      7933.26
  294.99        2959.50           2278        1786.00      7784.97
  295.03        2959.75           2282        1830.00      7976.88
  295.07        2960.00           2285        1924.00      8386.87
  295.10        2960.25           2289        1879.00      8190.60
  295.13        2960.50           2293        1951.00      8504.64
  295.16        2960.75           2296        2014.00      8779.43
  295.19        2961.00           2300        2128.00      9276.68
  295.22        2961.25           2303        2832.00     12347.82
  295.25        2961.50           2307        7870.00     34344.35
  295.28        2961.75           2310       17115.00     74795.03
  295.31        2962.00           2314       36315.00    159160.60
  295.34        2962.25           2317       54042.00    237487.10
  295.37        2962.50           2321       79389.00    350215.20
  295.40        2962.75           2324       97642.00    431935.20
  295.43        2963.00           2328      119861.00    532032.70
  295.46        2963.25           2331      137015.00    609785.30
  295.49        2963.50           2335      162498.00    726062.60
  295.52        2963.75           2339      189559.00    850568.20
  295.55        2964.00           2342      208878.00    940112.40
  295.59        2964.25           2346      234474.00   1059611.00
  295.62        2964.50           2349      252553.00   1144615.00
  295.65        2964.75           2353      274741.00   1249629.00
  295.68        2965.00           2356      291433.00   1329139.00
  295.71        2965.25           2360      313391.00   1434408.00
  295.74        2965.50           2363      331549.00   1522047.00
  295.77        2965.75           2367      353805.00   1630202.00
  295.80        2966.00           2370      370927.00   1713969.00
  295.83        2966.25           2374      389768.00   1806717.00
  295.86        2966.50           2378      403720.00   1875790.00
  295.89        2966.75           2381      408346.00   1898766.00
  295.92        2967.00           2385      410254.00   1908254.00
  295.95        2967.25           2388      410137.00   1907672.00
  295.98        2967.50           2392      410778.00   1910860.00
  296.01        2967.75           2395      409521.00   1904608.00
  296.04        2968.00           2399      402839.00   1871418.00
  296.08        2968.25           2402      391737.00   1816445.00
  296.11        2968.50           2406      374878.00   1733368.00
  296.14        2968.75           2409      359615.00   1658571.00
  296.17        2969.00           2413      337196.00   1549412.00
  296.20        2969.25           2417      313969.00   1437190.00
  296.23        2969.50           2420      296582.00   1353755.00
  296.26        2969.75           2424      272566.00   1239301.00
  296.29        2970.00           2427      255474.00   1158396.00
  296.32        2970.25           2431      231190.00   1044224.00
  296.35        2970.50           2434      213968.00    963797.20
  296.38        2970.75           2438      190385.00    854385.40
  296.41        2971.00           2441      171356.00    766700.10
  296.44        2971.25           2445      146181.00    651502.10
  296.47        2971.50           2449      120746.00    536034.00
  296.50        2971.75           2452      102196.00    452395.20
  296.53        2972.00           2456       78164.00    344747.10
  296.56        2972.25           2459       59502.00    261696.50
  296.60        2972.50           2463       35873.00    157213.00
  296.63        2972.75           2466       19072.00     83372.00
  296.66        2973.00           2470        5988.00     26123.45
  296.69        2973.25           2473        2904.00     12661.94
  296.72        2973.50           2477        2185.00      9525.32
  296.75        2973.75           2481        2059.00      8975.71
  296.78        2974.00           2484        2018.00      8796.88
  296.81        2974.25           2488        2028.00      8840.50
  296.84        2974.50           2491        1955.00      8522.09
  296.87        2974.75           2495        1905.00      8304.00
  296.90        2975.00           2498        1892.00      8247.30
  296.93        2975.25           2502        1837.00      8007.41
  296.96        2975.50           2505        1821.00      7937.63
  296.99        2975.75           2509        1803.00      7859.12
  297.02        2976.00           2512        1824.00      7950.71
  297.05        2976.25           2516        1807.00      7876.57
  297.08        2976.50           2520        1764.00      7689.02
  297.11        2976.75           2523        1755.00      7649.77
  297.15        2977.00           2527        1722.00      7505.84
  297.18        2977.25           2530        1708.00      7444.78
  297.21        2977.50           2534        1710.00      7453.50
  297.24        2977.75           2537        1676.00      7305.22
  297.27        2978.00           2541        1688.00      7357.55
  297.30        2978.25           2544        1625.00      7082.79
  297.33        2978.50           2548        1637.00      7135.12
  297.36        2978.75           2552        1615.00      7039.17
  297.39        2979.00           2555        1590.00      6930.14
  297.42        2979.25           2559        1621.00      7065.34
  297.45        2979.50           2562        1607.00      7004.28
  297.48        2979.75           2566        1572.00      6851.64
  297.51        2980.00           2569        1622.00      7069.70
  297.54        2980.25           2573        1552.00      6764.42
  297.57        2980.50           2577        1573.00      6856.00
  297.60        2980.75           2580        1560.00      6799.30
  297.63        2981.00           2584        1540.00      6712.08
  297.67        2981.25           2587        1516.00      6607.41
  297.70        2981.50           2591        1538.00      6703.36
  297.73        2981.75           2594        1492.00      6502.75
  297.76        2982.00           2598        1506.00      6563.80
  297.79        2982.25           2601        1529.00      6664.11
  297.82        2982.50           2605        1454.00      6337.02
  297.85        2982.75           2609        1457.00      6350.11
  297.88        2983.00           2612        1469.00      6402.44
  297.91        2983.25           2616        1466.00      6389.36
  297.94        2983.50           2619        1477.00      6437.33
  297.97        2983.75           2623        1464.00      6380.64
  298.00        2984.00           2626        1470.00      6406.80
HS scan finished at 04:58:14
end
************************************************************
  HS Scan of (1) Internal mercury lamp
************************************************************
Integration time is 0.2294 seconds per sample
dh281118Reading 51.44 .94 3.23pr1000
************************************************************
Dead Time -------------------------  3.4E-08 
Number of Cycles Used -------------  4 
Starting Wavelength (Angstroms) ---  2950 
Final Wavelength (Angstoms) -------  2984 
Wavelength Increment (Angstroms) --  .25 
Filter Wheel #1 Position ---------- (1) Ground quartz diffuser (ND=2.32)
Filter Wheel #2 Position ---------- (1) Neutral Density 0.494



************************************************************
HS scan start time = 17:07:24
Dark Count =  1.4 


Time (GMT)  Wavelength (Ang)  Step Number  Raw Counts  Counts/Second

 1028.30        2950.00           2144        1218.00      5304.36
 1028.50        2950.25           2147        1235.00      5378.49
 1028.53        2950.50           2151        1214.00      5286.91
 1028.56        2950.75           2155        1236.00      5382.85
 1028.59        2951.00           2158        1257.00      5474.43
 1028.62        2951.25           2162        1242.00      5409.02
 1028.65        2951.50           2165        1276.00      5557.28
 1028.68        2951.75           2169        1256.00      5470.07
 1028.71        2952.00           2172        1251.00      5448.26
 1028.74        2952.25           2176        1256.00      5470.07
 1028.77        2952.50           2179        1260.00      5487.51
 1028.80        2952.75           2183        1281.00      5579.09
 1028.83        2953.00           2186        1284.00      5592.17
 1028.86        2953.25           2190        1318.00      5740.44
 1028.89        2953.50           2193        1310.00      5705.55
 1028.93        2953.75           2197        1322.00      5757.88
 1028.96        2954.00           2200        1274.00      5548.56
 1028.99        2954.25           2204        1302.00      5670.67
 1029.02        2954.50           2208        1297.00      5648.86
 1029.05        2954.75           2211        1308.00      5696.83
 1029.08        2955.00           2215        1339.00      5832.02
 1029.11        2955.25           2218        1340.00      5836.38
 1029.14        2955.50           2222        1314.00      5723.00
 1029.17        2955.75           2225        1284.00      5592.17
 1029.20        2956.00           2229        1411.00      6146.01
 1029.23        2956.25           2232        1339.00      5832.02
 1029.26        2956.50           2236        1370.00      5967.21
 1029.29        2956.75           2239        1364.00      5941.04
 1029.32        2957.00           2243        1390.00      6054.43
 1029.35        2957.25           2246        1451.00      6320.45
 1029.38        2957.50           2250        1413.00      6154.73
 1029.41        2957.75           2254        1392.00      6063.15
 1029.45        2958.00           2257        1419.00      6180.90
 1029.48        2958.25           2261        1450.00      6316.09
 1029.51        2958.50           2264        1449.00      6311.73
 1029.54        2958.75           2268        1471.00      6407.67
 1029.57        2959.00           2271        1486.00      6473.09
 1029.60        2959.25           2275        1513.00      6590.84
 1029.63        2959.50           2278        1485.00      6468.73
 1029.66        2959.75           2282        1564.00      6813.26
 1029.69        2960.00           2285        1572.00      6848.15
 1029.72        2960.25           2289        1573.00      6852.51
 1029.75        2960.50           2293        1611.00      7018.24
 1029.78        2960.75           2296        1652.00      7197.05
 1029.81        2961.00           2300        1677.00      7306.09
 1029.84        2961.25           2303        1879.00      8187.11
 1029.87        2961.50           2307        3729.00     16258.33
 1029.90        2961.75           2310        9547.00     41670.16
 1029.93        2962.00           2314       23402.00    102363.50
 1029.97        2962.25           2317       35797.00    156874.60
 1030.00        2962.50           2321       54541.00    239694.40
 1030.03        2962.75           2324       69626.00    306688.80
 1030.06        2963.00           2328       90266.00    398853.60
 1030.09        2963.25           2331      106628.00    472331.20
 1030.12        2963.50           2335      126696.00    562959.80
 1030.15        2963.75           2339      144846.00    645415.00
 1030.18        2964.00           2342      158537.00    707924.00
 1030.21        2964.25           2346      178919.00    801483.10
 1030.24        2964.50           2349      195137.00    876361.90
 1030.27        2964.75           2353      215723.00    971968.80
 1030.30        2965.00           2356      229434.00   1035999.00
 1030.33        2965.25           2360      248069.00   1123482.00
 1030.36        2965.50           2363      261370.00   1186250.00
 1030.39        2965.75           2367      278247.00   1266289.00
 1030.42        2966.00           2370      291271.00   1328362.00
 1030.45        2966.25           2374      311306.00   1424376.00
 1030.49        2966.50           2378      325583.00   1493189.00
 1030.52        2966.75           2381      330387.00   1516419.00
 1030.55        2967.00           2385      332553.00   1526905.00
 1030.58        2967.25           2388      332930.00   1528730.00
 1030.61        2967.50           2392      332747.00   1527844.00
 1030.64        2967.75           2395      333313.00   1530586.00
 1030.67        2968.00           2399      330819.00   1518510.00
 1030.70        2968.25           2402      326175.00   1496050.00
 1030.73        2968.50           2406      310974.00   1422779.00
 1030.76        2968.75           2409      297520.00   1358240.00
 1030.79        2969.00           2413      280184.00   1275504.00
 1030.82        2969.25           2417      264412.00   1200644.00
 1030.85        2969.50           2420      250360.00   1134273.00
 1030.88        2969.75           2424      230342.00   1040249.00
 1030.91        2970.00           2427      214970.00    968460.50
 1030.94        2970.25           2431      195287.00    877056.20
 1030.97        2970.50           2434      180698.00    809677.90
 1031.00        2970.75           2438      162278.00    725051.10
 1031.04        2971.00           2441      147762.00    658706.10
 1031.07        2971.25           2445      126926.00    564001.80
 1031.10        2971.50           2449      104707.00    463685.30
 1031.13        2971.75           2452       89190.00    394034.50
 1031.16        2972.00           2456       67996.00    299435.00
 1031.19        2972.25           2459       52829.00    232110.50
 1031.22        2972.50           2463       34365.00    150566.60
 1031.25        2972.75           2466       21277.00     93038.40
 1031.28        2973.00           2470        8017.00     34983.18
 1031.31        2973.25           2473        3601.00     15699.75
 1031.34        2973.50           2477        1923.00      8379.02
 1031.37        2973.75           2481        1730.00      7537.24
 1031.40        2974.00           2484        1675.00      7297.36
 1031.43        2974.25           2488        1630.00      7101.10
 1031.46        2974.50           2491        1587.00      6913.57
 1031.49        2974.75           2495        1582.00      6891.76
 1031.53        2975.00           2498        1518.00      6612.65
 1031.56        2975.25           2502        1518.00      6612.65
 1031.59        2975.50           2505        1488.00      6481.81
 1031.62        2975.75           2509        1495.00      6512.34
 1031.65        2976.00           2512        1450.00      6316.09
 1031.68        2976.25           2516        1453.00      6329.17
 1031.71        2976.50           2520        1404.00      6115.48
 1031.74        2976.75           2523        1374.00      5984.65
 1031.77        2977.00           2527        1404.00      6115.48
 1031.80        2977.25           2530        1367.00      5954.13
 1031.83        2977.50           2534        1366.00      5949.76
 1031.86        2977.75           2537        1381.00      6015.18
 1031.89        2978.00           2541        1351.00      5884.35
 1031.92        2978.25           2544        1336.00      5818.94
 1031.95        2978.50           2548        1359.00      5919.24
 1031.98        2978.75           2552        1319.00      5744.80
 1032.01        2979.00           2555        1268.00      5522.40
 1032.04        2979.25           2559        1286.00      5600.89
 1032.08        2979.50           2562        1310.00      5705.55
 1032.11        2979.75           2566        1252.00      5452.62
 1032.14        2980.00           2569        1265.00      5509.31
 1032.17        2980.25           2573        1279.00      5570.37
 1032.20        2980.50           2577        1269.00      5526.76
 1032.23        2980.75           2580        1215.00      5291.27
 1032.26        2981.00           2584        1244.00      5417.74
 1032.29        2981.25           2587        1238.00      5391.57
 1032.32        2981.50           2591        1230.00      5356.69
 1032.35        2981.75           2594        1254.00      5461.35
 1032.38        2982.00           2598        1221.00      5317.44
 1032.41        2982.25           2601        1190.00      5182.26
 1032.44        2982.50           2605        1217.00      5300.00
 1032.47        2982.75           2609        1212.00      5278.19
 1032.50        2983.00           2612        1193.00      5195.34
 1032.53        2983.25           2616        1202.00      5234.58
 1032.57        2983.50           2619        1221.00      5317.44
 1032.60        2983.75           2623        1146.00      4990.38
 1032.63        2984.00           2626        1191.00      5186.62
HS scan finished at 17:12:51
end
