************************************************************
  HS Scan of (1) Internal mercury lamp
************************************************************
Integration time is 0.2294 seconds per sample
dh031218Reading 51.44 .94 2.98pr1000
************************************************************
Dead Time -------------------------  3.4E-08 
Number of Cycles Used -------------  4 
Starting Wavelength (Angstroms) ---  2950 
Final Wavelength (Angstoms) -------  2984 
Wavelength Increment (Angstroms) --  .25 
Filter Wheel #1 Position ---------- (1) Ground quartz diffuser (ND=2.32)
Filter Wheel #2 Position ---------- (1) Neutral Density 0.494



************************************************************
HS scan start time = 04:58:23
Dark Count =  .7 


Time (GMT)  Wavelength (Ang)  Step Number  Raw Counts  Counts/Second

  299.28        2950.00           2144        1601.00      6977.68
  299.48        2950.25           2147        1601.00      6977.68
  299.51        2950.50           2151        1632.00      7112.88
  299.54        2950.75           2155        1584.00      6903.54
  299.57        2951.00           2158        1582.00      6894.82
  299.60        2951.25           2162        1575.00      6864.29
  299.63        2951.50           2165        1594.00      6947.15
  299.66        2951.75           2169        1587.00      6916.62
  299.69        2952.00           2172        1568.00      6833.76
  299.72        2952.25           2176        1595.00      6951.51
  299.75        2952.50           2179        1563.00      6811.95
  299.78        2952.75           2183        1591.00      6934.07
  299.81        2953.00           2186        1612.00      7025.65
  299.85        2953.25           2190        1572.00      6851.20
  299.88        2953.50           2193        1621.00      7064.91
  299.91        2953.75           2197        1610.00      7016.93
  299.94        2954.00           2200        1620.00      7060.54
  299.97        2954.25           2204        1644.00      7165.22
  300.00        2954.50           2208        1653.00      7204.47
  300.03        2954.75           2211        1621.00      7064.91
  300.06        2955.00           2215        1642.00      7156.49
  300.09        2955.25           2218        1638.00      7139.05
  300.12        2955.50           2222        1745.00      7605.72
  300.15        2955.75           2225        1658.00      7226.27
  300.18        2956.00           2229        1657.00      7221.91
  300.21        2956.25           2232        1707.00      7439.98
  300.24        2956.50           2236        1703.00      7422.54
  300.27        2956.75           2239        1723.00      7509.76
  300.30        2957.00           2243        1743.00      7596.99
  300.33        2957.25           2246        1772.00      7723.48
  300.37        2957.50           2250        1753.00      7640.61
  300.40        2957.75           2254        1768.00      7706.03
  300.43        2958.00           2257        1817.00      7919.74
  300.46        2958.25           2261        1811.00      7893.58
  300.49        2958.50           2264        1841.00      8024.42
  300.52        2958.75           2268        1851.00      8068.04
  300.55        2959.00           2271        1824.00      7950.28
  300.58        2959.25           2275        1912.00      8334.10
  300.61        2959.50           2278        1846.00      8046.23
  300.64        2959.75           2282        1906.00      8307.93
  300.67        2960.00           2285        1959.00      8539.10
  300.70        2960.25           2289        1946.00      8482.39
  300.73        2960.50           2293        2012.00      8770.27
  300.76        2960.75           2296        2050.00      8936.02
  300.79        2961.00           2300        2169.00      9455.09
  300.82        2961.25           2303        2744.00     11963.45
  300.85        2961.50           2307        7860.00     34300.23
  300.89        2961.75           2310       17962.00     78506.15
  300.92        2962.00           2314       36396.00    159517.10
  300.95        2962.25           2317       51806.00    227583.80
  300.98        2962.50           2321       72525.00    319602.00
  301.01        2962.75           2324       87500.00    386471.80
  301.04        2963.00           2328      109232.00    484062.40
  301.07        2963.25           2331      127638.00    567231.00
  301.10        2963.50           2335      153404.00    684460.00
  301.13        2963.75           2339      176107.00    788542.50
  301.16        2964.00           2342      192137.00    862484.90
  301.19        2964.25           2346      214413.00    965869.20
  301.22        2964.50           2349      231129.00   1043938.00
  301.25        2964.75           2353      255554.00   1158774.00
  301.28        2965.00           2356      272418.00   1238598.00
  301.31        2965.25           2360      291617.00   1330018.00
  301.34        2965.50           2363      305992.00   1398850.00
  301.37        2965.75           2367      327040.00   1500234.00
  301.40        2966.00           2370      343702.00   1581004.00
  301.44        2966.25           2374      362643.00   1673379.00
  301.47        2966.50           2378      378359.00   1750481.00
  301.50        2966.75           2381      383737.00   1776962.00
  301.53        2967.00           2385      386023.00   1788233.00
  301.56        2967.25           2388      385853.00   1787394.00
  301.59        2967.50           2392      385647.00   1786378.00
  301.62        2967.75           2395      384972.00   1783050.00
  301.65        2968.00           2399      382087.00   1768832.00
  301.68        2968.25           2402      373454.00   1726373.00
  301.71        2968.50           2406      354427.00   1633236.00
  301.74        2968.75           2409      338465.00   1555568.00
  301.77        2969.00           2413      317203.00   1452762.00
  301.80        2969.25           2417      297625.00   1358746.00
  301.83        2969.50           2420      282300.00   1285581.00
  301.86        2969.75           2424      258521.00   1172786.00
  301.89        2970.00           2427      238096.00   1076600.00
  301.92        2970.25           2431      213010.00    959335.90
  301.96        2970.50           2434      195667.00    878818.60
  301.99        2970.75           2438      171790.00    768693.50
  302.02        2971.00           2441      154669.00    690239.80
  302.05        2971.25           2445      130736.00    581276.30
  302.08        2971.50           2449      107969.00    478372.90
  302.11        2971.75           2452       91627.00    404954.60
  302.14        2972.00           2456       69032.00    304048.00
  302.17        2972.25           2459       51165.00    224746.20
  302.20        2972.50           2463       29866.00    130768.90
  302.23        2972.75           2466       16405.00     71684.10
  302.26        2973.00           2470        5910.00     25782.40
  302.29        2973.25           2473        3065.00     13363.96
  302.32        2973.50           2477        2153.00      9385.30
  302.35        2973.75           2481        2068.00      9014.53
  302.38        2974.00           2484        2034.00      8866.23
  302.41        2974.25           2488        2002.00      8726.65
  302.44        2974.50           2491        1967.00      8573.99
  302.48        2974.75           2495        1921.00      8373.35
  302.51        2975.00           2498        1885.00      8216.33
  302.54        2975.25           2502        1884.00      8211.97
  302.57        2975.50           2505        1871.00      8155.27
  302.60        2975.75           2509        1820.00      7932.83
  302.63        2976.00           2512        1815.00      7911.02
  302.66        2976.25           2516        1778.00      7749.65
  302.69        2976.50           2520        1795.00      7823.79
  302.72        2976.75           2523        1771.00      7719.11
  302.75        2977.00           2527        1713.00      7466.15
  302.78        2977.25           2530        1705.00      7431.26
  302.81        2977.50           2534        1745.00      7605.72
  302.84        2977.75           2537        1680.00      7322.22
  302.87        2978.00           2541        1688.00      7357.12
  302.90        2978.25           2544        1697.00      7396.37
  302.93        2978.50           2548        1650.00      7191.38
  302.96        2978.75           2552        1661.00      7239.36
  303.00        2979.00           2555        1587.00      6916.62
  303.03        2979.25           2559        1605.00      6995.12
  303.06        2979.50           2562        1652.00      7200.11
  303.09        2979.75           2566        1598.00      6964.60
  303.12        2980.00           2569        1571.00      6846.84
  303.15        2980.25           2573        1588.00      6920.98
  303.18        2980.50           2577        1593.00      6942.79
  303.21        2980.75           2580        1581.00      6890.45
  303.24        2981.00           2584        1554.00      6772.70
  303.27        2981.25           2587        1563.00      6811.95
  303.30        2981.50           2591        1534.00      6685.48
  303.33        2981.75           2594        1512.00      6589.53
  303.36        2982.00           2598        1519.00      6620.06
  303.39        2982.25           2601        1485.00      6471.78
  303.42        2982.50           2605        1499.00      6532.84
  303.45        2982.75           2609        1525.00      6646.23
  303.48        2983.00           2612        1528.00      6659.31
  303.52        2983.25           2616        1472.00      6415.09
  303.55        2983.50           2619        1510.00      6580.81
  303.58        2983.75           2623        1507.00      6567.73
  303.61        2984.00           2626        1494.00      6511.03
HS scan finished at 05:03:50
end
************************************************************
  HS Scan of (1) Internal mercury lamp
************************************************************
Integration time is 0.2294 seconds per sample
dh031218Reading 51.44 .94 3.05pr1000
************************************************************
Dead Time -------------------------  3.4E-08 
Number of Cycles Used -------------  4 
Starting Wavelength (Angstroms) ---  2950 
Final Wavelength (Angstoms) -------  2984 
Wavelength Increment (Angstroms) --  .25 
Filter Wheel #1 Position ---------- (1) Ground quartz diffuser (ND=2.32)
Filter Wheel #2 Position ---------- (1) Neutral Density 0.494



************************************************************
HS scan start time = 17:07:25
Dark Count =  .8 


Time (GMT)  Wavelength (Ang)  Step Number  Raw Counts  Counts/Second

 1028.31        2950.00           2144        1146.00      4993.00
 1028.51        2950.25           2147        1138.00      4958.12
 1028.54        2950.50           2151        1141.00      4971.20
 1028.57        2950.75           2155        1103.00      4805.49
 1028.60        2951.00           2158        1093.00      4761.89
 1028.63        2951.25           2162        1135.00      4945.03
 1028.66        2951.50           2165        1132.00      4931.95
 1028.69        2951.75           2169        1107.00      4822.94
 1028.72        2952.00           2172        1171.00      5102.02
 1028.75        2952.25           2176        1147.00      4997.36
 1028.78        2952.50           2179        1160.00      5054.05
 1028.81        2952.75           2183        1159.00      5049.69
 1028.84        2953.00           2186        1163.00      5067.13
 1028.87        2953.25           2190        1148.00      5001.72
 1028.91        2953.50           2193        1179.00      5136.90
 1028.94        2953.75           2197        1196.00      5211.04
 1028.97        2954.00           2200        1188.00      5176.15
 1029.00        2954.25           2204        1153.00      5023.53
 1029.03        2954.50           2208        1210.00      5272.09
 1029.06        2954.75           2211        1170.00      5097.66
 1029.09        2955.00           2215        1147.00      4997.36
 1029.12        2955.25           2218        1195.00      5206.68
 1029.15        2955.50           2222        1218.00      5306.97
 1029.18        2955.75           2225        1182.00      5149.99
 1029.21        2956.00           2229        1233.00      5372.39
 1029.24        2956.25           2232        1208.00      5263.37
 1029.27        2956.50           2236        1200.00      5228.48
 1029.30        2956.75           2239        1244.00      5420.35
 1029.33        2957.00           2243        1234.00      5376.75
 1029.36        2957.25           2246        1238.00      5394.19
 1029.39        2957.50           2250        1279.00      5572.98
 1029.42        2957.75           2254        1224.00      5333.14
 1029.46        2958.00           2257        1298.00      5655.84
 1029.49        2958.25           2261        1327.00      5782.30
 1029.52        2958.50           2264        1323.00      5764.86
 1029.55        2958.75           2268        1305.00      5686.36
 1029.58        2959.00           2271        1337.00      5825.91
 1029.61        2959.25           2275        1301.00      5668.92
 1029.64        2959.50           2278        1334.00      5812.83
 1029.67        2959.75           2282        1367.00      5956.74
 1029.70        2960.00           2285        1389.00      6052.68
 1029.73        2960.25           2289        1407.00      6131.18
 1029.76        2960.50           2293        1389.00      6052.68
 1029.79        2960.75           2296        1467.00      6392.85
 1029.82        2961.00           2300        1522.00      6632.71
 1029.85        2961.25           2303        1607.00      7003.41
 1029.88        2961.50           2307        3018.00     13158.46
 1029.91        2961.75           2310        7427.00     32407.97
 1029.94        2962.00           2314       18552.00     81091.62
 1029.98        2962.25           2317       29575.00    129488.60
 1030.01        2962.50           2321       44853.00    196832.50
 1030.04        2962.75           2324       56441.00    248118.30
 1030.07        2963.00           2328       72558.00    319748.50
 1030.10        2963.25           2331       85579.00    377876.20
 1030.13        2963.50           2335      103670.00    459022.90
 1030.16        2963.75           2339      121482.00    539361.50
 1030.19        2964.00           2342      132667.00    590037.20
 1030.22        2964.25           2346      147282.00    656520.20
 1030.25        2964.50           2349      160375.00    716339.00
 1030.28        2964.75           2353      178353.00    798879.60
 1030.31        2965.00           2356      190835.00    856464.50
 1030.34        2965.25           2360      206857.00    930718.00
 1030.37        2965.50           2363      218420.00    984544.10
 1030.40        2965.75           2367      232602.00   1050837.00
 1030.43        2966.00           2370      243771.00   1103260.00
 1030.46        2966.25           2374      259993.00   1179742.00
 1030.50        2966.50           2378      274314.00   1247600.00
 1030.53        2966.75           2381      281086.00   1279800.00
 1030.56        2967.00           2385      284441.00   1295779.00
 1030.59        2967.25           2388      284218.00   1294717.00
 1030.62        2967.50           2392      284784.00   1297414.00
 1030.65        2967.75           2395      284763.00   1297314.00
 1030.68        2968.00           2399      283320.00   1290438.00
 1030.71        2968.25           2402      280815.00   1278510.00
 1030.74        2968.50           2406      269757.00   1225973.00
 1030.77        2968.75           2409      258616.00   1173234.00
 1030.80        2969.00           2413      243106.00   1100134.00
 1030.83        2969.25           2417      227107.00   1025115.00
 1030.86        2969.50           2420      215879.00    972698.50
 1030.89        2969.75           2424      199561.00    896857.70
 1030.93        2970.00           2427      186191.00    835013.00
 1030.96        2970.25           2431      167540.00    749178.70
 1030.99        2970.50           2434      153517.00    684975.60
 1031.02        2970.75           2438      135904.00    604736.10
 1031.05        2971.00           2441      122894.00    545749.10
 1031.08        2971.25           2445      105586.00    467643.50
 1031.11        2971.50           2449       89255.00    394328.30
 1031.14        2971.75           2452       76870.00    338972.30
 1031.17        2972.00           2456       58131.00    255612.90
 1031.21        2972.25           2459       45082.00    197844.30
 1031.24        2972.50           2463       28918.00    126599.60
 1031.27        2972.75           2466       17989.00     78624.03
 1031.30        2973.00           2470        6666.00     29083.67
 1031.33        2973.25           2473        3081.00     13433.34
 1031.36        2973.50           2477        1759.00      7666.34
 1031.39        2973.75           2481        1491.00      6497.51
 1031.42        2974.00           2484        1459.00      6357.96
 1031.45        2974.25           2488        1432.00      6240.21
 1031.48        2974.50           2491        1398.00      6091.93
 1031.51        2974.75           2495        1391.00      6061.41
 1031.54        2975.00           2498        1408.00      6135.54
 1031.57        2975.25           2502        1357.00      5913.13
 1031.60        2975.50           2505        1339.00      5834.64
 1031.63        2975.75           2509        1305.00      5686.36
 1031.66        2976.00           2512        1298.00      5655.84
 1031.69        2976.25           2516        1308.00      5699.45
 1031.73        2976.50           2520        1255.00      5468.32
 1031.76        2976.75           2523        1280.00      5577.34
 1031.79        2977.00           2527        1276.00      5559.90
 1031.82        2977.25           2530        1283.00      5590.43
 1031.85        2977.50           2534        1214.00      5289.53
 1031.88        2977.75           2537        1199.00      5224.12
 1031.91        2978.00           2541        1195.00      5206.68
 1031.94        2978.25           2544        1213.00      5285.17
 1031.97        2978.50           2548        1188.00      5176.15
 1032.00        2978.75           2552        1205.00      5250.28
 1032.03        2979.00           2555        1169.00      5093.30
 1032.06        2979.25           2559        1175.00      5119.46
 1032.09        2979.50           2562        1139.00      4962.48
 1032.12        2979.75           2566        1143.00      4979.92
 1032.15        2980.00           2569        1144.00      4984.28
 1032.18        2980.25           2573        1137.00      4953.76
 1032.21        2980.50           2577        1123.00      4892.71
 1032.25        2980.75           2580        1110.00      4836.02
 1032.28        2981.00           2584        1108.00      4827.30
 1032.31        2981.25           2587        1109.00      4831.66
 1032.34        2981.50           2591        1131.00      4927.59
 1032.37        2981.75           2594        1121.00      4883.98
 1032.40        2982.00           2598        1102.00      4801.13
 1032.43        2982.25           2601        1074.00      4679.04
 1032.46        2982.50           2605        1125.00      4901.43
 1032.49        2982.75           2609        1059.00      4613.63
 1032.52        2983.00           2612        1078.00      4696.48
 1032.55        2983.25           2616        1075.00      4683.40
 1032.58        2983.50           2619        1074.00      4679.04
 1032.61        2983.75           2623        1088.00      4740.08
 1032.64        2984.00           2626        1062.00      4626.71
HS scan finished at 17:12:52
end
