************************************************************
  HS Scan of (1) Internal mercury lamp
************************************************************
Integration time is 0.2294 seconds per sample
dh301118Reading 51.44 .94 2.72pr1000
************************************************************
Dead Time -------------------------  3.4E-08 
Number of Cycles Used -------------  4 
Starting Wavelength (Angstroms) ---  2950 
Final Wavelength (Angstoms) -------  2984 
Wavelength Increment (Angstroms) --  .25 
Filter Wheel #1 Position ---------- (1) Ground quartz diffuser (ND=2.32)
Filter Wheel #2 Position ---------- (1) Neutral Density 0.494



************************************************************
HS scan start time = 04:55:04
Dark Count =  .6 


Time (GMT)  Wavelength (Ang)  Step Number  Raw Counts  Counts/Second

  295.97        2950.00           2144        1649.00      7187.46
  296.17        2950.25           2147        1609.00      7013.01
  296.20        2950.50           2151        1627.00      7091.51
  296.23        2950.75           2155        1609.00      7013.01
  296.26        2951.00           2158        1627.00      7091.51
  296.29        2951.25           2162        1602.00      6982.48
  296.32        2951.50           2165        1626.00      7087.15
  296.35        2951.75           2169        1573.00      6856.00
  296.38        2952.00           2172        1644.00      7165.65
  296.41        2952.25           2176        1630.00      7104.59
  296.44        2952.50           2179        1665.00      7257.24
  296.47        2952.75           2183        1608.00      7008.65
  296.50        2953.00           2186        1653.00      7204.90
  296.53        2953.25           2190        1661.00      7239.79
  296.56        2953.50           2193        1687.00      7353.19
  296.59        2953.75           2197        1667.00      7265.96
  296.62        2954.00           2200        1669.00      7274.69
  296.65        2954.25           2204        1689.00      7361.91
  296.69        2954.50           2208        1667.00      7265.96
  296.72        2954.75           2211        1646.00      7174.37
  296.75        2955.00           2215        1655.00      7213.63
  296.78        2955.25           2218        1714.00      7470.95
  296.81        2955.50           2222        1731.00      7545.09
  296.84        2955.75           2225        1720.00      7497.12
  296.87        2956.00           2229        1730.00      7540.73
  296.90        2956.25           2232        1758.00      7662.85
  296.93        2956.50           2236        1732.00      7549.45
  296.96        2956.75           2239        1755.00      7649.77
  296.99        2957.00           2243        1773.00      7728.27
  297.02        2957.25           2246        1795.00      7824.23
  297.05        2957.50           2250        1754.00      7645.41
  297.08        2957.75           2254        1799.00      7841.67
  297.11        2958.00           2257        1847.00      8051.03
  297.14        2958.25           2261        1850.00      8064.11
  297.17        2958.50           2264        1851.00      8068.47
  297.22        2958.75           2268        1863.00      8120.81
  297.25        2959.00           2271        1869.00      8146.98
  297.28        2959.25           2275        1904.00      8299.64
  297.31        2959.50           2278        1867.00      8138.26
  297.34        2959.75           2282        1945.00      8478.47
  297.37        2960.00           2285        1936.00      8439.21
  297.40        2960.25           2289        1997.00      8705.28
  297.43        2960.50           2293        1970.00      8587.51
  297.47        2960.75           2296        2071.00      9028.05
  297.50        2961.00           2300        2132.00      9294.13
  297.53        2961.25           2303        2656.00     11579.97
  297.56        2961.50           2307        6968.00     30403.69
  297.59        2961.75           2310       16003.00     69923.68
  297.62        2962.00           2314       32992.00    144524.50
  297.65        2962.25           2317       47246.00    207409.50
  297.68        2962.50           2321       66475.00    292673.00
  297.71        2962.75           2324       80967.00    357262.00
  297.74        2963.00           2328      103130.00    456595.10
  297.78        2963.25           2331      120147.00    533325.60
  297.81        2963.50           2335      143372.00    638705.00
  297.85        2963.75           2339      164546.00    735448.10
  297.88        2964.00           2342      179220.00    802873.10
  297.91        2964.25           2346      200451.00    900984.90
  297.94        2964.50           2349      216713.00    976586.40
  297.97        2964.75           2353      237965.00   1075986.00
  298.00        2965.00           2356      253493.00   1149049.00
  298.03        2965.25           2360      274470.00   1248342.00
  298.06        2965.50           2363      288008.00   1312789.00
  298.09        2965.75           2367      305754.00   1397708.00
  298.12        2966.00           2370      320864.00   1470412.00
  298.15        2966.25           2374      340227.00   1564121.00
  298.18        2966.50           2378      355783.00   1639854.00
  298.21        2966.75           2381      361338.00   1666995.00
  298.24        2967.00           2385      363827.00   1679173.00
  298.27        2967.25           2388      363841.00   1679242.00
  298.30        2967.50           2392      363415.00   1677157.00
  298.33        2967.75           2395      362986.00   1675057.00
  298.37        2968.00           2399      360699.00   1663871.00
  298.40        2968.25           2402      353546.00   1628939.00
  298.43        2968.50           2406      336446.00   1545775.00
  298.46        2968.75           2409      321397.00   1472983.00
  298.49        2969.00           2413      301749.00   1378499.00
  298.52        2969.25           2417      281552.00   1282020.00
  298.55        2969.50           2420      265780.00   1207125.00
  298.58        2969.75           2424      243948.00   1104094.00
  298.61        2970.00           2427      225364.00   1016966.00
  298.64        2970.25           2431      201962.00    907992.80
  298.67        2970.50           2434      185460.00    831640.20
  298.70        2970.75           2438      161756.00    722663.80
  298.73        2971.00           2441      144712.00    644808.30
  298.76        2971.25           2445      122609.00    544460.50
  298.79        2971.50           2449      102205.00    452435.70
  298.82        2971.75           2452       86762.00    383169.60
  298.85        2972.00           2456       64772.00    285101.60
  298.89        2972.25           2459       48602.00    213406.00
  298.92        2972.50           2463       28422.00    124419.70
  298.95        2972.75           2466       15545.00     67917.77
  298.98        2973.00           2470        5777.00     25202.06
  299.01        2973.25           2473        3042.00     13264.05
  299.04        2973.50           2477        2253.00      9821.94
  299.07        2973.75           2481        2049.00      8932.09
  299.10        2974.00           2484        2046.00      8919.01
  299.13        2974.25           2488        1962.00      8552.62
  299.16        2974.50           2491        1982.00      8639.85
  299.19        2974.75           2495        1954.00      8517.72
  299.22        2975.00           2498        1888.00      8229.85
  299.25        2975.25           2502        1875.00      8173.15
  299.28        2975.50           2505        1864.00      8125.17
  299.31        2975.75           2509        1840.00      8020.50
  299.34        2976.00           2512        1778.00      7750.08
  299.37        2976.25           2516        1837.00      8007.41
  299.41        2976.50           2520        1819.00      7928.90
  299.44        2976.75           2523        1767.00      7702.10
  299.47        2977.00           2527        1758.00      7662.85
  299.50        2977.25           2530        1729.00      7536.37
  299.53        2977.50           2534        1674.00      7296.49
  299.56        2977.75           2537        1707.00      7440.42
  299.59        2978.00           2541        1672.00      7287.77
  299.62        2978.25           2544        1670.00      7279.05
  299.65        2978.50           2548        1657.00      7222.35
  299.68        2978.75           2552        1665.00      7257.24
  299.71        2979.00           2555        1629.00      7100.23
  299.74        2979.25           2559        1631.00      7108.95
  299.77        2979.50           2562        1623.00      7074.06
  299.80        2979.75           2566        1646.00      7174.37
  299.83        2980.00           2569        1577.00      6873.45
  299.86        2980.25           2573        1601.00      6978.12
  299.89        2980.50           2577        1583.00      6899.61
  299.93        2980.75           2580        1615.00      7039.17
  299.96        2981.00           2584        1598.00      6965.03
  299.99        2981.25           2587        1581.00      6890.89
  300.02        2981.50           2591        1597.00      6960.67
  300.05        2981.75           2594        1564.00      6816.75
  300.08        2982.00           2598        1566.00      6825.47
  300.11        2982.25           2601        1540.00      6712.08
  300.14        2982.50           2605        1547.00      6742.61
  300.17        2982.75           2609        1506.00      6563.80
  300.20        2983.00           2612        1511.00      6585.61
  300.23        2983.25           2616        1496.00      6520.19
  300.26        2983.50           2619        1512.00      6589.97
  300.29        2983.75           2623        1525.00      6646.66
  300.32        2984.00           2626        1518.00      6616.14
HS scan finished at 05:00:33
end
************************************************************
  HS Scan of (1) Internal mercury lamp
************************************************************
Integration time is 0.2294 seconds per sample
dh301118Reading 51.44 .94 3.07pr1000
************************************************************
Dead Time -------------------------  3.4E-08 
Number of Cycles Used -------------  4 
Starting Wavelength (Angstroms) ---  2950 
Final Wavelength (Angstoms) -------  2984 
Wavelength Increment (Angstroms) --  .25 
Filter Wheel #1 Position ---------- (1) Ground quartz diffuser (ND=2.32)
Filter Wheel #2 Position ---------- (1) Neutral Density 0.494



************************************************************
HS scan start time = 17:07:26
Dark Count =  1 


Time (GMT)  Wavelength (Ang)  Step Number  Raw Counts  Counts/Second

 1028.33        2950.00           2144        1303.00      5676.77
 1028.52        2950.25           2147        1311.00      5711.66
 1028.55        2950.50           2151        1294.00      5637.52
 1028.58        2950.75           2155        1300.00      5663.69
 1028.61        2951.00           2158        1316.00      5733.46
 1028.64        2951.25           2162        1302.00      5672.41
 1028.67        2951.50           2165        1325.00      5772.71
 1028.70        2951.75           2169        1305.00      5685.49
 1028.73        2952.00           2172        1286.00      5602.64
 1028.76        2952.25           2176        1309.00      5702.94
 1028.79        2952.50           2179        1311.00      5711.66
 1028.83        2952.75           2183        1296.00      5646.25
 1028.86        2953.00           2186        1341.00      5842.49
 1028.89        2953.25           2190        1343.00      5851.21
 1028.92        2953.50           2193        1319.00      5746.55
 1028.95        2953.75           2197        1339.00      5833.76
 1028.98        2954.00           2200        1385.00      6034.37
 1029.01        2954.25           2204        1328.00      5785.79
 1029.04        2954.50           2208        1355.00      5903.54
 1029.07        2954.75           2211        1360.00      5925.34
 1029.10        2955.00           2215        1329.00      5790.16
 1029.13        2955.25           2218        1400.00      6099.78
 1029.16        2955.50           2222        1345.00      5859.93
 1029.19        2955.75           2225        1382.00      6021.29
 1029.22        2956.00           2229        1459.00      6357.08
 1029.25        2956.25           2232        1399.00      6095.42
 1029.28        2956.50           2236        1385.00      6034.37
 1029.31        2956.75           2239        1399.00      6095.42
 1029.35        2957.00           2243        1410.00      6143.39
 1029.38        2957.25           2246        1441.00      6278.59
 1029.41        2957.50           2250        1419.00      6182.64
 1029.44        2957.75           2254        1449.00      6313.47
 1029.47        2958.00           2257        1454.00      6335.28
 1029.50        2958.25           2261        1510.00      6579.50
 1029.53        2958.50           2264        1524.00      6640.56
 1029.56        2958.75           2268        1498.00      6527.17
 1029.59        2959.00           2271        1520.00      6623.11
 1029.62        2959.25           2275        1523.00      6636.20
 1029.65        2959.50           2278        1535.00      6688.53
 1029.68        2959.75           2282        1540.00      6710.34
 1029.71        2960.00           2285        1606.00      6998.18
 1029.74        2960.25           2289        1606.00      6998.18
 1029.77        2960.50           2293        1631.00      7107.21
 1029.80        2960.75           2296        1713.00      7464.84
 1029.83        2961.00           2300        1719.00      7491.01
 1029.87        2961.25           2303        1878.00      8184.49
 1029.90        2961.50           2307        3943.00     17194.01
 1029.93        2961.75           2310       10247.00     44732.33
 1029.96        2962.00           2314       24300.00    106307.70
 1029.99        2962.25           2317       37699.00    165259.00
 1030.02        2962.50           2321       56998.00    250587.10
 1030.05        2962.75           2324       71407.00    314620.50
 1030.08        2963.00           2328       90434.00    399608.00
 1030.11        2963.25           2331      105037.00    465172.00
 1030.14        2963.50           2335      125136.00    555896.30
 1030.17        2963.75           2339      143518.00    639367.90
 1030.20        2964.00           2342      158116.00    705999.60
 1030.23        2964.25           2346      178937.00    801567.80
 1030.26        2964.50           2349      194453.00    873197.90
 1030.29        2964.75           2353      214812.00    967726.40
 1030.32        2965.00           2356      229134.00   1034597.00
 1030.36        2965.25           2360      246468.00   1115947.00
 1030.39        2965.50           2363      259490.00   1177363.00
 1030.42        2965.75           2367      277578.00   1263110.00
 1030.45        2966.00           2370      290384.00   1324128.00
 1030.48        2966.25           2374      308114.00   1409037.00
 1030.51        2966.50           2378      321505.00   1473502.00
 1030.54        2966.75           2381      325964.00   1495032.00
 1030.57        2967.00           2385      327799.00   1503902.00
 1030.60        2967.25           2388      327991.00   1504830.00
 1030.63        2967.50           2392      328349.00   1506562.00
 1030.66        2967.75           2395      327445.00   1502191.00
 1030.69        2968.00           2399      324141.00   1486226.00
 1030.72        2968.25           2402      315020.00   1442247.00
 1030.75        2968.50           2406      298827.00   1364499.00
 1030.78        2968.75           2409      286748.00   1306777.00
 1030.81        2969.00           2413      269833.00   1226332.00
 1030.84        2969.25           2417      251649.00   1140351.00
 1030.87        2969.50           2420      236908.00   1071024.00
 1030.91        2969.75           2424      218051.00    982822.40
 1030.94        2970.00           2427      202141.00    908821.40
 1030.97        2970.25           2431      183205.00    821236.00
 1031.00        2970.50           2434      169082.00    756255.00
 1031.03        2970.75           2438      150848.00    672787.10
 1031.06        2971.00           2441      136228.00    606207.20
 1031.09        2971.25           2445      117874.00    523051.30
 1031.12        2971.50           2449       98115.00    434057.20
 1031.15        2971.75           2452       83646.00    369231.40
 1031.18        2972.00           2456       64176.00    282451.00
 1031.21        2972.25           2459       49505.00    217398.70
 1031.24        2972.50           2463       31079.00    136103.50
 1031.27        2972.75           2466       19730.00     86255.21
 1031.30        2973.00           2470        7603.00     33176.03
 1031.33        2973.25           2473        3290.00     14344.40
 1031.36        2973.50           2477        1885.00      8215.02
 1031.39        2973.75           2481        1734.00      7556.43
 1031.43        2974.00           2484        1733.00      7552.07
 1031.46        2974.25           2488        1671.00      7281.66
 1031.49        2974.50           2491        1641.00      7150.82
 1031.52        2974.75           2495        1591.00      6932.76
 1031.55        2975.00           2498        1594.00      6945.84
 1031.58        2975.25           2502        1506.00      6562.06
 1031.61        2975.50           2505        1541.00      6714.70
 1031.64        2975.75           2509        1531.00      6671.09
 1031.67        2976.00           2512        1499.00      6531.53
 1031.70        2976.25           2516        1488.00      6483.56
 1031.73        2976.50           2520        1497.00      6522.81
 1031.76        2976.75           2523        1462.00      6370.17
 1031.79        2977.00           2527        1444.00      6291.67
 1031.82        2977.25           2530        1432.00      6239.34
 1031.85        2977.50           2534        1390.00      6056.17
 1031.88        2977.75           2537        1448.00      6309.11
 1031.91        2978.00           2541        1386.00      6038.73
 1031.94        2978.25           2544        1401.00      6104.14
 1031.98        2978.50           2548        1376.00      5995.12
 1032.01        2978.75           2552        1382.00      6021.29
 1032.04        2979.00           2555        1374.00      5986.40
 1032.07        2979.25           2559        1337.00      5825.04
 1032.10        2979.50           2562        1311.00      5711.66
 1032.13        2979.75           2566        1352.00      5890.46
 1032.16        2980.00           2569        1333.00      5807.60
 1032.19        2980.25           2573        1305.00      5685.49
 1032.22        2980.50           2577        1298.00      5654.97
 1032.25        2980.75           2580        1291.00      5624.44
 1032.28        2981.00           2584        1306.00      5689.85
 1032.31        2981.25           2587        1241.00      5406.40
 1032.34        2981.50           2591        1269.00      5528.50
 1032.37        2981.75           2594        1267.00      5519.78
 1032.40        2982.00           2598        1262.00      5497.98
 1032.43        2982.25           2601        1251.00      5450.01
 1032.47        2982.50           2605        1269.00      5528.50
 1032.50        2982.75           2609        1251.00      5450.01
 1032.53        2983.00           2612        1237.00      5388.96
 1032.56        2983.25           2616        1252.00      5454.37
 1032.59        2983.50           2619        1273.00      5545.95
 1032.62        2983.75           2623        1237.00      5388.96
 1032.65        2984.00           2626        1265.00      5511.06
HS scan finished at 17:12:52
end
