************************************************************
  HS Scan of (1) Internal mercury lamp
************************************************************
Integration time is 0.2294 seconds per sample
dh131217Reading 51.44 .94 2.72pr1000
************************************************************
Dead Time -------------------------  3.4E-08 
Number of Cycles Used -------------  4 
Starting Wavelength (Angstroms) ---  2950 
Final Wavelength (Angstoms) -------  2984 
Wavelength Increment (Angstroms) --  .25 
Filter Wheel #1 Position ---------- (1) Ground quartz diffuser (ND=2.32)
Filter Wheel #2 Position ---------- (1) Neutral Density 0.494



************************************************************
HS scan start time = 05:08:01
Dark Count =  .6 


Time (GMT)  Wavelength (Ang)  Step Number  Raw Counts  Counts/Second

  308.91        2950.00           2144          84.00       363.56
  309.10        2950.25           2147          83.00       359.20
  309.13        2950.50           2151          83.00       359.20
  309.16        2950.75           2155          77.00       333.05
  309.20        2951.00           2158          83.00       359.20
  309.23        2951.25           2162          79.00       341.77
  309.26        2951.50           2165          89.00       385.36
  309.29        2951.75           2169          78.00       337.41
  309.32        2952.00           2172          82.00       354.84
  309.35        2952.25           2176          94.00       407.15
  309.38        2952.50           2179          86.00       372.28
  309.41        2952.75           2183          89.00       385.36
  309.44        2953.00           2186          85.00       367.92
  309.47        2953.25           2190          88.00       381.00
  309.50        2953.50           2193          92.00       398.44
  309.54        2953.75           2197          89.00       385.36
  309.57        2954.00           2200          88.00       381.00
  309.60        2954.25           2204          86.00       372.28
  309.63        2954.50           2208          83.00       359.20
  309.66        2954.75           2211          82.00       354.84
  309.69        2955.00           2215          84.00       363.56
  309.72        2955.25           2218          88.00       381.00
  309.75        2955.50           2222          88.00       381.00
  309.78        2955.75           2225          86.00       372.28
  309.81        2956.00           2229          88.00       381.00
  309.84        2956.25           2232          85.00       367.92
  309.87        2956.50           2236          88.00       381.00
  309.91        2956.75           2239          86.00       372.28
  309.94        2957.00           2243          93.00       402.80
  309.97        2957.25           2246         100.00       433.31
  310.00        2957.50           2250         116.00       503.06
  310.03        2957.75           2254          97.00       420.23
  310.06        2958.00           2257          99.00       428.95
  310.09        2958.25           2261          97.00       420.23
  310.12        2958.50           2264         133.00       577.17
  310.15        2958.75           2268         113.00       489.98
  310.18        2959.00           2271         118.00       511.78
  310.21        2959.25           2275         115.00       498.70
  310.24        2959.50           2278         119.00       516.14
  310.27        2959.75           2282         104.00       450.75
  310.30        2960.00           2285          99.00       428.95
  310.33        2960.25           2289         114.00       494.34
  310.36        2960.50           2293         114.00       494.34
  310.39        2960.75           2296         132.00       572.81
  310.43        2961.00           2300         144.00       625.12
  310.46        2961.25           2303         271.00      1178.77
  310.49        2961.50           2307         853.00      3716.25
  310.52        2961.75           2310        1641.00      7152.57
  310.55        2962.00           2314        2917.00     12718.66
  310.58        2962.25           2317        3880.00     16920.80
  310.61        2962.50           2321        5357.00     23368.17
  310.64        2962.75           2324        6472.00     28237.21
  310.67        2963.00           2328        7825.00     34147.74
  310.70        2963.25           2331        8518.00     37176.00
  310.73        2963.50           2335       10063.00     43929.57
  310.76        2963.75           2339       11613.00     50708.10
  310.79        2964.00           2342       12796.00     55883.77
  310.82        2964.25           2346       14100.00     61590.92
  310.85        2964.50           2349       14979.00     65439.25
  310.88        2964.75           2353       16578.00     72442.38
  310.91        2965.00           2356       17329.00     75732.69
  310.95        2965.25           2360       18802.00     82188.38
  310.98        2965.50           2363       19917.00     87076.94
  311.01        2965.75           2367       21384.00     93511.31
  311.04        2966.00           2370       22670.00     99154.12
  311.07        2966.25           2374       23865.00    104399.60
  311.10        2966.50           2378       23780.00    104026.40
  311.13        2966.75           2381       24140.00    105607.00
  311.16        2967.00           2385       24121.00    105523.50
  311.19        2967.25           2388       24466.00    107038.40
  311.22        2967.50           2392       24155.00    105672.80
  311.25        2967.75           2395       24016.00    105062.50
  311.28        2968.00           2399       23159.00    101300.40
  311.31        2968.25           2402       22138.00     96819.51
  311.34        2968.50           2406       20811.00     90997.77
  311.37        2968.75           2409       19978.00     87344.46
  311.40        2969.00           2413       18897.00     82604.82
  311.43        2969.25           2417       17387.00     75986.83
  311.47        2969.50           2420       16182.00     70707.71
  311.50        2969.75           2424       14714.00     64278.95
  311.53        2970.00           2427       13931.00     60851.14
  311.56        2970.25           2431       12610.00     55069.89
  311.59        2970.50           2434       11490.00     50170.08
  311.62        2970.75           2438        9886.00     43155.70
  311.65        2971.00           2441        8729.00     38098.14
  311.68        2971.25           2445        7174.00     31303.57
  311.71        2971.50           2449        6017.00     26250.10
  311.74        2971.75           2452        4980.00     21722.23
  311.77        2972.00           2456        3533.00     15406.50
  311.80        2972.25           2459        2662.00     11606.15
  311.83        2972.50           2463        1447.00      6306.50
  311.86        2972.75           2466         769.00      3349.99
  311.89        2973.00           2470         238.00      1034.91
  311.92        2973.25           2473         139.00       603.33
  311.95        2973.50           2477         126.00       546.65
  311.99        2973.75           2481         110.00       476.90
  312.02        2974.00           2484         110.00       476.90
  312.05        2974.25           2488         139.00       603.33
  312.08        2974.50           2491         104.00       450.75
  312.11        2974.75           2495         110.00       476.90
  312.14        2975.00           2498          99.00       428.95
  312.17        2975.25           2502         107.00       463.83
  312.20        2975.50           2505         111.00       481.26
  312.23        2975.75           2509         106.00       459.47
  312.26        2976.00           2512          98.00       424.59
  312.29        2976.25           2516         100.00       433.31
  312.32        2976.50           2520          97.00       420.23
  312.35        2976.75           2523          98.00       424.59
  312.38        2977.00           2527          93.00       402.80
  312.41        2977.25           2530          99.00       428.95
  312.44        2977.50           2534          92.00       398.44
  312.47        2977.75           2537          90.00       389.72
  312.50        2978.00           2541          93.00       402.80
  312.54        2978.25           2544          98.00       424.59
  312.57        2978.50           2548          91.00       394.08
  312.60        2978.75           2552          88.00       381.00
  312.63        2979.00           2555          90.00       389.72
  312.66        2979.25           2559          82.00       354.84
  312.69        2979.50           2562          94.00       407.15
  312.72        2979.75           2566          96.00       415.87
  312.75        2980.00           2569          80.00       346.12
  312.78        2980.25           2573          85.00       367.92
  312.81        2980.50           2577          85.00       367.92
  312.84        2980.75           2580          79.00       341.77
  312.87        2981.00           2584          84.00       363.56
  312.90        2981.25           2587          89.00       385.36
  312.93        2981.50           2591          78.00       337.41
  312.96        2981.75           2594          81.00       350.48
  312.99        2982.00           2598          86.00       372.28
  313.02        2982.25           2601          80.00       346.12
  313.06        2982.50           2605          75.00       324.33
  313.09        2982.75           2609          85.00       367.92
  313.12        2983.00           2612          79.00       341.77
  313.15        2983.25           2616          75.00       324.33
  313.18        2983.50           2619          83.00       359.20
  313.21        2983.75           2623          89.00       385.36
  313.24        2984.00           2626          87.00       376.64
HS scan finished at 05:13:28
end
************************************************************
  HS Scan of (1) Internal mercury lamp
************************************************************
Integration time is 0.2294 seconds per sample
dh131217Reading 51.44 .94 2.78pr1000
************************************************************
Dead Time -------------------------  3.4E-08 
Number of Cycles Used -------------  4 
Starting Wavelength (Angstroms) ---  2950 
Final Wavelength (Angstoms) -------  2984 
Wavelength Increment (Angstroms) --  .25 
Filter Wheel #1 Position ---------- (1) Ground quartz diffuser (ND=2.32)
Filter Wheel #2 Position ---------- (1) Neutral Density 0.494



************************************************************
HS scan start time = 16:37:22
Dark Count =  .6 


Time (GMT)  Wavelength (Ang)  Step Number  Raw Counts  Counts/Second

  998.26        2950.00           2144          71.00       306.89
  998.45        2950.25           2147          84.00       363.56
  998.48        2950.50           2151          84.00       363.56
  998.52        2950.75           2155          75.00       324.33
  998.55        2951.00           2158          81.00       350.48
  998.58        2951.25           2162          82.00       354.84
  998.61        2951.50           2165          77.00       333.05
  998.64        2951.75           2169          74.00       319.97
  998.67        2952.00           2172          81.00       350.48
  998.70        2952.25           2176          72.00       311.25
  998.73        2952.50           2179          78.00       337.41
  998.76        2952.75           2183          82.00       354.84
  998.79        2953.00           2186          80.00       346.12
  998.83        2953.25           2190          82.00       354.84
  998.86        2953.50           2193          76.00       328.69
  998.89        2953.75           2197          92.00       398.44
  998.92        2954.00           2200          80.00       346.12
  998.95        2954.25           2204          89.00       385.36
  998.98        2954.50           2208          87.00       376.64
  999.01        2954.75           2211          84.00       363.56
  999.04        2955.00           2215          83.00       359.20
  999.07        2955.25           2218          85.00       367.92
  999.10        2955.50           2222          85.00       367.92
  999.13        2955.75           2225         108.00       468.19
  999.16        2956.00           2229          78.00       337.41
  999.19        2956.25           2232          81.00       350.48
  999.22        2956.50           2236          83.00       359.20
  999.25        2956.75           2239          92.00       398.44
  999.28        2957.00           2243          71.00       306.89
  999.31        2957.25           2246          85.00       367.92
  999.35        2957.50           2250          90.00       389.72
  999.38        2957.75           2254          78.00       337.41
  999.41        2958.00           2257          77.00       333.05
  999.44        2958.25           2261          91.00       394.08
  999.47        2958.50           2264         118.00       511.78
  999.50        2958.75           2268         114.00       494.34
  999.53        2959.00           2271          91.00       394.08
  999.56        2959.25           2275         101.00       437.67
  999.59        2959.50           2278         102.00       442.03
  999.62        2959.75           2282          96.00       415.87
  999.65        2960.00           2285         102.00       442.03
  999.68        2960.25           2289          94.00       407.15
  999.71        2960.50           2293         109.00       472.54
  999.74        2960.75           2296         121.00       524.86
  999.77        2961.00           2300         119.00       516.14
  999.80        2961.25           2303         157.00       681.79
  999.83        2961.50           2307         450.00      1959.15
  999.87        2961.75           2310        1012.00      4409.55
  999.90        2962.00           2314        2271.00      9900.46
  999.93        2962.25           2317        3300.00     14389.78
  999.96        2962.50           2321        4715.00     20565.38
  999.99        2962.75           2324        5627.00     24547.07
 1000.02        2963.00           2328        7122.00     31076.41
 1000.05        2963.25           2331        8227.00     35904.31
 1000.08        2963.50           2335        9588.00     41852.89
 1000.11        2963.75           2339       11122.00     48560.50
 1000.14        2964.00           2342       12170.00     53144.77
 1000.17        2964.25           2346       13548.00     59174.74
 1000.20        2964.50           2349       14647.00     63985.61
 1000.23        2964.75           2353       16048.00     70120.78
 1000.26        2965.00           2356       17209.00     75206.88
 1000.29        2965.25           2360       18408.00     80461.31
 1000.32        2965.50           2363       19247.00     84139.22
 1000.35        2965.75           2367       20860.00     91212.69
 1000.38        2966.00           2370       22000.00     96213.97
 1000.42        2966.25           2374       23058.00    100857.00
 1000.45        2966.50           2378       23518.00    102876.20
 1000.48        2966.75           2381       23914.00    104614.70
 1000.51        2967.00           2385       23901.00    104557.60
 1000.54        2967.25           2388       23764.00    103956.20
 1000.57        2967.50           2392       23851.00    104338.10
 1000.60        2967.75           2395       23624.00    103341.50
 1000.63        2968.00           2399       22759.00     99544.72
 1000.66        2968.25           2402       21952.00     96003.35
 1000.69        2968.50           2406       20802.00     90958.29
 1000.72        2968.75           2409       19849.00     86778.78
 1000.75        2969.00           2413       18416.00     80496.38
 1000.78        2969.25           2417       16992.00     74256.13
 1000.81        2969.50           2420       15881.00     69389.33
 1000.84        2969.75           2424       14527.00     63460.24
 1000.87        2970.00           2427       13356.00     58334.42
 1000.90        2970.25           2431       12233.00     53420.40
 1000.94        2970.50           2434       11259.00     49159.70
 1000.97        2970.75           2438        9821.00     42871.51
 1001.00        2971.00           2441        8706.00     37997.62
 1001.03        2971.25           2445        7248.00     31626.84
 1001.06        2971.50           2449        5792.00     25267.56
 1001.10        2971.75           2452        4917.00     21447.19
 1001.13        2972.00           2456        3694.00     16109.08
 1001.16        2972.25           2459        2833.00     12352.18
 1001.19        2972.50           2463        1552.00      6764.42
 1001.22        2972.75           2466         788.00      3432.83
 1001.25        2973.00           2470         236.00      1026.19
 1001.28        2973.25           2473         132.00       572.81
 1001.31        2973.50           2477         148.00       642.56
 1001.34        2973.75           2481         102.00       442.03
 1001.37        2974.00           2484         110.00       476.90
 1001.40        2974.25           2488          97.00       420.23
 1001.43        2974.50           2491          99.00       428.95
 1001.46        2974.75           2495          94.00       407.15
 1001.49        2975.00           2498         107.00       463.83
 1001.53        2975.25           2502         100.00       433.31
 1001.56        2975.50           2505          96.00       415.87
 1001.59        2975.75           2509          88.00       381.00
 1001.62        2976.00           2512          88.00       381.00
 1001.65        2976.25           2516          93.00       402.80
 1001.68        2976.50           2520          88.00       381.00
 1001.71        2976.75           2523          92.00       398.44
 1001.74        2977.00           2527          92.00       398.44
 1001.77        2977.25           2530          92.00       398.44
 1001.80        2977.50           2534          84.00       363.56
 1001.83        2977.75           2537          88.00       381.00
 1001.86        2978.00           2541          83.00       359.20
 1001.89        2978.25           2544          87.00       376.64
 1001.92        2978.50           2548          89.00       385.36
 1001.95        2978.75           2552          77.00       333.05
 1001.98        2979.00           2555          89.00       385.36
 1002.01        2979.25           2559          78.00       337.41
 1002.05        2979.50           2562          80.00       346.12
 1002.08        2979.75           2566          76.00       328.69
 1002.11        2980.00           2569          81.00       350.48
 1002.14        2980.25           2573          81.00       350.48
 1002.17        2980.50           2577          69.00       298.17
 1002.20        2980.75           2580          75.00       324.33
 1002.23        2981.00           2584          79.00       341.77
 1002.26        2981.25           2587          78.00       337.41
 1002.29        2981.50           2591          83.00       359.20
 1002.32        2981.75           2594          83.00       359.20
 1002.35        2982.00           2598          76.00       328.69
 1002.38        2982.25           2601          76.00       328.69
 1002.41        2982.50           2605          73.00       315.61
 1002.44        2982.75           2609          64.00       276.38
 1002.47        2983.00           2612          71.00       306.89
 1002.50        2983.25           2616          79.00       341.77
 1002.53        2983.50           2619          69.00       298.17
 1002.57        2983.75           2623          65.00       280.74
 1002.60        2984.00           2626          78.00       337.41
HS scan finished at 16:42:49
end
