************************************************************
  HS Scan of (1) Internal mercury lamp
************************************************************
Integration time is 0.2294 seconds per sample
dh151218Reading 51.44 .94 2.39pr1000
************************************************************
Dead Time -------------------------  3.4E-08 
Number of Cycles Used -------------  4 
Starting Wavelength (Angstroms) ---  2950 
Final Wavelength (Angstoms) -------  2984 
Wavelength Increment (Angstroms) --  .25 
Filter Wheel #1 Position ---------- (1) Ground quartz diffuser (ND=2.32)
Filter Wheel #2 Position ---------- (1) Neutral Density 0.494



************************************************************
HS scan start time = 05:12:18
Dark Count =  .1 


Time (GMT)  Wavelength (Ang)  Step Number  Raw Counts  Counts/Second

  313.21        2950.00           2144        1623.00      7076.24
  313.40        2950.25           2147        1634.00      7124.22
  313.43        2950.50           2151        1645.00      7172.19
  313.46        2950.75           2155        1619.00      7058.80
  313.49        2951.00           2158        1673.00      7294.31
  313.52        2951.25           2162        1664.00      7255.06
  313.55        2951.50           2165        1684.00      7342.29
  313.58        2951.75           2169        1621.00      7067.52
  313.61        2952.00           2172        1640.00      7150.39
  313.64        2952.25           2176        1644.00      7167.83
  313.68        2952.50           2179        1667.00      7268.14
  313.71        2952.75           2183        1699.00      7407.71
  313.74        2953.00           2186        1661.00      7241.98
  313.77        2953.25           2190        1653.00      7207.08
  313.80        2953.50           2193        1652.00      7202.72
  313.83        2953.75           2197        1671.00      7285.59
  313.86        2954.00           2200        1681.00      7329.20
  313.89        2954.25           2204        1671.00      7285.59
  313.92        2954.50           2208        1688.00      7359.73
  313.95        2954.75           2211        1702.00      7420.79
  313.98        2955.00           2215        1701.00      7416.43
  314.01        2955.25           2218        1711.00      7460.04
  314.04        2955.50           2222        1698.00      7403.35
  314.07        2955.75           2225        1697.00      7398.98
  314.10        2956.00           2229        1771.00      7721.73
  314.13        2956.25           2232        1738.00      7577.80
  314.16        2956.50           2236        1764.00      7691.20
  314.20        2956.75           2239        1786.00      7787.15
  314.23        2957.00           2243        1794.00      7822.05
  314.26        2957.25           2246        1769.00      7713.01
  314.29        2957.50           2250        1810.00      7891.83
  314.32        2957.75           2254        1797.00      7835.13
  314.35        2958.00           2257        1789.00      7800.24
  314.38        2958.25           2261        1829.00      7974.70
  314.41        2958.50           2264        1844.00      8040.12
  314.44        2958.75           2268        1883.00      8210.22
  314.47        2959.00           2271        1893.00      8253.84
  314.50        2959.25           2275        1870.00      8153.53
  314.53        2959.50           2278        1900.00      8284.37
  314.56        2959.75           2282        1901.00      8288.73
  314.59        2960.00           2285        1917.00      8358.52
  314.62        2960.25           2289        1973.00      8602.78
  314.65        2960.50           2293        1974.00      8607.14
  314.68        2960.75           2296        2018.00      8799.06
  314.71        2961.00           2300        2083.00      9082.58
  314.75        2961.25           2303        2455.00     10705.29
  314.78        2961.50           2307        6075.00     26505.57
  314.81        2961.75           2310       14523.00     63444.91
  314.84        2962.00           2314       29969.00    131224.60
  314.87        2962.25           2317       42638.00    187052.90
  314.90        2962.50           2321       60192.00    264761.10
  314.93        2962.75           2324       73908.00    325767.50
  314.96        2963.00           2328       92621.00    409412.40
  314.99        2963.25           2331      106702.00    472670.20
  315.02        2963.50           2335      126926.00    564007.60
  315.05        2963.75           2339      146372.00    652375.00
  315.08        2964.00           2342      162138.00    724415.80
  315.11        2964.25           2346      180366.00    808154.30
  315.14        2964.50           2349      195689.00    878923.30
  315.17        2964.75           2353      215505.00    970959.20
  315.20        2965.00           2356      229701.00   1037255.00
  315.23        2965.25           2360      249606.00   1130727.00
  315.27        2965.50           2363      263572.00   1196674.00
  315.30        2965.75           2367      280395.00   1276514.00
  315.33        2966.00           2370      294563.00   1344100.00
  315.36        2966.25           2374      310811.00   1422002.00
  315.39        2966.50           2378      323790.00   1484536.00
  315.42        2966.75           2381      329522.00   1512240.00
  315.45        2967.00           2385      332201.00   1525206.00
  315.48        2967.25           2388      332223.00   1525313.00
  315.51        2967.50           2392      331957.00   1524025.00
  315.54        2967.75           2395      331843.00   1523473.00
  315.57        2968.00           2399      328441.00   1507011.00
  315.60        2968.25           2402      320330.00   1467838.00
  315.63        2968.50           2406      305015.00   1394164.00
  315.66        2968.75           2409      292101.00   1332333.00
  315.69        2969.00           2413      273321.00   1242888.00
  315.72        2969.25           2417      253912.00   1151028.00
  315.75        2969.50           2420      238261.00   1077378.00
  315.79        2969.75           2424      217953.00    982369.70
  315.82        2970.00           2427      204435.00    919472.10
  315.85        2970.25           2431      186815.00    837896.80
  315.88        2970.50           2434      172165.00    770419.50
  315.91        2970.75           2438      150814.00    672636.10
  315.94        2971.00           2441      135137.00    601255.00
  315.97        2971.25           2445      114298.00    506908.90
  316.00        2971.50           2449       95722.00    423319.90
  316.03        2971.75           2452       81521.00    359739.00
  316.06        2972.00           2456       61848.00    272113.20
  316.09        2972.25           2459       45967.00    201758.10
  316.12        2972.50           2463       26888.00    117679.60
  316.15        2972.75           2466       14522.00     63440.54
  316.18        2973.00           2470        5191.00     22645.59
  316.21        2973.25           2473        2883.00     12572.51
  316.24        2973.50           2477        2155.00      9396.64
  316.27        2973.75           2481        2032.00      8860.12
  316.31        2974.00           2484        2013.00      8777.25
  316.34        2974.25           2488        1963.00      8559.16
  316.37        2974.50           2491        1932.00      8423.95
  316.40        2974.75           2495        1898.00      8275.65
  316.43        2975.00           2498        1900.00      8284.37
  316.46        2975.25           2502        1813.00      7904.91
  316.49        2975.50           2505        1801.00      7852.58
  316.52        2975.75           2509        1773.00      7730.45
  316.55        2976.00           2512        1799.00      7843.85
  316.58        2976.25           2516        1781.00      7765.35
  316.61        2976.50           2520        1743.00      7599.61
  316.64        2976.75           2523        1728.00      7534.19
  316.67        2977.00           2527        1742.00      7595.25
  316.70        2977.25           2530        1711.00      7460.04
  316.73        2977.50           2534        1684.00      7342.29
  316.76        2977.75           2537        1701.00      7416.43
  316.79        2978.00           2541        1681.00      7329.20
  316.83        2978.25           2544        1697.00      7398.98
  316.86        2978.50           2548        1626.00      7089.33
  316.89        2978.75           2552        1619.00      7058.80
  316.92        2979.00           2555        1625.00      7084.97
  316.95        2979.25           2559        1606.00      7002.10
  316.98        2979.50           2562        1626.00      7089.33
  317.02        2979.75           2566        1637.00      7137.30
  317.05        2980.00           2569        1640.00      7150.39
  317.09        2980.25           2573        1588.00      6923.60
  317.12        2980.50           2577        1563.00      6814.57
  317.15        2980.75           2580        1599.00      6971.57
  317.18        2981.00           2584        1581.00      6893.07
  317.21        2981.25           2587        1575.00      6866.90
  317.24        2981.50           2591        1537.00      6701.18
  317.27        2981.75           2594        1522.00      6635.76
  317.30        2982.00           2598        1541.00      6718.62
  317.33        2982.25           2601        1546.00      6740.43
  317.36        2982.50           2605        1528.00      6661.93
  317.39        2982.75           2609        1487.00      6483.12
  317.42        2983.00           2612        1492.00      6504.93
  317.45        2983.25           2616        1507.00      6570.34
  317.48        2983.50           2619        1537.00      6701.18
  317.51        2983.75           2623        1480.00      6452.59
  317.54        2984.00           2626        1519.00      6622.68
HS scan finished at 05:17:46
end
************************************************************
  HS Scan of (1) Internal mercury lamp
************************************************************
Integration time is 0.2294 seconds per sample
dh151218Reading 51.44 .94 2.56pr1000
************************************************************
Dead Time -------------------------  3.4E-08 
Number of Cycles Used -------------  4 
Starting Wavelength (Angstroms) ---  2950 
Final Wavelength (Angstoms) -------  2984 
Wavelength Increment (Angstroms) --  .25 
Filter Wheel #1 Position ---------- (1) Ground quartz diffuser (ND=2.32)
Filter Wheel #2 Position ---------- (1) Neutral Density 0.494



************************************************************
HS scan start time = 16:37:22
Dark Count =  .3 


Time (GMT)  Wavelength (Ang)  Step Number  Raw Counts  Counts/Second

  998.27        2950.00           2144        1568.00      6835.50
  998.46        2950.25           2147        1550.00      6757.00
  998.49        2950.50           2151        1556.00      6783.17
  998.52        2950.75           2155        1576.00      6870.39
  998.55        2951.00           2158        1570.00      6844.23
  998.58        2951.25           2162        1557.00      6787.53
  998.62        2951.50           2165        1544.00      6730.83
  998.65        2951.75           2169        1548.00      6748.28
  998.68        2952.00           2172        1577.00      6874.75
  998.71        2952.25           2176        1569.00      6839.86
  998.74        2952.50           2179        1586.00      6914.01
  998.77        2952.75           2183        1559.00      6796.25
  998.80        2953.00           2186        1540.00      6713.39
  998.83        2953.25           2190        1618.00      7053.57
  998.86        2953.50           2193        1630.00      7105.90
  998.89        2953.75           2197        1602.00      6983.79
  998.92        2954.00           2200        1581.00      6892.20
  998.95        2954.25           2204        1591.00      6935.81
  998.98        2954.50           2208        1596.00      6957.62
  999.01        2954.75           2211        1611.00      7023.04
  999.04        2955.00           2215        1629.00      7101.54
  999.07        2955.25           2218        1628.00      7097.18
  999.10        2955.50           2222        1649.00      7188.77
  999.14        2955.75           2225        1645.00      7171.32
  999.17        2956.00           2229        1666.00      7262.91
  999.20        2956.25           2232        1693.00      7380.67
  999.23        2956.50           2236        1679.00      7319.61
  999.26        2956.75           2239        1654.00      7210.57
  999.29        2957.00           2243        1692.00      7376.30
  999.32        2957.25           2246        1703.00      7424.28
  999.35        2957.50           2250        1709.00      7450.45
  999.38        2957.75           2254        1724.00      7515.87
  999.41        2958.00           2257        1726.00      7524.59
  999.44        2958.25           2261        1735.00      7563.85
  999.47        2958.50           2264        1763.00      7685.97
  999.50        2958.75           2268        1845.00      8043.61
  999.53        2959.00           2271        1788.00      7795.00
  999.56        2959.25           2275        1747.00      7616.18
  999.59        2959.50           2278        1802.00      7856.07
  999.62        2959.75           2282        1842.00      8030.53
  999.66        2960.00           2285        1847.00      8052.34
  999.69        2960.25           2289        1855.00      8087.23
  999.72        2960.50           2293        1908.00      8318.39
  999.75        2960.75           2296        1938.00      8449.24
  999.78        2961.00           2300        1979.00      8628.08
  999.81        2961.25           2303        2254.00      9827.61
  999.84        2961.50           2307        5415.00     23622.72
  999.87        2961.75           2310       12640.00     55202.47
  999.90        2962.00           2314       27203.00    119063.00
  999.93        2962.25           2317       39698.00    174077.40
  999.96        2962.50           2321       58438.00    256977.00
  999.99        2962.75           2324       72804.00    320846.80
 1000.02        2963.00           2328       91518.00    404467.90
 1000.05        2963.25           2331      104900.00    464558.70
 1000.08        2963.50           2335      124430.00    552703.00
 1000.11        2963.75           2339      143762.00    640482.40
 1000.14        2964.00           2342      159574.00    712674.60
 1000.18        2964.25           2346      178781.00    800852.60
 1000.21        2964.50           2349      193031.00    866621.60
 1000.24        2964.75           2353      212546.00    957177.80
 1000.27        2965.00           2356      227153.00   1025332.00
 1000.30        2965.25           2360      246827.00   1117640.00
 1000.33        2965.50           2363      259876.00   1179191.00
 1000.36        2965.75           2367      277101.00   1260845.00
 1000.39        2966.00           2370      290380.00   1324112.00
 1000.42        2966.25           2374      307406.00   1405640.00
 1000.45        2966.50           2378      319340.00   1463063.00
 1000.48        2966.75           2381      321961.00   1475706.00
 1000.51        2967.00           2385      323788.00   1484525.00
 1000.54        2967.25           2388      324127.00   1486162.00
 1000.57        2967.50           2392      323964.00   1485375.00
 1000.60        2967.75           2395      323172.00   1481551.00
 1000.63        2968.00           2399      318272.00   1457915.00
 1000.66        2968.25           2402      308590.00   1411327.00
 1000.70        2968.50           2406      294132.00   1342038.00
 1000.73        2968.75           2409      281269.00   1280673.00
 1000.76        2969.00           2413      263057.00   1194236.00
 1000.79        2969.25           2417      244266.00   1105591.00
 1000.82        2969.50           2420      231094.00   1043775.00
 1000.85        2969.75           2424      211893.00    954138.60
 1000.88        2970.00           2427      197565.00    887610.40
 1000.91        2970.25           2431      177489.00    794904.30
 1000.94        2970.50           2434      163597.00    731099.60
 1000.97        2970.75           2438      145547.00    648614.10
 1001.00        2971.00           2441      132619.00    589821.60
 1001.03        2971.25           2445      113874.00    504994.70
 1001.06        2971.50           2449       93062.00    411388.50
 1001.09        2971.75           2452       77150.00    340223.80
 1001.12        2972.00           2456       58631.00    257833.20
 1001.15        2972.25           2459       45549.00    199910.00
 1001.18        2972.50           2463       28879.00    126430.30
 1001.22        2972.75           2466       17125.00     74840.15
 1001.25        2973.00           2470        5856.00     25548.34
 1001.28        2973.25           2473        3019.00     13165.00
 1001.31        2973.50           2477        2087.00      9099.15
 1001.34        2973.75           2481        1979.00      8628.08
 1001.37        2974.00           2484        1927.00      8401.27
 1001.40        2974.25           2488        1852.00      8074.14
 1001.43        2974.50           2491        1892.00      8248.61
 1001.46        2974.75           2495        1862.00      8117.76
 1001.49        2975.00           2498        1799.00      7842.98
 1001.52        2975.25           2502        1756.00      7655.44
 1001.55        2975.50           2505        1782.00      7768.83
 1001.58        2975.75           2509        1754.00      7646.71
 1001.61        2976.00           2512        1706.00      7437.36
 1001.64        2976.25           2516        1712.00      7463.53
 1001.67        2976.50           2520        1701.00      7415.56
 1001.70        2976.75           2523        1718.00      7489.70
 1001.74        2977.00           2527        1691.00      7371.94
 1001.77        2977.25           2530        1696.00      7393.75
 1001.80        2977.50           2534        1698.00      7402.47
 1001.83        2977.75           2537        1639.00      7145.15
 1001.86        2978.00           2541        1630.00      7105.90
 1001.89        2978.25           2544        1632.00      7114.62
 1001.92        2978.50           2548        1567.00      6831.14
 1001.95        2978.75           2552        1589.00      6927.09
 1001.98        2979.00           2555        1594.00      6948.90
 1002.01        2979.25           2559        1532.00      6678.50
 1002.04        2979.50           2562        1541.00      6717.75
 1002.07        2979.75           2566        1591.00      6935.81
 1002.10        2980.00           2569        1532.00      6678.50
 1002.13        2980.25           2573        1480.00      6451.72
 1002.16        2980.50           2577        1518.00      6617.44
 1002.19        2980.75           2580        1498.00      6530.22
 1002.22        2981.00           2584        1492.00      6504.05
 1002.26        2981.25           2587        1482.00      6460.44
 1002.29        2981.50           2591        1489.00      6490.97
 1002.32        2981.75           2594        1504.00      6556.39
 1002.35        2982.00           2598        1475.00      6429.91
 1002.38        2982.25           2601        1521.00      6630.53
 1002.41        2982.50           2605        1488.00      6486.61
 1002.44        2982.75           2609        1492.00      6504.05
 1002.47        2983.00           2612        1493.00      6508.41
 1002.50        2983.25           2616        1443.00      6290.36
 1002.53        2983.50           2619        1462.00      6373.22
 1002.56        2983.75           2623        1445.00      6299.08
 1002.59        2984.00           2626        1420.00      6190.06
HS scan finished at 16:42:49
end
