************************************************************
  HS Scan of (1) Internal mercury lamp
************************************************************
Integration time is 0.2294 seconds per sample
dh101217Reading 51.44 .94 2.45pr1000
************************************************************
Dead Time -------------------------  3.4E-08 
Number of Cycles Used -------------  4 
Starting Wavelength (Angstroms) ---  2950 
Final Wavelength (Angstoms) -------  2984 
Wavelength Increment (Angstroms) --  .25 
Filter Wheel #1 Position ---------- (1) Ground quartz diffuser (ND=2.32)
Filter Wheel #2 Position ---------- (1) Neutral Density 0.494



************************************************************
HS scan start time = 05:08:28
Dark Count =  .1 


Time (GMT)  Wavelength (Ang)  Step Number  Raw Counts  Counts/Second

  309.37        2950.00           2144         111.00       483.44
  309.57        2950.25           2147          87.00       378.82
  309.60        2950.50           2151          92.00       400.62
  309.63        2950.75           2155          89.00       387.54
  309.66        2951.00           2158          88.00       383.18
  309.69        2951.25           2162          93.00       404.98
  309.72        2951.50           2165         110.00       479.08
  309.75        2951.75           2169          90.00       391.90
  309.78        2952.00           2172          90.00       391.90
  309.81        2952.25           2176         115.00       500.88
  309.84        2952.50           2179          90.00       391.90
  309.87        2952.75           2183          87.00       378.82
  309.90        2953.00           2186          88.00       383.18
  309.93        2953.25           2190          90.00       391.90
  309.96        2953.50           2193         100.00       435.49
  309.99        2953.75           2197          96.00       418.05
  310.03        2954.00           2200          96.00       418.05
  310.06        2954.25           2204         114.00       496.52
  310.09        2954.50           2208         100.00       435.49
  310.12        2954.75           2211         100.00       435.49
  310.15        2955.00           2215          95.00       413.69
  310.18        2955.25           2218          96.00       418.05
  310.21        2955.50           2222         105.00       457.29
  310.24        2955.75           2225          94.00       409.33
  310.27        2956.00           2229          98.00       426.77
  310.30        2956.25           2232          94.00       409.33
  310.33        2956.50           2236         106.00       461.65
  310.36        2956.75           2239         101.00       439.85
  310.39        2957.00           2243         101.00       439.85
  310.42        2957.25           2246          94.00       409.33
  310.45        2957.50           2250          97.00       422.41
  310.48        2957.75           2254         100.00       435.49
  310.51        2958.00           2257         119.00       518.32
  310.55        2958.25           2261         115.00       500.88
  310.58        2958.50           2264         111.00       483.44
  310.61        2958.75           2268         106.00       461.65
  310.64        2959.00           2271         132.00       574.99
  310.67        2959.25           2275         108.00       470.37
  310.70        2959.50           2278         108.00       470.37
  310.73        2959.75           2282         121.00       527.04
  310.76        2960.00           2285         113.00       492.16
  310.79        2960.25           2289         146.00       636.02
  310.82        2960.50           2293         155.00       675.26
  310.85        2960.75           2296         137.00       596.79
  310.88        2961.00           2300         163.00       710.13
  310.91        2961.25           2303         363.00      1582.04
  310.94        2961.50           2307        1167.00      5087.63
  310.97        2961.75           2310        2009.00      8759.80
  311.00        2962.00           2314        3125.00     13628.37
  311.03        2962.25           2317        4111.00     17931.16
  311.07        2962.50           2321        5300.00     23121.48
  311.10        2962.75           2324        6425.00     28034.12
  311.13        2963.00           2328        7899.00     34473.25
  311.16        2963.25           2331        8786.00     38349.45
  311.19        2963.50           2335       10264.00     44810.60
  311.22        2963.75           2339       11482.00     50137.28
  311.25        2964.00           2342       12497.00     54577.65
  311.28        2964.25           2346       13960.00     60980.27
  311.31        2964.50           2349       14840.00     64832.82
  311.34        2964.75           2353       16269.00     71090.99
  311.37        2965.00           2356       17262.00     75441.30
  311.40        2965.25           2360       18598.00     81296.33
  311.43        2965.50           2363       19559.00     85509.36
  311.46        2965.75           2367       20680.00     90425.36
  311.49        2966.00           2370       21640.00     94636.62
  311.52        2966.25           2374       22891.00    100126.30
  311.55        2966.50           2378       23346.00    102123.40
  311.59        2966.75           2381       23745.00    103874.90
  311.62        2967.00           2385       23668.00    103536.90
  311.65        2967.25           2388       23718.00    103756.40
  311.68        2967.50           2392       23572.00    103115.50
  311.71        2967.75           2395       23359.00    102180.40
  311.74        2968.00           2399       22535.00     98563.84
  311.77        2968.25           2402       21555.00     94263.71
  311.80        2968.50           2406       20400.00     89197.31
  311.83        2968.75           2409       19447.00     85018.29
  311.86        2969.00           2413       17860.00     78061.75
  311.89        2969.25           2417       16781.00     73333.88
  311.92        2969.50           2420       15653.00     68392.95
  311.95        2969.75           2424       14363.00     62744.44
  311.98        2970.00           2427       13237.00     57815.81
  312.01        2970.25           2431       11867.00     51821.39
  312.04        2970.50           2434       10806.00     47180.68
  312.07        2970.75           2438        9299.00     40591.73
  312.10        2971.00           2441        8375.00     36553.25
  312.14        2971.25           2445        6829.00     29798.70
  312.17        2971.50           2449        5279.00     23029.80
  312.20        2971.75           2452        4306.00     18782.26
  312.23        2972.00           2456        2959.00     12904.09
  312.26        2972.25           2459        2083.00      9082.58
  312.29        2972.50           2463        1102.00      4804.18
  312.32        2972.75           2466         556.00      2423.48
  312.35        2973.00           2470         201.00       875.79
  312.38        2973.25           2473         167.00       727.57
  312.41        2973.50           2477         117.00       509.60
  312.44        2973.75           2481         123.00       535.76
  312.47        2974.00           2484         132.00       574.99
  312.50        2974.25           2488         122.00       531.40
  312.53        2974.50           2491         111.00       483.44
  312.56        2974.75           2495         120.00       522.68
  312.59        2975.00           2498         106.00       461.65
  312.62        2975.25           2502         106.00       461.65
  312.66        2975.50           2505         107.00       466.01
  312.69        2975.75           2509         130.00       566.27
  312.72        2976.00           2512         102.00       444.21
  312.75        2976.25           2516          98.00       426.77
  312.78        2976.50           2520         100.00       435.49
  312.81        2976.75           2523         101.00       439.85
  312.84        2977.00           2527          94.00       409.33
  312.87        2977.25           2530         120.00       522.68
  312.90        2977.50           2534         101.00       439.85
  312.93        2977.75           2537          93.00       404.98
  312.96        2978.00           2541         111.00       483.44
  312.99        2978.25           2544          93.00       404.98
  313.02        2978.50           2548          91.00       396.26
  313.05        2978.75           2552         105.00       457.29
  313.08        2979.00           2555          97.00       422.41
  313.11        2979.25           2559          97.00       422.41
  313.14        2979.50           2562          88.00       383.18
  313.18        2979.75           2566          91.00       396.26
  313.21        2980.00           2569          92.00       400.62
  313.24        2980.25           2573          98.00       426.77
  313.27        2980.50           2577          95.00       413.69
  313.30        2980.75           2580          96.00       418.05
  313.33        2981.00           2584          90.00       391.90
  313.36        2981.25           2587          86.00       374.46
  313.39        2981.50           2591          84.00       365.74
  313.42        2981.75           2594          92.00       400.62
  313.45        2982.00           2598          86.00       374.46
  313.48        2982.25           2601          90.00       391.90
  313.51        2982.50           2605          92.00       400.62
  313.54        2982.75           2609          89.00       387.54
  313.57        2983.00           2612          88.00       383.18
  313.60        2983.25           2616          82.00       357.02
  313.63        2983.50           2619          84.00       365.74
  313.66        2983.75           2623          87.00       378.82
  313.70        2984.00           2626          81.00       352.66
HS scan finished at 05:13:55
end
************************************************************
  HS Scan of (1) Internal mercury lamp
************************************************************
Integration time is 0.2294 seconds per sample
dh101217Reading 51.44 .94 2.47pr1000
************************************************************
Dead Time -------------------------  3.4E-08 
Number of Cycles Used -------------  4 
Starting Wavelength (Angstroms) ---  2950 
Final Wavelength (Angstoms) -------  2984 
Wavelength Increment (Angstroms) --  .25 
Filter Wheel #1 Position ---------- (1) Ground quartz diffuser (ND=2.32)
Filter Wheel #2 Position ---------- (1) Neutral Density 0.494



************************************************************
HS scan start time = 16:40:23
Dark Count =  .4 


Time (GMT)  Wavelength (Ang)  Step Number  Raw Counts  Counts/Second

 1001.28        2950.00           2144          80.00       347.00
 1001.47        2950.25           2147          97.00       421.10
 1001.50        2950.50           2151          97.00       421.10
 1001.53        2950.75           2155          92.00       399.31
 1001.56        2951.00           2158          91.00       394.95
 1001.59        2951.25           2162          86.00       373.15
 1001.62        2951.50           2165          89.00       386.23
 1001.65        2951.75           2169          87.00       377.51
 1001.68        2952.00           2172          87.00       377.51
 1001.72        2952.25           2176          91.00       394.95
 1001.75        2952.50           2179          86.00       373.15
 1001.78        2952.75           2183          97.00       421.10
 1001.81        2953.00           2186         105.00       455.98
 1001.84        2953.25           2190         116.00       503.93
 1001.87        2953.50           2193          91.00       394.95
 1001.90        2953.75           2197          92.00       399.31
 1001.93        2954.00           2200          96.00       416.75
 1001.96        2954.25           2204          96.00       416.75
 1001.99        2954.50           2208         100.00       434.18
 1002.02        2954.75           2211          92.00       399.31
 1002.05        2955.00           2215         100.00       434.18
 1002.08        2955.25           2218          96.00       416.75
 1002.11        2955.50           2222          94.00       408.03
 1002.14        2955.75           2225          93.00       403.67
 1002.17        2956.00           2229          94.00       408.03
 1002.20        2956.25           2232         115.00       499.57
 1002.24        2956.50           2236         106.00       460.34
 1002.27        2956.75           2239         103.00       447.26
 1002.30        2957.00           2243         102.00       442.90
 1002.33        2957.25           2246         120.00       521.37
 1002.36        2957.50           2250         116.00       503.93
 1002.39        2957.75           2254          95.00       412.39
 1002.42        2958.00           2257          98.00       425.46
 1002.45        2958.25           2261         100.00       434.18
 1002.48        2958.50           2264         111.00       482.14
 1002.51        2958.75           2268         136.00       591.12
 1002.54        2959.00           2271         126.00       547.53
 1002.57        2959.25           2275         110.00       477.78
 1002.60        2959.50           2278         106.00       460.34
 1002.63        2959.75           2282         113.00       490.85
 1002.66        2960.00           2285         121.00       525.73
 1002.69        2960.25           2289         133.00       578.04
 1002.72        2960.50           2293         137.00       595.48
 1002.76        2960.75           2296         136.00       591.12
 1002.79        2961.00           2300         139.00       604.20
 1002.82        2961.25           2303         261.00      1136.05
 1002.85        2961.50           2307         854.00      3721.48
 1002.88        2961.75           2310        1612.00      7026.96
 1002.91        2962.00           2314        2728.00     11894.96
 1002.94        2962.25           2317        3599.00     15695.39
 1002.97        2962.50           2321        4964.00     21653.25
 1003.00        2962.75           2324        5968.00     26036.99
 1003.03        2963.00           2328        7357.00     32103.90
 1003.06        2963.25           2331        8484.00     37028.28
 1003.09        2963.50           2335        9806.00     42806.81
 1003.12        2963.75           2339       11236.00     49059.97
 1003.15        2964.00           2342       12206.00     53303.14
 1003.18        2964.25           2346       13609.00     59442.60
 1003.21        2964.50           2349       14831.00     64792.10
 1003.24        2964.75           2353       15962.00     69744.97
 1003.27        2965.00           2356       16937.00     74016.03
 1003.31        2965.25           2360       18127.00     79230.59
 1003.34        2965.50           2363       18857.00     82430.35
 1003.37        2965.75           2367       19981.00     87358.48
 1003.40        2966.00           2370       21372.00     93459.54
 1003.43        2966.25           2374       22467.00     98264.11
 1003.46        2966.50           2378       23072.00    100919.40
 1003.49        2966.75           2381       23203.00    101494.40
 1003.52        2967.00           2385       23287.00    101863.10
 1003.55        2967.25           2388       23309.00    101959.70
 1003.58        2967.50           2392       23648.00    103447.80
 1003.61        2967.75           2395       23391.00    102319.60
 1003.64        2968.00           2399       23351.00    102144.00
 1003.67        2968.25           2402       22295.00     97509.31
 1003.70        2968.50           2406       21159.00     92525.14
 1003.73        2968.75           2409       19869.00     86867.34
 1003.76        2969.00           2413       18704.00     81759.66
 1003.80        2969.25           2417       17598.00     76912.28
 1003.83        2969.50           2420       16432.00     71803.68
 1003.86        2969.75           2424       15119.00     66053.15
 1003.89        2970.00           2427       13863.00     60554.37
 1003.92        2970.25           2431       12361.00     53981.28
 1003.95        2970.50           2434       11308.00     49374.89
 1003.98        2970.75           2438        9858.00     43034.15
 1004.01        2971.00           2441        8750.00     38190.80
 1004.04        2971.25           2445        7301.00     31859.26
 1004.07        2971.50           2449        5839.00     25473.67
 1004.10        2971.75           2452        4736.00     20657.92
 1004.13        2972.00           2456        3450.00     15045.18
 1004.16        2972.25           2459        2477.00     10799.96
 1004.19        2972.50           2463        1371.00      5975.93
 1004.22        2972.75           2466         680.00      2962.81
 1004.25        2973.00           2470         250.00      1088.10
 1004.28        2973.25           2473         159.00       691.39
 1004.31        2973.50           2477         151.00       656.51
 1004.35        2973.75           2481         152.00       660.87
 1004.38        2974.00           2484         108.00       469.06
 1004.41        2974.25           2488         163.00       708.82
 1004.44        2974.50           2491         105.00       455.98
 1004.47        2974.75           2495         137.00       595.48
 1004.50        2975.00           2498         158.00       687.03
 1004.53        2975.25           2502         125.00       543.17
 1004.56        2975.50           2505         107.00       464.70
 1004.59        2975.75           2509          96.00       416.75
 1004.62        2976.00           2512         103.00       447.26
 1004.65        2976.25           2516          92.00       399.31
 1004.68        2976.50           2520         103.00       447.26
 1004.71        2976.75           2523          93.00       403.67
 1004.74        2977.00           2527         103.00       447.26
 1004.77        2977.25           2530         100.00       434.18
 1004.80        2977.50           2534          98.00       425.46
 1004.83        2977.75           2537         111.00       482.14
 1004.87        2978.00           2541         112.00       486.49
 1004.90        2978.25           2544         108.00       469.06
 1004.93        2978.50           2548          99.00       429.82
 1004.96        2978.75           2552          87.00       377.51
 1004.99        2979.00           2555          87.00       377.51
 1005.02        2979.25           2559          94.00       408.03
 1005.05        2979.50           2562          96.00       416.75
 1005.08        2979.75           2566         121.00       525.73
 1005.11        2980.00           2569         112.00       486.49
 1005.14        2980.25           2573          90.00       390.59
 1005.17        2980.50           2577          91.00       394.95
 1005.20        2980.75           2580         116.00       503.93
 1005.23        2981.00           2584          95.00       412.39
 1005.26        2981.25           2587          93.00       403.67
 1005.29        2981.50           2591          93.00       403.67
 1005.32        2981.75           2594          83.00       360.07
 1005.35        2982.00           2598          84.00       364.43
 1005.39        2982.25           2601          94.00       408.03
 1005.42        2982.50           2605          87.00       377.51
 1005.45        2982.75           2609          90.00       390.59
 1005.48        2983.00           2612          86.00       373.15
 1005.51        2983.25           2616         101.00       438.54
 1005.54        2983.50           2619          84.00       364.43
 1005.57        2983.75           2623          85.00       368.79
 1005.60        2984.00           2626         108.00       469.06
HS scan finished at 16:45:49
end
