************************************************************
  HS Scan of (1) Internal mercury lamp
************************************************************
Integration time is 0.2294 seconds per sample
dh071217Reading 51.44 .94 2.94pr1000
************************************************************
Dead Time -------------------------  3.4E-08 
Number of Cycles Used -------------  4 
Starting Wavelength (Angstroms) ---  2950 
Final Wavelength (Angstoms) -------  2984 
Wavelength Increment (Angstroms) --  .25 
Filter Wheel #1 Position ---------- (1) Ground quartz diffuser (ND=2.32)
Filter Wheel #2 Position ---------- (1) Neutral Density 0.494



************************************************************
HS scan start time = 05:02:43
Dark Count =  .7 


Time (GMT)  Wavelength (Ang)  Step Number  Raw Counts  Counts/Second

  303.61        2950.00           2144          77.00       332.61
  303.80        2950.25           2147          91.00       393.64
  303.83        2950.50           2151          81.00       350.05
  303.86        2950.75           2155          81.00       350.05
  303.89        2951.00           2158          78.00       336.97
  303.92        2951.25           2162          89.00       384.92
  303.95        2951.50           2165          90.00       389.28
  303.98        2951.75           2169          84.00       363.13
  304.01        2952.00           2172          82.00       354.41
  304.05        2952.25           2176          90.00       389.28
  304.08        2952.50           2179          80.00       345.69
  304.11        2952.75           2183          84.00       363.13
  304.14        2953.00           2186          96.00       415.44
  304.17        2953.25           2190          88.00       380.56
  304.20        2953.50           2193          85.00       367.49
  304.23        2953.75           2197          85.00       367.49
  304.26        2954.00           2200          91.00       393.64
  304.29        2954.25           2204          76.00       328.25
  304.32        2954.50           2208          80.00       345.69
  304.35        2954.75           2211          85.00       367.49
  304.38        2955.00           2215          86.00       371.84
  304.41        2955.25           2218          86.00       371.84
  304.44        2955.50           2222          88.00       380.56
  304.47        2955.75           2225          97.00       419.80
  304.50        2956.00           2229          88.00       380.56
  304.53        2956.25           2232          85.00       367.49
  304.57        2956.50           2236          95.00       411.08
  304.60        2956.75           2239          94.00       406.72
  304.63        2957.00           2243         106.00       459.03
  304.66        2957.25           2246          88.00       380.56
  304.69        2957.50           2250         128.00       554.94
  304.72        2957.75           2254          93.00       402.36
  304.75        2958.00           2257         100.00       432.87
  304.78        2958.25           2261          85.00       367.49
  304.81        2958.50           2264         100.00       432.87
  304.84        2958.75           2268         120.00       520.06
  304.87        2959.00           2271         117.00       506.98
  304.90        2959.25           2275         143.00       620.33
  304.93        2959.50           2278         107.00       463.39
  304.96        2959.75           2282         129.00       559.30
  304.99        2960.00           2285          98.00       424.16
  305.02        2960.25           2289         116.00       502.62
  305.05        2960.50           2293         151.00       655.20
  305.09        2960.75           2296         126.00       546.22
  305.12        2961.00           2300         163.00       707.51
  305.15        2961.25           2303         269.00      1169.62
  305.18        2961.50           2307        1029.00      4483.25
  305.21        2961.75           2310        1923.00      8382.08
  305.24        2962.00           2314        3182.00     13874.46
  305.27        2962.25           2317        4059.00     17701.58
  305.30        2962.50           2321        5349.00     23332.80
  305.33        2962.75           2324        6523.00     28459.52
  305.36        2963.00           2328        8096.00     35331.43
  305.39        2963.25           2331        9127.00     39837.27
  305.42        2963.50           2335       10488.00     45787.44
  305.45        2963.75           2339       11845.00     51722.53
  305.48        2964.00           2342       13425.00     58635.96
  305.51        2964.25           2346       15326.00     66958.28
  305.54        2964.50           2349       16454.00     71898.75
  305.57        2964.75           2353       18000.00     78672.68
  305.61        2965.00           2356       18966.00     82906.87
  305.64        2965.25           2360       20266.00     88607.00
  305.67        2965.50           2363       21465.00     93866.24
  305.70        2965.75           2367       22912.00    100215.80
  305.73        2966.00           2370       23617.00    103310.40
  305.76        2966.25           2374       24738.00    108232.40
  305.79        2966.50           2378       25554.00    111816.20
  305.82        2966.75           2381       25813.00    112953.90
  305.85        2967.00           2385       26023.00    113876.40
  305.88        2967.25           2388       26078.00    114118.00
  305.91        2967.50           2392       25955.00    113577.70
  305.94        2967.75           2395       25551.00    111803.00
  305.97        2968.00           2399       24557.00    107437.50
  306.00        2968.25           2402       23407.00    102388.50
  306.03        2968.50           2406       21975.00     96103.84
  306.06        2968.75           2409       20964.00     91668.44
  306.09        2969.00           2413       19632.00     85826.81
  306.12        2969.25           2417       18652.00     81530.41
  306.16        2969.50           2420       17369.00     75907.52
  306.19        2969.75           2424       15816.00     69104.21
  306.22        2970.00           2427       14441.00     63083.28
  306.25        2970.25           2431       12819.00     55983.98
  306.28        2970.50           2434       11743.00     51276.33
  306.31        2970.75           2438       10295.00     44943.52
  306.34        2971.00           2441        9113.00     39776.08
  306.37        2971.25           2445        7828.00     34160.40
  306.40        2971.50           2449        6332.00     27625.33
  306.43        2971.75           2452        5125.00     22354.82
  306.46        2972.00           2456        3773.00     16453.40
  306.49        2972.25           2459        2620.00     11422.48
  306.52        2972.50           2463        1339.00      5835.07
  306.55        2972.75           2466         707.00      3079.22
  306.58        2973.00           2470         272.00      1182.70
  306.61        2973.25           2473         148.00       642.12
  306.65        2973.50           2477         121.00       524.42
  306.68        2973.75           2481         148.00       642.12
  306.71        2974.00           2484         188.00       816.50
  306.74        2974.25           2488         115.00       498.26
  306.77        2974.50           2491         117.00       506.98
  306.80        2974.75           2495         130.00       563.66
  306.83        2975.00           2498         102.00       441.59
  306.86        2975.25           2502          96.00       415.44
  306.89        2975.50           2505         109.00       472.11
  306.92        2975.75           2509         101.00       437.23
  306.95        2976.00           2512         100.00       432.87
  306.98        2976.25           2516          90.00       389.28
  307.01        2976.50           2520          96.00       415.44
  307.04        2976.75           2523          99.00       428.52
  307.07        2977.00           2527          90.00       389.28
  307.10        2977.25           2530          98.00       424.16
  307.13        2977.50           2534          89.00       384.92
  307.17        2977.75           2537         114.00       493.91
  307.20        2978.00           2541          91.00       393.64
  307.23        2978.25           2544          89.00       384.92
  307.26        2978.50           2548          99.00       428.52
  307.29        2978.75           2552          85.00       367.49
  307.32        2979.00           2555          87.00       376.20
  307.35        2979.25           2559          85.00       367.49
  307.38        2979.50           2562          84.00       363.13
  307.41        2979.75           2566          91.00       393.64
  307.44        2980.00           2569          84.00       363.13
  307.47        2980.25           2573          88.00       380.56
  307.50        2980.50           2577          81.00       350.05
  307.53        2980.75           2580          88.00       380.56
  307.56        2981.00           2584          84.00       363.13
  307.59        2981.25           2587          79.00       341.33
  307.62        2981.50           2591          78.00       336.97
  307.65        2981.75           2594          79.00       341.33
  307.68        2982.00           2598          83.00       358.77
  307.72        2982.25           2601          83.00       358.77
  307.75        2982.50           2605          87.00       376.20
  307.78        2982.75           2609          79.00       341.33
  307.81        2983.00           2612          73.00       315.17
  307.84        2983.25           2616          79.00       341.33
  307.87        2983.50           2619          71.00       306.45
  307.90        2983.75           2623          79.00       341.33
  307.93        2984.00           2626          71.00       306.45
HS scan finished at 05:08:09
end
************************************************************
  HS Scan of (1) Internal mercury lamp
************************************************************
Integration time is 0.2294 seconds per sample
dh071217Reading 51.44 .94 2.92pr1000
************************************************************
Dead Time -------------------------  3.4E-08 
Number of Cycles Used -------------  4 
Starting Wavelength (Angstroms) ---  2950 
Final Wavelength (Angstoms) -------  2984 
Wavelength Increment (Angstroms) --  .25 
Filter Wheel #1 Position ---------- (1) Ground quartz diffuser (ND=2.32)
Filter Wheel #2 Position ---------- (1) Neutral Density 0.494



************************************************************
HS scan start time = 16:37:21
Dark Count =  .8 


Time (GMT)  Wavelength (Ang)  Step Number  Raw Counts  Counts/Second

  998.24        2950.00           2144          88.00       380.13
  998.44        2950.25           2147          86.00       371.41
  998.47        2950.50           2151          77.00       332.17
  998.50        2950.75           2155          78.00       336.53
  998.53        2951.00           2158          82.00       353.97
  998.56        2951.25           2162          72.00       310.38
  998.59        2951.50           2165          87.00       375.77
  998.62        2951.75           2169          85.00       367.05
  998.65        2952.00           2172          83.00       358.33
  998.68        2952.25           2176          72.00       310.38
  998.71        2952.50           2179          78.00       336.53
  998.74        2952.75           2183          80.00       345.25
  998.77        2953.00           2186          86.00       371.41
  998.80        2953.25           2190          83.00       358.33
  998.83        2953.50           2193          85.00       367.05
  998.86        2953.75           2197          79.00       340.89
  998.89        2954.00           2200          86.00       371.41
  998.93        2954.25           2204          82.00       353.97
  998.96        2954.50           2208          87.00       375.77
  998.99        2954.75           2211          81.00       349.61
  999.02        2955.00           2215          84.00       362.69
  999.05        2955.25           2218          93.00       401.92
  999.08        2955.50           2222          80.00       345.25
  999.11        2955.75           2225          88.00       380.13
  999.14        2956.00           2229          87.00       375.77
  999.17        2956.25           2232         105.00       454.24
  999.20        2956.50           2236          85.00       367.05
  999.23        2956.75           2239          91.00       393.20
  999.26        2957.00           2243          87.00       375.77
  999.29        2957.25           2246          96.00       415.00
  999.32        2957.50           2250          96.00       415.00
  999.35        2957.75           2254          92.00       397.56
  999.38        2958.00           2257          92.00       397.56
  999.41        2958.25           2261         115.00       497.83
  999.44        2958.50           2264          90.00       388.85
  999.48        2958.75           2268          91.00       393.20
  999.51        2959.00           2271          98.00       423.72
  999.54        2959.25           2275         114.00       493.47
  999.57        2959.50           2278         118.00       510.91
  999.60        2959.75           2282         105.00       454.24
  999.63        2960.00           2285         107.00       462.95
  999.66        2960.25           2289         119.00       515.27
  999.69        2960.50           2293         128.00       554.50
  999.72        2960.75           2296         146.00       632.97
  999.75        2961.00           2300         134.00       580.66
  999.78        2961.25           2303         269.00      1169.18
  999.81        2961.50           2307        1017.00      4430.48
  999.84        2961.75           2310        1849.00      8058.88
  999.87        2962.00           2314        3124.00     13620.95
  999.90        2962.25           2317        4149.00     18093.95
  999.93        2962.50           2321        5672.00     24742.69
  999.96        2962.75           2324        6683.00     29157.93
 1000.00        2963.00           2328        8169.00     35649.99
 1000.03        2963.25           2331        9140.00     39893.66
 1000.06        2963.50           2335       10633.00     46421.08
 1000.09        2963.75           2339       12155.00     53078.27
 1000.12        2964.00           2342       13398.00     58517.36
 1000.15        2964.25           2346       14799.00     64650.24
 1000.18        2964.50           2349       15819.00     69116.90
 1000.21        2964.75           2353       17308.00     75639.78
 1000.24        2965.00           2356       18583.00     81227.50
 1000.27        2965.25           2360       19823.00     86663.88
 1000.30        2965.50           2363       20644.00     90264.39
 1000.33        2965.75           2367       22246.00     97292.53
 1000.36        2966.00           2370       23271.00    101791.10
 1000.39        2966.25           2374       24341.00    106488.60
 1000.42        2966.50           2378       25012.00    109435.20
 1000.45        2966.75           2381       24930.00    109075.10
 1000.48        2967.00           2385       25077.00    109720.70
 1000.52        2967.25           2388       25015.00    109448.40
 1000.55        2967.50           2392       25121.00    109913.90
 1000.58        2967.75           2395       24770.00    108372.40
 1000.61        2968.00           2399       24005.00    105013.30
 1000.64        2968.25           2402       22932.00    100303.10
 1000.67        2968.50           2406       21756.00     95142.49
 1000.70        2968.75           2409       20882.00     91308.31
 1000.73        2969.00           2413       19473.00     85129.21
 1000.76        2969.25           2417       18041.00     78851.91
 1000.79        2969.50           2420       17003.00     74303.43
 1000.82        2969.75           2424       15536.00     67877.49
 1000.85        2970.00           2427       14630.00     63910.31
 1000.88        2970.25           2431       13061.00     57042.53
 1000.91        2970.50           2434       11911.00     52010.82
 1000.94        2970.75           2438       10374.00     45288.52
 1000.97        2971.00           2441        9119.00     39801.87
 1001.00        2971.25           2445        7547.00     32932.24
 1001.04        2971.50           2449        6143.00     26799.48
 1001.07        2971.75           2452        5126.00     22358.75
 1001.10        2972.00           2456        3734.00     16282.77
 1001.13        2972.25           2459        2738.00     11936.84
 1001.16        2972.50           2463        1520.00      6623.99
 1001.19        2972.75           2466         725.00      3157.27
 1001.22        2973.00           2470         193.00       837.86
 1001.25        2973.25           2473         150.00       650.41
 1001.28        2973.50           2477         113.00       489.11
 1001.31        2973.75           2481         122.00       528.34
 1001.34        2974.00           2484         117.00       506.55
 1001.37        2974.25           2488         102.00       441.16
 1001.40        2974.50           2491         127.00       550.14
 1001.43        2974.75           2495          91.00       393.20
 1001.46        2975.00           2498         116.00       502.19
 1001.49        2975.25           2502          93.00       401.92
 1001.53        2975.50           2505          94.00       406.28
 1001.56        2975.75           2509          97.00       419.36
 1001.59        2976.00           2512          91.00       393.20
 1001.62        2976.25           2516          97.00       419.36
 1001.65        2976.50           2520          81.00       349.61
 1001.68        2976.75           2523          91.00       393.20
 1001.71        2977.00           2527          89.00       384.49
 1001.74        2977.25           2530          85.00       367.05
 1001.77        2977.50           2534          94.00       406.28
 1001.80        2977.75           2537          88.00       380.13
 1001.83        2978.00           2541          83.00       358.33
 1001.86        2978.25           2544          89.00       384.49
 1001.89        2978.50           2548          87.00       375.77
 1001.92        2978.75           2552          85.00       367.05
 1001.95        2979.00           2555          79.00       340.89
 1001.98        2979.25           2559          83.00       358.33
 1002.01        2979.50           2562          80.00       345.25
 1002.05        2979.75           2566          88.00       380.13
 1002.08        2980.00           2569          79.00       340.89
 1002.11        2980.25           2573          76.00       327.82
 1002.14        2980.50           2577          84.00       362.69
 1002.17        2980.75           2580          82.00       353.97
 1002.20        2981.00           2584          77.00       332.17
 1002.23        2981.25           2587          83.00       358.33
 1002.26        2981.50           2591          80.00       345.25
 1002.29        2981.75           2594          75.00       323.46
 1002.32        2982.00           2598          79.00       340.89
 1002.35        2982.25           2601          75.00       323.46
 1002.38        2982.50           2605          73.00       314.74
 1002.41        2982.75           2609          75.00       323.46
 1002.44        2983.00           2612          75.00       323.46
 1002.47        2983.25           2616          71.00       306.02
 1002.50        2983.50           2619          64.00       275.50
 1002.53        2983.75           2623          73.00       314.74
 1002.56        2984.00           2626          67.00       288.58
HS scan finished at 16:42:47
end
