************************************************************
  HS Scan of (1) Internal mercury lamp
************************************************************
Integration time is 0.2294 seconds per sample
dh121218Reading 51.44 .94 2.78pr1000
************************************************************
Dead Time -------------------------  3.4E-08 
Number of Cycles Used -------------  4 
Starting Wavelength (Angstroms) ---  2950 
Final Wavelength (Angstoms) -------  2984 
Wavelength Increment (Angstroms) --  .25 
Filter Wheel #1 Position ---------- (1) Ground quartz diffuser (ND=2.32)
Filter Wheel #2 Position ---------- (1) Neutral Density 0.494



************************************************************
HS scan start time = 05:06:59
Dark Count =  .4 


Time (GMT)  Wavelength (Ang)  Step Number  Raw Counts  Counts/Second

  307.89        2950.00           2144        1571.00      6848.15
  308.08        2950.25           2147        1585.00      6909.21
  308.12        2950.50           2151        1594.00      6948.46
  308.15        2950.75           2155        1600.00      6974.63
  308.18        2951.00           2158        1576.00      6869.96
  308.21        2951.25           2162        1607.00      7005.16
  308.24        2951.50           2165        1591.00      6935.38
  308.27        2951.75           2169        1615.00      7040.05
  308.30        2952.00           2172        1585.00      6909.21
  308.33        2952.25           2176        1585.00      6909.21
  308.36        2952.50           2179        1610.00      7018.24
  308.39        2952.75           2183        1614.00      7035.68
  308.42        2953.00           2186        1605.00      6996.43
  308.45        2953.25           2190        1648.00      7183.97
  308.48        2953.50           2193        1647.00      7179.61
  308.51        2953.75           2197        1639.00      7144.72
  308.54        2954.00           2200        1630.00      7105.47
  308.57        2954.25           2204        1675.00      7301.73
  308.60        2954.50           2208        1658.00      7227.58
  308.64        2954.75           2211        1707.00      7441.29
  308.67        2955.00           2215        1690.00      7367.15
  308.70        2955.25           2218        1694.00      7384.59
  308.73        2955.50           2222        1721.00      7502.35
  308.76        2955.75           2225        1738.00      7576.49
  308.79        2956.00           2229        1739.00      7580.85
  308.82        2956.25           2232        1755.00      7650.64
  308.85        2956.50           2236        1759.00      7668.08
  308.88        2956.75           2239        1780.00      7759.68
  308.91        2957.00           2243        1790.00      7803.29
  308.94        2957.25           2246        1785.00      7781.48
  308.97        2957.50           2250        1808.00      7881.80
  309.00        2957.75           2254        1829.00      7973.39
  309.03        2958.00           2257        1889.00      8235.09
  309.06        2958.25           2261        1868.00      8143.49
  309.09        2958.50           2264        1876.00      8178.39
  309.12        2958.75           2268        1878.00      8187.11
  309.15        2959.00           2271        1880.00      8195.83
  309.19        2959.25           2275        1917.00      8357.21
  309.22        2959.50           2278        1949.00      8496.79
  309.25        2959.75           2282        1979.00      8627.64
  309.28        2960.00           2285        2000.00      8719.24
  309.31        2960.25           2289        2051.00      8941.69
  309.34        2960.50           2293        2099.00      9151.06
  309.37        2960.75           2296        2111.00      9203.40
  309.40        2961.00           2300        2171.00      9465.12
  309.43        2961.25           2303        2482.00     10821.77
  309.46        2961.50           2307        4841.00     21116.29
  309.49        2961.75           2310       11176.00     48797.55
  309.52        2962.00           2314       28918.00    126601.30
  309.55        2962.25           2317       47094.00    206738.40
  309.58        2962.50           2321       72708.00    320418.60
  309.61        2962.75           2324       91256.00    403293.50
  309.64        2963.00           2328      114771.00    509042.20
  309.67        2963.25           2331      131663.00    585483.00
  309.71        2963.50           2335      157344.00    702470.90
  309.74        2963.75           2339      183477.00    822493.00
  309.77        2964.00           2342      203870.00    916847.80
  309.80        2964.25           2346      229571.00   1036645.00
  309.83        2964.50           2349      248778.00   1126825.00
  309.86        2964.75           2353      275394.00   1252732.00
  309.89        2965.00           2356      296582.00   1353756.00
  309.92        2965.25           2360      322456.00   1478094.00
  309.95        2965.50           2363      340178.00   1563884.00
  309.98        2965.75           2367      362606.00   1673199.00
  310.01        2966.00           2370      380908.00   1763028.00
  310.04        2966.25           2374      405331.00   1883788.00
  310.07        2966.50           2378      423534.00   1974465.00
  310.10        2966.75           2381      428628.00   1999944.00
  310.13        2967.00           2385      430952.00   2011584.00
  310.16        2967.25           2388      431568.00   2014671.00
  310.19        2967.50           2392      431986.00   2016766.00
  310.23        2967.75           2395      431036.00   2012005.00
  310.26        2968.00           2399      426123.00   1987409.00
  310.29        2968.25           2402      415660.00   1935170.00
  310.32        2968.50           2406      395001.00   1832586.00
  310.35        2968.75           2409      378062.00   1749022.00
  310.38        2969.00           2413      354808.00   1635096.00
  310.41        2969.25           2417      332891.00   1528547.00
  310.44        2969.50           2420      316619.00   1449950.00
  310.47        2969.75           2424      292050.00   1332088.00
  310.50        2970.00           2427      273390.00   1243214.00
  310.53        2970.25           2431      244730.00   1107772.00
  310.56        2970.50           2434      224849.00   1014560.00
  310.59        2970.75           2438      198886.00    893730.90
  310.62        2971.00           2441      179689.00    805034.10
  310.65        2971.25           2445      154326.00    688673.70
  310.69        2971.50           2449      126085.00    560196.60
  310.72        2971.75           2452      104722.00    463757.30
  310.75        2972.00           2456       79876.00    352390.50
  310.78        2972.25           2459       61018.00    268426.50
  310.81        2972.50           2463       36821.00    161391.50
  310.84        2972.75           2466       20582.00     89994.21
  310.87        2973.00           2470        7557.00     32977.67
  310.90        2973.25           2473        3780.00     16485.26
  310.94        2973.50           2477        2376.00     10359.36
  310.97        2973.75           2481        2190.00      9548.00
  311.00        2974.00           2484        2134.00      9303.73
  311.03        2974.25           2488        2102.00      9164.15
  311.06        2974.50           2491        2104.00      9172.87
  311.09        2974.75           2495        2032.00      8858.81
  311.12        2975.00           2498        2013.00      8775.94
  311.15        2975.25           2502        1936.00      8440.09
  311.18        2975.50           2505        1974.00      8605.83
  311.21        2975.75           2509        1916.00      8352.85
  311.24        2976.00           2512        1889.00      8235.09
  311.27        2976.25           2516        1874.00      8169.66
  311.30        2976.50           2520        1839.00      8017.01
  311.33        2976.75           2523        1803.00      7859.99
  311.36        2977.00           2527        1820.00      7934.14
  311.39        2977.25           2530        1789.00      7798.93
  311.42        2977.50           2534        1779.00      7755.31
  311.45        2977.75           2537        1770.00      7716.06
  311.49        2978.00           2541        1736.00      7567.77
  311.52        2978.25           2544        1713.00      7467.46
  311.55        2978.50           2548        1702.00      7419.48
  311.58        2978.75           2552        1733.00      7554.69
  311.61        2979.00           2555        1705.00      7432.57
  311.64        2979.25           2559        1713.00      7467.46
  311.67        2979.50           2562        1694.00      7384.59
  311.70        2979.75           2566        1642.00      7157.80
  311.73        2980.00           2569        1646.00      7175.25
  311.76        2980.25           2573        1647.00      7179.61
  311.79        2980.50           2577        1591.00      6935.38
  311.82        2980.75           2580        1641.00      7153.44
  311.85        2981.00           2584        1626.00      7088.02
  311.88        2981.25           2587        1631.00      7109.83
  311.91        2981.50           2591        1630.00      7105.47
  311.94        2981.75           2594        1590.00      6931.01
  311.97        2982.00           2598        1561.00      6804.54
  312.01        2982.25           2601        1578.00      6878.68
  312.04        2982.50           2605        1594.00      6948.46
  312.07        2982.75           2609        1557.00      6787.09
  312.10        2983.00           2612        1571.00      6848.15
  312.13        2983.25           2616        1556.00      6782.73
  312.16        2983.50           2619        1570.00      6843.79
  312.19        2983.75           2623        1543.00      6726.04
  312.22        2984.00           2626        1554.00      6774.01
HS scan finished at 05:12:27
end
************************************************************
  HS Scan of (1) Internal mercury lamp
************************************************************
Integration time is 0.2294 seconds per sample
dh121218Reading 51.44 .94 2.68pr1000
************************************************************
Dead Time -------------------------  3.4E-08 
Number of Cycles Used -------------  4 
Starting Wavelength (Angstroms) ---  2950 
Final Wavelength (Angstoms) -------  2984 
Wavelength Increment (Angstroms) --  .25 
Filter Wheel #1 Position ---------- (1) Ground quartz diffuser (ND=2.32)
Filter Wheel #2 Position ---------- (1) Neutral Density 0.494



************************************************************
HS scan start time = 16:37:23
Dark Count =  .6 


Time (GMT)  Wavelength (Ang)  Step Number  Raw Counts  Counts/Second

  998.27        2950.00           2144        1325.00      5774.46
  998.47        2950.25           2147        1316.00      5735.21
  998.50        2950.50           2151        1334.00      5813.70
  998.53        2950.75           2155        1340.00      5839.87
  998.56        2951.00           2158        1339.00      5835.51
  998.59        2951.25           2162        1305.00      5687.24
  998.62        2951.50           2165        1292.00      5630.55
  998.65        2951.75           2169        1316.00      5735.21
  998.68        2952.00           2172        1341.00      5844.23
  998.71        2952.25           2176        1314.00      5726.49
  998.74        2952.50           2179        1311.00      5713.40
  998.77        2952.75           2183        1361.00      5931.45
  998.80        2953.00           2186        1340.00      5839.87
  998.83        2953.25           2190        1345.00      5861.67
  998.86        2953.50           2193        1339.00      5835.51
  998.90        2953.75           2197        1353.00      5896.56
  998.93        2954.00           2200        1345.00      5861.67
  998.96        2954.25           2204        1358.00      5918.37
  998.99        2954.50           2208        1354.00      5900.92
  999.02        2954.75           2211        1350.00      5883.48
  999.05        2955.00           2215        1353.00      5896.56
  999.08        2955.25           2218        1395.00      6079.72
  999.11        2955.50           2222        1391.00      6062.28
  999.14        2955.75           2225        1386.00      6040.47
  999.17        2956.00           2229        1404.00      6118.97
  999.20        2956.25           2232        1386.00      6040.47
  999.23        2956.50           2236        1407.00      6132.05
  999.26        2956.75           2239        1422.00      6197.47
  999.29        2957.00           2243        1471.00      6411.16
  999.32        2957.25           2246        1425.00      6210.55
  999.35        2957.50           2250        1427.00      6219.28
  999.38        2957.75           2254        1450.00      6319.58
  999.42        2958.00           2257        1496.00      6520.19
  999.45        2958.25           2261        1490.00      6494.02
  999.48        2958.50           2264        1482.00      6459.13
  999.51        2958.75           2268        1459.00      6358.83
  999.54        2959.00           2271        1484.00      6467.86
  999.57        2959.25           2275        1539.00      6707.72
  999.60        2959.50           2278        1543.00      6725.16
  999.63        2959.75           2282        1554.00      6773.14
  999.66        2960.00           2285        1545.00      6733.89
  999.69        2960.25           2289        1579.00      6882.17
  999.72        2960.50           2293        1626.00      7087.15
  999.75        2960.75           2296        1655.00      7213.63
  999.78        2961.00           2300        1671.00      7283.41
  999.81        2961.25           2303        1810.00      7889.65
  999.84        2961.50           2307        3160.00     13778.90
  999.87        2961.75           2310        7750.00     33820.03
  999.90        2962.00           2314       19934.00     87151.51
  999.94        2962.25           2317       31137.00    136360.50
  999.97        2962.50           2321       46182.00    202706.10
 1000.00        2962.75           2324       57122.00    251138.80
 1000.04        2963.00           2328       74716.00    329367.10
 1000.07        2963.25           2331       89603.00    395887.60
 1000.10        2963.50           2335      108761.00    481940.90
 1000.13        2963.75           2339      126187.00    560657.70
 1000.16        2964.00           2342      138212.00    615226.30
 1000.19        2964.25           2346      155321.00    693220.30
 1000.22        2964.50           2349      168605.00    754067.30
 1000.25        2964.75           2353      187414.00    840660.10
 1000.28        2965.00           2356      200515.00    901281.60
 1000.31        2965.25           2360      216838.00    977169.00
 1000.34        2965.50           2363      227563.00   1027248.00
 1000.37        2965.75           2367      242180.00   1095782.00
 1000.40        2966.00           2370      254025.00   1151558.00
 1000.43        2966.25           2374      270069.00   1227453.00
 1000.46        2966.50           2378      285679.00   1301681.00
 1000.49        2966.75           2381      292431.00   1333907.00
 1000.52        2967.00           2385      295220.00   1347240.00
 1000.56        2967.25           2388      295902.00   1350502.00
 1000.59        2967.50           2392      295485.00   1348507.00
 1000.62        2967.75           2395      296073.00   1351320.00
 1000.65        2968.00           2399      294886.00   1345642.00
 1000.68        2968.25           2402      291096.00   1327530.00
 1000.71        2968.50           2406      279080.00   1270255.00
 1000.74        2968.75           2409      267617.00   1215828.00
 1000.77        2969.00           2413      251559.00   1139929.00
 1000.80        2969.25           2417      235971.00   1066631.00
 1000.83        2969.50           2420      224521.00   1013026.00
 1000.86        2969.75           2424      207558.00    933976.40
 1000.89        2970.00           2427      192292.00    863202.20
 1000.92        2970.25           2431      173062.00    774539.70
 1000.95        2970.50           2434      158468.00    707612.00
 1000.98        2970.75           2438      140088.00    623758.00
 1001.01        2971.00           2441      126550.00    562302.00
 1001.04        2971.25           2445      108677.00    481562.40
 1001.08        2971.50           2449       91062.00    402423.30
 1001.11        2971.75           2452       78022.00    344113.40
 1001.14        2972.00           2456       60321.00    265331.40
 1001.17        2972.25           2459       46967.00    206176.10
 1001.20        2972.50           2463       30211.00    132286.80
 1001.23        2972.75           2466       18661.00     81570.30
 1001.26        2973.00           2470        7484.00     32657.87
 1001.29        2973.25           2473        3624.00     15803.61
 1001.32        2973.50           2477        1983.00      8644.21
 1001.35        2973.75           2481        1687.00      7353.19
 1001.38        2974.00           2484        1685.00      7344.47
 1001.41        2974.25           2488        1612.00      7026.09
 1001.44        2974.50           2491        1585.00      6908.34
 1001.47        2974.75           2495        1549.00      6751.33
 1001.50        2975.00           2498        1532.00      6677.19
 1001.54        2975.25           2502        1516.00      6607.41
 1001.57        2975.50           2505        1537.00      6699.00
 1001.60        2975.75           2509        1480.00      6450.41
 1001.63        2976.00           2512        1431.00      6236.72
 1001.66        2976.25           2516        1438.00      6267.25
 1001.69        2976.50           2520        1438.00      6267.25
 1001.72        2976.75           2523        1446.00      6302.14
 1001.75        2977.00           2527        1418.00      6180.03
 1001.78        2977.25           2530        1409.00      6140.78
 1001.81        2977.50           2534        1394.00      6075.36
 1001.84        2977.75           2537        1343.00      5852.95
 1001.87        2978.00           2541        1343.00      5852.95
 1001.91        2978.25           2544        1386.00      6040.47
 1001.94        2978.50           2548        1348.00      5874.76
 1001.97        2978.75           2552        1349.00      5879.12
 1002.00        2979.00           2555        1344.00      5857.31
 1002.03        2979.25           2559        1337.00      5826.79
 1002.06        2979.50           2562        1269.00      5530.25
 1002.09        2979.75           2566        1310.00      5709.04
 1002.12        2980.00           2569        1288.00      5613.10
 1002.15        2980.25           2573        1303.00      5678.52
 1002.18        2980.50           2577        1264.00      5508.44
 1002.21        2980.75           2580        1320.00      5752.65
 1002.24        2981.00           2584        1280.00      5578.22
 1002.27        2981.25           2587        1265.00      5512.80
 1002.30        2981.50           2591        1261.00      5495.36
 1002.33        2981.75           2594        1244.00      5421.23
 1002.36        2982.00           2598        1263.00      5504.08
 1002.39        2982.25           2601        1220.00      5316.57
 1002.43        2982.50           2605        1268.00      5525.89
 1002.46        2982.75           2609        1224.00      5334.01
 1002.49        2983.00           2612        1250.00      5447.39
 1002.52        2983.25           2616        1244.00      5421.23
 1002.55        2983.50           2619        1227.00      5347.09
 1002.58        2983.75           2623        1230.00      5360.18
 1002.61        2984.00           2626        1241.00      5408.14
HS scan finished at 16:42:50
end
