************************************************************
  HS Scan of (1) Internal mercury lamp
************************************************************
Integration time is 0.2294 seconds per sample
dh081218Reading 51.44 .94 2.82pr1000
************************************************************
Dead Time -------------------------  3.4E-08 
Number of Cycles Used -------------  4 
Starting Wavelength (Angstroms) ---  2950 
Final Wavelength (Angstoms) -------  2984 
Wavelength Increment (Angstroms) --  .25 
Filter Wheel #1 Position ---------- (1) Ground quartz diffuser (ND=2.32)
Filter Wheel #2 Position ---------- (1) Neutral Density 0.494



************************************************************
HS scan start time = 05:03:28
Dark Count =  .5 


Time (GMT)  Wavelength (Ang)  Step Number  Raw Counts  Counts/Second

  304.37        2950.00           2144        1583.00      6900.05
  304.56        2950.25           2147        1584.00      6904.41
  304.59        2950.50           2151        1592.00      6939.30
  304.62        2950.75           2155        1653.00      7205.34
  304.65        2951.00           2158        1594.00      6948.02
  304.68        2951.25           2162        1631.00      7109.39
  304.71        2951.50           2165        1647.00      7179.17
  304.74        2951.75           2169        1609.00      7013.44
  304.77        2952.00           2172        1596.00      6956.75
  304.80        2952.25           2176        1602.00      6982.91
  304.83        2952.50           2179        1587.00      6917.49
  304.86        2952.75           2183        1659.00      7231.51
  304.90        2953.00           2186        1651.00      7196.62
  304.93        2953.25           2190        1636.00      7131.20
  304.96        2953.50           2193        1666.00      7262.04
  304.99        2953.75           2197        1668.00      7270.76
  305.02        2954.00           2200        1670.00      7279.48
  305.05        2954.25           2204        1687.00      7353.63
  305.08        2954.50           2208        1658.00      7227.15
  305.11        2954.75           2211        1702.00      7419.05
  305.14        2955.00           2215        1698.00      7401.60
  305.17        2955.25           2218        1697.00      7397.24
  305.20        2955.50           2222        1699.00      7405.96
  305.23        2955.75           2225        1688.00      7357.99
  305.26        2956.00           2229        1719.00      7493.19
  305.29        2956.25           2232        1746.00      7610.95
  305.32        2956.50           2236        1756.00      7654.56
  305.35        2956.75           2239        1741.00      7589.14
  305.38        2957.00           2243        1786.00      7785.41
  305.42        2957.25           2246        1782.00      7767.96
  305.45        2957.50           2250        1804.00      7863.92
  305.48        2957.75           2254        1797.00      7833.39
  305.51        2958.00           2257        1822.00      7942.42
  305.54        2958.25           2261        1818.00      7924.98
  305.57        2958.50           2264        1840.00      8020.93
  305.60        2958.75           2268        1861.00      8112.53
  305.63        2959.00           2271        1899.00      8278.27
  305.66        2959.25           2275        1869.00      8147.42
  305.69        2959.50           2278        1874.00      8169.23
  305.72        2959.75           2282        1969.00      8583.59
  305.75        2960.00           2285        1984.00      8649.01
  305.78        2960.25           2289        1965.00      8566.14
  305.81        2960.50           2293        2012.00      8771.14
  305.84        2960.75           2296        2107.00      9185.52
  305.87        2961.00           2300        2249.00      9804.93
  305.90        2961.25           2303        2877.00     12544.58
  305.93        2961.50           2307        8181.00     35703.73
  305.97        2961.75           2310       17471.00     76355.34
  306.00        2962.00           2314       35030.00    153499.60
  306.03        2962.25           2317       51659.00    226933.90
  306.06        2962.50           2321       74132.00    326764.10
  306.09        2962.75           2324       90784.00    401178.20
  306.12        2963.00           2328      111441.00    494019.80
  306.15        2963.25           2331      127921.00    568514.40
  306.18        2963.50           2335      151601.00    676226.90
  306.21        2963.75           2339      175902.00    787600.30
  306.24        2964.00           2342      193672.00    869586.20
  306.27        2964.25           2346      215971.00    973128.60
  306.30        2964.50           2349      230881.00   1042777.00
  306.33        2964.75           2353      252992.00   1146686.00
  306.36        2965.00           2356      269987.00   1227065.00
  306.39        2965.25           2360      291569.00   1329790.00
  306.42        2965.50           2363      308187.00   1409390.00
  306.45        2965.75           2367      329736.00   1513273.00
  306.49        2966.00           2370      344347.00   1584141.00
  306.52        2966.25           2374      362452.00   1672445.00
  306.55        2966.50           2378      374034.00   1729222.00
  306.58        2966.75           2381      377356.00   1745549.00
  306.61        2967.00           2385      378934.00   1753311.00
  306.64        2967.25           2388      378733.00   1752322.00
  306.67        2967.50           2392      379154.00   1754394.00
  306.70        2967.75           2395      378405.00   1750709.00
  306.73        2968.00           2399      371975.00   1719112.00
  306.76        2968.25           2402      362134.00   1670889.00
  306.79        2968.50           2406      344106.00   1582969.00
  306.82        2968.75           2409      330797.00   1518408.00
  306.85        2969.00           2413      310449.00   1420260.00
  306.88        2969.25           2417      289184.00   1318401.00
  306.91        2969.50           2420      273619.00   1244301.00
  306.94        2969.75           2424      252182.00   1142866.00
  306.97        2970.00           2427      234291.00   1058754.00
  307.01        2970.25           2431      211557.00    952574.00
  307.04        2970.50           2434      195637.00    878680.80
  307.07        2970.75           2438      173858.00    778199.50
  307.10        2971.00           2441      155649.00    694720.00
  307.13        2971.25           2445      131027.00    582597.20
  307.16        2971.50           2449      108009.00    478553.90
  307.19        2971.75           2452       91446.00    404144.40
  307.22        2972.00           2456       71041.00    312992.70
  307.25        2972.25           2459       55137.00    242339.50
  307.28        2972.50           2463       33374.00    146206.70
  307.31        2972.75           2466       18162.00     79383.55
  307.34        2973.00           2470        5431.00     23691.70
  307.37        2973.25           2473        2806.00     12234.82
  307.40        2973.50           2477        2119.00      9237.86
  307.43        2973.75           2481        2071.00      9028.49
  307.46        2974.00           2484        2022.00      8814.76
  307.49        2974.25           2488        2016.00      8788.59
  307.53        2974.50           2491        1988.00      8666.46
  307.56        2974.75           2495        1908.00      8317.52
  307.59        2975.00           2498        1980.00      8631.56
  307.62        2975.25           2502        1890.00      8239.01
  307.65        2975.50           2505        1819.00      7929.34
  307.68        2975.75           2509        1820.00      7933.70
  307.71        2976.00           2512        1784.00      7776.69
  307.74        2976.25           2516        1789.00      7798.49
  307.77        2976.50           2520        1775.00      7737.43
  307.80        2976.75           2523        1751.00      7632.76
  307.83        2977.00           2527        1748.00      7619.67
  307.86        2977.25           2530        1781.00      7763.60
  307.89        2977.50           2534        1711.00      7458.30
  307.92        2977.75           2537        1718.00      7488.83
  307.95        2978.00           2541        1691.00      7371.07
  307.98        2978.25           2544        1676.00      7305.65
  308.01        2978.50           2548        1632.00      7113.75
  308.05        2978.75           2552        1693.00      7379.79
  308.08        2979.00           2555        1633.00      7118.11
  308.11        2979.25           2559        1642.00      7157.37
  308.14        2979.50           2562        1604.00      6991.64
  308.17        2979.75           2566        1660.00      7235.87
  308.20        2980.00           2569        1568.00      6834.63
  308.23        2980.25           2573        1624.00      7078.86
  308.26        2980.50           2577        1565.00      6821.55
  308.29        2980.75           2580        1527.00      6655.82
  308.32        2981.00           2584        1534.00      6686.35
  308.35        2981.25           2587        1592.00      6939.30
  308.38        2981.50           2591        1596.00      6956.75
  308.41        2981.75           2594        1578.00      6878.24
  308.44        2982.00           2598        1516.00      6607.85
  308.47        2982.25           2601        1557.00      6786.66
  308.50        2982.50           2605        1517.00      6612.21
  308.53        2982.75           2609        1541.00      6716.88
  308.57        2983.00           2612        1556.00      6782.30
  308.60        2983.25           2616        1523.00      6638.38
  308.63        2983.50           2619        1498.00      6529.35
  308.66        2983.75           2623        1532.00      6677.63
  308.69        2984.00           2626        1491.00      6498.82
HS scan finished at 05:08:55
end
************************************************************
  HS Scan of (1) Internal mercury lamp
************************************************************
Integration time is 0.2294 seconds per sample
dh081218Reading 51.44 .94 3.03pr1000
************************************************************
Dead Time -------------------------  3.4E-08 
Number of Cycles Used -------------  4 
Starting Wavelength (Angstroms) ---  2950 
Final Wavelength (Angstoms) -------  2984 
Wavelength Increment (Angstroms) --  .25 
Filter Wheel #1 Position ---------- (1) Ground quartz diffuser (ND=2.32)
Filter Wheel #2 Position ---------- (1) Neutral Density 0.494



************************************************************
HS scan start time = 16:37:23
Dark Count =  .7 


Time (GMT)  Wavelength (Ang)  Step Number  Raw Counts  Counts/Second

  998.29        2950.00           2144        1547.00      6742.17
  998.48        2950.25           2147        1504.00      6554.64
  998.51        2950.50           2151        1514.00      6598.25
  998.54        2950.75           2155        1528.00      6659.31
  998.57        2951.00           2158        1552.00      6763.98
  998.60        2951.25           2162        1537.00      6698.56
  998.63        2951.50           2165        1574.00      6859.93
  998.66        2951.75           2169        1536.00      6694.20
  998.69        2952.00           2172        1546.00      6737.81
  998.73        2952.25           2176        1600.00      6973.32
  998.76        2952.50           2179        1555.00      6777.06
  998.79        2952.75           2183        1547.00      6742.17
  998.82        2953.00           2186        1556.00      6781.42
  998.85        2953.25           2190        1583.00      6899.18
  998.88        2953.50           2193        1622.00      7069.27
  998.91        2953.75           2197        1587.00      6916.62
  998.94        2954.00           2200        1589.00      6925.34
  998.97        2954.25           2204        1587.00      6916.62
  999.00        2954.50           2208        1605.00      6995.12
  999.03        2954.75           2211        1603.00      6986.40
  999.06        2955.00           2215        1599.00      6968.96
  999.09        2955.25           2218        1615.00      7038.74
  999.12        2955.50           2222        1612.00      7025.65
  999.15        2955.75           2225        1668.00      7269.89
  999.18        2956.00           2229        1602.00      6982.04
  999.21        2956.25           2232        1669.00      7274.25
  999.25        2956.50           2236        1681.00      7326.59
  999.28        2956.75           2239        1687.00      7352.75
  999.31        2957.00           2243        1663.00      7248.08
  999.34        2957.25           2246        1669.00      7274.25
  999.37        2957.50           2250        1673.00      7291.70
  999.40        2957.75           2254        1722.00      7505.40
  999.43        2958.00           2257        1779.00      7754.01
  999.46        2958.25           2261        1795.00      7823.79
  999.49        2958.50           2264        1778.00      7749.65
  999.52        2958.75           2268        1767.00      7701.67
  999.55        2959.00           2271        1784.00      7775.81
  999.58        2959.25           2275        1844.00      8037.51
  999.61        2959.50           2278        1819.00      7928.47
  999.64        2959.75           2282        1861.00      8111.65
  999.67        2960.00           2285        1855.00      8085.48
  999.70        2960.25           2289        1946.00      8482.39
  999.74        2960.50           2293        1949.00      8495.48
  999.77        2960.75           2296        2003.00      8731.01
  999.80        2961.00           2300        2115.00      9219.54
  999.83        2961.25           2303        2403.00     10475.83
  999.86        2961.50           2307        6033.00     26319.53
  999.89        2961.75           2310       15463.00     67558.24
  999.92        2962.00           2314       33137.00    145162.40
  999.95        2962.25           2317       48167.00    211481.60
  999.98        2962.50           2321       68357.00    301044.30
 1000.01        2962.75           2324       83422.00    368231.40
 1000.04        2963.00           2328      104963.00    464840.30
 1000.07        2963.25           2331      120898.00    536720.80
 1000.10        2963.50           2335      143624.00    639852.00
 1000.13        2963.75           2339      165617.00    740358.10
 1000.16        2964.00           2342      183357.00    821938.30
 1000.19        2964.25           2346      207356.00    933037.20
 1000.22        2964.50           2349      224925.00   1014914.00
 1000.25        2964.75           2353      244598.00   1107150.00
 1000.29        2965.00           2356      258672.00   1173499.00
 1000.32        2965.25           2360      279124.00   1270464.00
 1000.35        2965.50           2363      295965.00   1350803.00
 1000.38        2965.75           2367      318781.00   1460367.00
 1000.41        2966.00           2370      333079.00   1529456.00
 1000.44        2966.25           2374      352560.00   1624130.00
 1000.47        2966.50           2378      367238.00   1695879.00
 1000.50        2966.75           2381      373327.00   1725749.00
 1000.53        2967.00           2385      375538.00   1736611.00
 1000.56        2967.25           2388      376631.00   1741984.00
 1000.59        2967.50           2392      376629.00   1741974.00
 1000.62        2967.75           2395      375505.00   1736449.00
 1000.65        2968.00           2399      371202.00   1715317.00
 1000.68        2968.25           2402      361665.00   1668594.00
 1000.71        2968.50           2406      345010.00   1587364.00
 1000.74        2968.75           2409      331706.00   1522807.00
 1000.77        2969.00           2413      311478.00   1425206.00
 1000.81        2969.25           2417      289055.00   1317785.00
 1000.84        2969.50           2420      271378.00   1233663.00
 1000.87        2969.75           2424      247270.00   1119723.00
 1000.90        2970.00           2427      231446.00   1045422.00
 1000.93        2970.25           2431      208945.00    940423.40
 1000.96        2970.50           2434      193086.00    866874.20
 1000.99        2970.75           2438      169611.00    758685.10
 1001.02        2971.00           2441      151955.00    677842.20
 1001.05        2971.25           2445      129028.00    573531.10
 1001.08        2971.50           2449      106929.00    473689.50
 1001.11        2971.75           2452       90657.00    400608.30
 1001.14        2972.00           2456       70741.00    311656.00
 1001.17        2972.25           2459       53093.00    233282.90
 1001.20        2972.50           2463       30019.00    131441.80
 1001.23        2972.75           2466       15646.00     68359.66
 1001.26        2973.00           2470        5458.00     23808.72
 1001.29        2973.25           2473        2964.00     12923.29
 1001.33        2973.50           2477        2116.00      9223.90
 1001.36        2973.75           2481        1976.00      8613.25
 1001.39        2974.00           2484        1999.00      8713.57
 1001.42        2974.25           2488        1946.00      8482.39
 1001.45        2974.50           2491        1874.00      8168.35
 1001.48        2974.75           2495        1894.00      8255.59
 1001.51        2975.00           2498        1810.00      7889.21
 1001.54        2975.25           2502        1805.00      7867.41
 1001.57        2975.50           2505        1796.00      7828.15
 1001.60        2975.75           2509        1796.00      7828.15
 1001.63        2976.00           2512        1800.00      7845.60
 1001.66        2976.25           2516        1710.00      7453.07
 1001.69        2976.50           2520        1731.00      7544.66
 1001.72        2976.75           2523        1708.00      7444.34
 1001.75        2977.00           2527        1730.00      7540.29
 1001.78        2977.25           2530        1693.00      7378.92
 1001.81        2977.50           2534        1668.00      7269.89
 1001.85        2977.75           2537        1612.00      7025.65
 1001.88        2978.00           2541        1626.00      7086.71
 1001.91        2978.25           2544        1626.00      7086.71
 1001.94        2978.50           2548        1618.00      7051.82
 1001.97        2978.75           2552        1591.00      6934.07
 1002.00        2979.00           2555        1591.00      6934.07
 1002.03        2979.25           2559        1598.00      6964.60
 1002.06        2979.50           2562        1585.00      6907.90
 1002.09        2979.75           2566        1578.00      6877.37
 1002.12        2980.00           2569        1555.00      6777.06
 1002.15        2980.25           2573        1537.00      6698.56
 1002.18        2980.50           2577        1550.00      6755.26
 1002.21        2980.75           2580        1514.00      6598.25
 1002.24        2981.00           2584        1521.00      6628.78
 1002.27        2981.25           2587        1520.00      6624.42
 1002.30        2981.50           2591        1487.00      6480.50
 1002.33        2981.75           2594        1471.00      6410.73
 1002.37        2982.00           2598        1534.00      6685.48
 1002.40        2982.25           2601        1474.00      6423.81
 1002.43        2982.50           2605        1474.00      6423.81
 1002.46        2982.75           2609        1516.00      6606.98
 1002.49        2983.00           2612        1486.00      6476.14
 1002.52        2983.25           2616        1442.00      6284.26
 1002.55        2983.50           2619        1438.00      6266.81
 1002.58        2983.75           2623        1465.00      6384.56
 1002.61        2984.00           2626        1440.00      6275.53
HS scan finished at 16:42:50
end
