************************************************************
  HS Scan of (1) Internal mercury lamp
************************************************************
Integration time is 0.2294 seconds per sample
dh141218Reading 51.44 .94 2.21pr1000
************************************************************
Dead Time -------------------------  3.4E-08 
Number of Cycles Used -------------  4 
Starting Wavelength (Angstroms) ---  2950 
Final Wavelength (Angstoms) -------  2984 
Wavelength Increment (Angstroms) --  .25 
Filter Wheel #1 Position ---------- (1) Ground quartz diffuser (ND=2.32)
Filter Wheel #2 Position ---------- (1) Neutral Density 0.494



************************************************************
HS scan start time = 05:11:32
Dark Count =  .2 


Time (GMT)  Wavelength (Ang)  Step Number  Raw Counts  Counts/Second

  312.43        2950.00           2144        1612.00      7027.84
  312.62        2950.25           2147        1632.00      7115.06
  312.65        2950.50           2151        1648.00      7184.84
  312.68        2950.75           2155        1630.00      7106.34
  312.71        2951.00           2158        1647.00      7180.48
  312.74        2951.25           2162        1650.00      7193.56
  312.77        2951.50           2165        1624.00      7080.17
  312.80        2951.75           2169        1640.00      7149.95
  312.83        2952.00           2172        1661.00      7241.54
  312.86        2952.25           2176        1699.00      7407.27
  312.89        2952.50           2179        1682.00      7333.13
  312.92        2952.75           2183        1685.00      7346.21
  312.96        2953.00           2186        1632.00      7115.06
  312.99        2953.25           2190        1683.00      7337.49
  313.02        2953.50           2193        1686.00      7350.57
  313.05        2953.75           2197        1681.00      7328.77
  313.08        2954.00           2200        1696.00      7394.19
  313.11        2954.25           2204        1687.00      7354.93
  313.14        2954.50           2208        1673.00      7293.88
  313.17        2954.75           2211        1711.00      7459.61
  313.20        2955.00           2215        1687.00      7354.93
  313.23        2955.25           2218        1714.00      7472.69
  313.26        2955.50           2222        1721.00      7503.22
  313.29        2955.75           2225        1690.00      7368.02
  313.32        2956.00           2229        1741.00      7590.45
  313.35        2956.25           2232        1755.00      7651.51
  313.38        2956.50           2236        1739.00      7581.73
  313.41        2956.75           2239        1776.00      7743.10
  313.44        2957.00           2243        1818.00      7926.29
  313.47        2957.25           2246        1756.00      7655.87
  313.51        2957.50           2250        1789.00      7799.80
  313.54        2957.75           2254        1791.00      7808.52
  313.57        2958.00           2257        1868.00      8144.37
  313.60        2958.25           2261        1823.00      7948.09
  313.63        2958.50           2264        1853.00      8078.94
  313.66        2958.75           2268        1878.00      8187.98
  313.69        2959.00           2271        1879.00      8192.34
  313.72        2959.25           2275        1872.00      8161.81
  313.75        2959.50           2278        1877.00      8183.62
  313.78        2959.75           2282        1882.00      8205.43
  313.81        2960.00           2285        1939.00      8454.04
  313.84        2960.25           2289        1971.00      8593.62
  313.87        2960.50           2293        1948.00      8493.30
  313.90        2960.75           2296        1982.00      8641.60
  313.93        2961.00           2300        2105.00      9178.10
  313.96        2961.25           2303        2854.00     12445.54
  314.00        2961.50           2307        8017.00     34988.42
  314.03        2961.75           2310       16253.00     71020.46
  314.06        2962.00           2314       30897.00    135306.30
  314.09        2962.25           2317       43049.00    188867.20
  314.12        2962.50           2321       59917.00    263540.10
  314.15        2962.75           2324       72358.00    318860.20
  314.18        2963.00           2328       90193.00    398532.00
  314.21        2963.25           2331      102909.00    455603.00
  314.24        2963.50           2335      120994.00    537157.20
  314.27        2963.75           2339      139250.00    619948.10
  314.30        2964.00           2342      153306.00    684014.60
  314.33        2964.25           2346      171237.00    766155.20
  314.36        2964.50           2349      184176.00    825717.90
  314.39        2964.75           2353      201579.00    906217.90
  314.42        2965.00           2356      215364.00    970301.70
  314.45        2965.25           2360      233345.00   1054321.00
  314.48        2965.50           2363      245148.00   1109739.00
  314.52        2965.75           2367      260521.00   1182241.00
  314.55        2966.00           2370      271218.00   1232906.00
  314.58        2966.25           2374      288984.00   1317448.00
  314.61        2966.50           2378      300773.00   1373824.00
  314.64        2966.75           2381      304018.00   1389381.00
  314.67        2967.00           2385      305569.00   1396822.00
  314.70        2967.25           2388      306026.00   1399016.00
  314.73        2967.50           2392      305675.00   1397331.00
  314.76        2967.75           2395      305089.00   1394519.00
  314.79        2968.00           2399      301102.00   1375400.00
  314.82        2968.25           2402      293524.00   1339133.00
  314.85        2968.50           2406      279341.00   1271499.00
  314.88        2968.75           2409      266931.00   1212580.00
  314.91        2969.00           2413      247202.00   1119405.00
  314.94        2969.25           2417      230472.00   1040864.00
  314.97        2969.50           2420      218359.00    984262.40
  315.00        2969.75           2424      200402.00    900759.40
  315.03        2970.00           2427      186617.00    836982.20
  315.07        2970.25           2431      166408.00    743988.10
  315.10        2970.50           2434      152127.00    678629.90
  315.13        2970.75           2438      134389.00    597857.40
  315.16        2971.00           2441      120500.00    534923.50
  315.19        2971.25           2445      102934.00    455715.40
  315.22        2971.50           2449       86337.00    381269.80
  315.25        2971.75           2452       73331.00    323195.50
  315.28        2972.00           2456       53090.00    233271.80
  315.31        2972.25           2459       38617.00    169310.10
  315.34        2972.50           2463       21237.00     92868.19
  315.37        2972.75           2466       10849.00     47368.30
  315.40        2973.00           2470        4130.00     18013.65
  315.43        2973.25           2473        2543.00     11088.75
  315.46        2973.50           2477        2059.00      8977.46
  315.49        2973.75           2481        1957.00      8532.55
  315.52        2974.00           2484        1908.00      8318.83
  315.55        2974.25           2488        1932.00      8423.51
  315.59        2974.50           2491        1860.00      8109.47
  315.62        2974.75           2495        1852.00      8074.58
  315.65        2975.00           2498        1853.00      8078.94
  315.68        2975.25           2502        1843.00      8035.33
  315.71        2975.50           2505        1797.00      7834.69
  315.74        2975.75           2509        1783.00      7773.63
  315.77        2976.00           2512        1787.00      7791.08
  315.80        2976.25           2516        1728.00      7533.75
  315.83        2976.50           2520        1723.00      7511.95
  315.86        2976.75           2523        1706.00      7437.80
  315.89        2977.00           2527        1687.00      7354.93
  315.92        2977.25           2530        1667.00      7267.71
  315.95        2977.50           2534        1689.00      7363.66
  315.98        2977.75           2537        1660.00      7237.18
  316.01        2978.00           2541        1653.00      7206.65
  316.04        2978.25           2544        1636.00      7132.51
  316.07        2978.50           2548        1614.00      7036.56
  316.11        2978.75           2552        1618.00      7054.00
  316.14        2979.00           2555        1664.00      7254.62
  316.17        2979.25           2559        1591.00      6936.25
  316.20        2979.50           2562        1607.00      7006.03
  316.23        2979.75           2566        1610.00      7019.11
  316.26        2980.00           2569        1572.00      6853.38
  316.29        2980.25           2573        1566.00      6827.22
  316.32        2980.50           2577        1569.00      6840.30
  316.35        2980.75           2580        1564.00      6818.49
  316.38        2981.00           2584        1574.00      6862.11
  316.41        2981.25           2587        1551.00      6761.80
  316.44        2981.50           2591        1493.00      6508.85
  316.47        2981.75           2594        1504.00      6556.82
  316.50        2982.00           2598        1505.00      6561.19
  316.53        2982.25           2601        1559.00      6796.69
  316.56        2982.50           2605        1539.00      6709.47
  316.59        2982.75           2609        1523.00      6639.69
  316.63        2983.00           2612        1517.00      6613.52
  316.66        2983.25           2616        1464.00      6382.38
  316.69        2983.50           2619        1483.00      6465.24
  316.72        2983.75           2623        1492.00      6504.49
  316.75        2984.00           2626        1514.00      6600.44
HS scan finished at 05:16:58
end
************************************************************
  HS Scan of (1) Internal mercury lamp
************************************************************
Integration time is 0.2294 seconds per sample
dh141218Reading 51.44 .94 2.66pr1000
************************************************************
Dead Time -------------------------  3.4E-08 
Number of Cycles Used -------------  4 
Starting Wavelength (Angstroms) ---  2950 
Final Wavelength (Angstoms) -------  2984 
Wavelength Increment (Angstroms) --  .25 
Filter Wheel #1 Position ---------- (1) Ground quartz diffuser (ND=2.32)
Filter Wheel #2 Position ---------- (1) Neutral Density 0.494



************************************************************
HS scan start time = 16:37:22
Dark Count =  .3 


Time (GMT)  Wavelength (Ang)  Step Number  Raw Counts  Counts/Second

  998.27        2950.00           2144        1316.00      5736.52
  998.46        2950.25           2147        1367.00      5958.92
  998.49        2950.50           2151        1341.00      5845.54
  998.52        2950.75           2155        1351.00      5889.15
  998.55        2951.00           2158        1389.00      6054.86
  998.58        2951.25           2162        1327.00      5784.49
  998.61        2951.50           2165        1329.00      5793.21
  998.64        2951.75           2169        1329.00      5793.21
  998.67        2952.00           2172        1333.00      5810.65
  998.71        2952.25           2176        1333.00      5810.65
  998.74        2952.50           2179        1333.00      5810.65
  998.77        2952.75           2183        1331.00      5801.93
  998.80        2953.00           2186        1368.00      5963.28
  998.83        2953.25           2190        1359.00      5924.04
  998.86        2953.50           2193        1374.00      5989.45
  998.89        2953.75           2197        1388.00      6050.50
  998.92        2954.00           2200        1330.00      5797.57
  998.95        2954.25           2204        1408.00      6137.72
  998.98        2954.50           2208        1383.00      6028.70
  999.01        2954.75           2211        1393.00      6072.31
  999.04        2955.00           2215        1387.00      6046.14
  999.07        2955.25           2218        1379.00      6011.25
  999.10        2955.50           2222        1417.00      6176.97
  999.13        2955.75           2225        1410.00      6146.45
  999.16        2956.00           2229        1403.00      6115.92
  999.19        2956.25           2232        1391.00      6063.59
  999.23        2956.50           2236        1423.00      6203.14
  999.26        2956.75           2239        1466.00      6390.67
  999.29        2957.00           2243        1414.00      6163.89
  999.32        2957.25           2246        1456.00      6347.05
  999.35        2957.50           2250        1495.00      6517.14
  999.38        2957.75           2254        1466.00      6390.67
  999.41        2958.00           2257        1484.00      6469.16
  999.44        2958.25           2261        1464.00      6381.94
  999.47        2958.50           2264        1495.00      6517.14
  999.50        2958.75           2268        1533.00      6682.86
  999.53        2959.00           2271        1536.00      6695.95
  999.56        2959.25           2275        1562.00      6809.34
  999.59        2959.50           2278        1540.00      6713.39
  999.62        2959.75           2282        1579.00      6883.48
  999.65        2960.00           2285        1595.00      6953.26
  999.68        2960.25           2289        1614.00      7036.12
  999.71        2960.50           2293        1663.00      7249.83
  999.75        2960.75           2296        1627.00      7092.82
  999.78        2961.00           2300        1716.00      7480.98
  999.81        2961.25           2303        1911.00      8331.48
  999.84        2961.50           2307        3942.00     17192.70
  999.87        2961.75           2310        9216.00     40228.05
  999.90        2962.00           2314       21124.00     92372.04
  999.93        2962.25           2317       31987.00    140102.10
  999.96        2962.50           2321       47760.00    209683.60
  999.99        2962.75           2324       60201.00    264800.10
 1000.02        2963.00           2328       78624.00    346801.50
 1000.05        2963.25           2331       92526.00    408985.70
 1000.08        2963.50           2335      110188.00    488372.40
 1000.11        2963.75           2339      126125.00    560378.30
 1000.14        2964.00           2342      138438.00    616255.30
 1000.17        2964.25           2346      155056.00    692010.30
 1000.20        2964.50           2349      169116.00    756414.30
 1000.23        2964.75           2353      187074.00    839091.60
 1000.27        2965.00           2356      198038.00    889801.90
 1000.30        2965.25           2360      214725.00    967324.40
 1000.33        2965.50           2363      225773.00   1018879.00
 1000.36        2965.75           2367      241134.00   1090868.00
 1000.39        2966.00           2370      252456.00   1144159.00
 1000.42        2966.25           2374      268392.00   1219503.00
 1000.45        2966.50           2378      282170.00   1284963.00
 1000.48        2966.75           2381      286914.00   1307572.00
 1000.51        2967.00           2385      288769.00   1316422.00
 1000.54        2967.25           2388      288830.00   1316713.00
 1000.57        2967.50           2392      289515.00   1319982.00
 1000.60        2967.75           2395      288896.00   1317028.00
 1000.63        2968.00           2399      287046.00   1308201.00
 1000.66        2968.25           2402      282296.00   1285563.00
 1000.69        2968.50           2406      269308.00   1223846.00
 1000.72        2968.75           2409      257991.00   1170284.00
 1000.75        2969.00           2413      241772.00   1093866.00
 1000.79        2969.25           2417      226664.00   1023045.00
 1000.82        2969.50           2420      215459.00    970743.80
 1000.85        2969.75           2424      199927.00    898556.80
 1000.88        2970.00           2427      185901.00    833676.80
 1000.91        2970.25           2431      166823.00    745891.40
 1000.94        2970.50           2434      153631.00    685498.80
 1000.97        2970.75           2438      137054.00    609963.90
 1001.00        2971.00           2441      123118.00    546765.00
 1001.03        2971.25           2445      104793.00    464077.20
 1001.06        2971.50           2449       86411.00    381600.40
 1001.09        2971.75           2452       72744.00    320579.50
 1001.12        2972.00           2456       55145.00    242375.80
 1001.15        2972.25           2459       42753.00    187559.80
 1001.18        2972.50           2463       26415.00    115600.40
 1001.21        2972.75           2466       15789.00     68987.70
 1001.24        2973.00           2470        5734.00     25015.60
 1001.27        2973.25           2473        2950.00     12863.95
 1001.30        2973.50           2477        1815.00      7912.76
 1001.34        2973.75           2481        1710.00      7454.81
 1001.37        2974.00           2484        1659.00      7232.38
 1001.40        2974.25           2488        1594.00      6948.90
 1001.43        2974.50           2491        1572.00      6852.95
 1001.46        2974.75           2495        1607.00      7005.59
 1001.49        2975.00           2498        1560.00      6800.61
 1001.52        2975.25           2502        1520.00      6626.17
 1001.55        2975.50           2505        1516.00      6608.72
 1001.58        2975.75           2509        1500.00      6538.94
 1001.61        2976.00           2512        1498.00      6530.22
 1001.64        2976.25           2516        1477.00      6438.64
 1001.67        2976.50           2520        1486.00      6477.89
 1001.70        2976.75           2523        1448.00      6312.17
 1001.73        2977.00           2527        1447.00      6307.80
 1001.76        2977.25           2530        1441.00      6281.64
 1001.79        2977.50           2534        1427.00      6220.58
 1001.82        2977.75           2537        1363.00      5941.48
 1001.86        2978.00           2541        1368.00      5963.28
 1001.89        2978.25           2544        1380.00      6015.62
 1001.92        2978.50           2548        1405.00      6124.64
 1001.95        2978.75           2552        1368.00      5963.28
 1001.98        2979.00           2555        1347.00      5871.70
 1002.01        2979.25           2559        1352.00      5893.51
 1002.04        2979.50           2562        1325.00      5775.76
 1002.07        2979.75           2566        1308.00      5701.63
 1002.10        2980.00           2569        1343.00      5854.26
 1002.13        2980.25           2573        1293.00      5636.22
 1002.16        2980.50           2577        1283.00      5592.61
 1002.19        2980.75           2580        1312.00      5719.07
 1002.22        2981.00           2584        1310.00      5710.35
 1002.25        2981.25           2587        1305.00      5688.55
 1002.28        2981.50           2591        1270.00      5535.92
 1002.31        2981.75           2594        1295.00      5644.94
 1002.34        2982.00           2598        1298.00      5658.02
 1002.38        2982.25           2601        1304.00      5684.18
 1002.41        2982.50           2605        1288.00      5614.41
 1002.44        2982.75           2609        1300.00      5666.74
 1002.47        2983.00           2612        1262.00      5501.03
 1002.50        2983.25           2616        1248.00      5439.98
 1002.53        2983.50           2619        1266.00      5518.47
 1002.56        2983.75           2623        1231.00      5365.84
 1002.59        2984.00           2626        1248.00      5439.98
HS scan finished at 16:42:49
end
