************************************************************
  HS Scan of (1) Internal mercury lamp
************************************************************
Integration time is 0.2294 seconds per sample
dh061217Reading 51.44 .94 2.94pr1000
************************************************************
Dead Time -------------------------  3.4E-08 
Number of Cycles Used -------------  4 
Starting Wavelength (Angstroms) ---  2950 
Final Wavelength (Angstoms) -------  2984 
Wavelength Increment (Angstroms) --  .25 
Filter Wheel #1 Position ---------- (1) Ground quartz diffuser (ND=2.32)
Filter Wheel #2 Position ---------- (1) Neutral Density 0.494



************************************************************
HS scan start time = 05:01:48
Dark Count =  1 


Time (GMT)  Wavelength (Ang)  Step Number  Raw Counts  Counts/Second

  302.70        2950.00           2144          75.00       322.58
  302.89        2950.25           2147          84.00       361.82
  302.92        2950.50           2151          80.00       344.38
  302.95        2950.75           2155          84.00       361.82
  302.98        2951.00           2158          89.00       383.61
  303.01        2951.25           2162          88.00       379.26
  303.04        2951.50           2165          87.00       374.90
  303.07        2951.75           2169          85.00       366.18
  303.10        2952.00           2172          79.00       340.02
  303.13        2952.25           2176          82.00       353.10
  303.16        2952.50           2179          88.00       379.26
  303.19        2952.75           2183          89.00       383.61
  303.22        2953.00           2186          88.00       379.26
  303.26        2953.25           2190          95.00       409.77
  303.29        2953.50           2193          84.00       361.82
  303.32        2953.75           2197          89.00       383.61
  303.35        2954.00           2200          90.00       387.97
  303.38        2954.25           2204          86.00       370.54
  303.41        2954.50           2208         106.00       457.72
  303.44        2954.75           2211          93.00       401.05
  303.47        2955.00           2215          88.00       379.26
  303.50        2955.25           2218          89.00       383.61
  303.53        2955.50           2222          98.00       422.85
  303.56        2955.75           2225          91.00       392.33
  303.59        2956.00           2229          91.00       392.33
  303.62        2956.25           2232          98.00       422.85
  303.65        2956.50           2236          90.00       387.97
  303.68        2956.75           2239          90.00       387.97
  303.71        2957.00           2243          97.00       418.49
  303.74        2957.25           2246          90.00       387.97
  303.78        2957.50           2250         106.00       457.72
  303.81        2957.75           2254         122.00       527.47
  303.84        2958.00           2257         101.00       435.93
  303.87        2958.25           2261          95.00       409.77
  303.90        2958.50           2264         100.00       431.57
  303.93        2958.75           2268         121.00       523.11
  303.96        2959.00           2271         115.00       496.96
  303.99        2959.25           2275         105.00       453.36
  304.02        2959.50           2278         121.00       523.11
  304.05        2959.75           2282         123.00       531.83
  304.08        2960.00           2285         121.00       523.11
  304.11        2960.25           2289         118.00       510.03
  304.14        2960.50           2293         118.00       510.03
  304.17        2960.75           2296         140.00       605.94
  304.20        2961.00           2300         162.00       701.85
  304.23        2961.25           2303         314.00      1364.49
  304.26        2961.50           2307        1108.00      4826.42
  304.30        2961.75           2310        2120.00      9240.04
  304.33        2962.00           2314        3330.00     14518.94
  304.36        2962.25           2317        4267.00     18608.11
  304.39        2962.50           2321        5771.00     25174.11
  304.42        2962.75           2324        7017.00     30615.99
  304.45        2963.00           2328        8597.00     37519.50
  304.48        2963.25           2331        9976.00     43547.43
  304.51        2963.50           2335       11417.00     49849.03
  304.54        2963.75           2339       13217.00     57724.34
  304.57        2964.00           2342       14225.00     62136.37
  304.60        2964.25           2346       15825.00     69142.30
  304.63        2964.50           2349       17140.00     74902.81
  304.66        2964.75           2353       18955.00     82857.33
  304.69        2965.00           2356       20239.00     88487.28
  304.72        2965.25           2360       21851.00     95558.44
  304.75        2965.50           2363       23092.00    101004.50
  304.78        2965.75           2367       24566.00    107475.70
  304.82        2966.00           2370       25620.00    112104.80
  304.85        2966.25           2374       26648.00    116621.10
  304.88        2966.50           2378       27380.00    119837.80
  304.91        2966.75           2381       27670.00    121112.40
  304.94        2967.00           2385       27602.00    120813.50
  304.97        2967.25           2388       27433.00    120070.70
  305.00        2967.50           2392       27393.00    119894.90
  305.03        2967.75           2395       27141.00    118787.40
  305.06        2968.00           2399       26365.00    115377.60
  305.09        2968.25           2402       25336.00    110857.30
  305.13        2968.50           2406       23892.00    104516.30
  305.16        2968.75           2409       22908.00    100196.90
  305.19        2969.00           2413       21072.00     92140.87
  305.22        2969.25           2417       19697.00     86110.51
  305.25        2969.50           2420       18653.00     81533.47
  305.28        2969.75           2424       17160.00     74990.44
  305.31        2970.00           2427       15662.00     68428.41
  305.34        2970.25           2431       13899.00     60709.32
  305.37        2970.50           2434       12672.00     55339.42
  305.40        2970.75           2438       11076.00     48357.57
  305.43        2971.00           2441        9923.00     43315.71
  305.46        2971.25           2445        8479.00     37003.81
  305.49        2971.50           2449        6909.00     30144.22
  305.53        2971.75           2452        5625.00     24536.59
  305.56        2972.00           2456        4111.00     17927.23
  305.59        2972.25           2459        2997.00     13065.96
  305.62        2972.50           2463        1575.00      6862.98
  305.65        2972.75           2466         724.00      3152.04
  305.68        2973.00           2470         257.00      1116.00
  305.71        2973.25           2473         176.00       762.88
  305.74        2973.50           2477         146.00       632.10
  305.77        2973.75           2481         120.00       518.75
  305.80        2974.00           2484         117.00       505.68
  305.83        2974.25           2488         142.00       614.66
  305.86        2974.50           2491         151.00       653.89
  305.89        2974.75           2495         114.00       492.60
  305.92        2975.00           2498         127.00       549.27
  305.95        2975.25           2502         130.00       562.35
  305.98        2975.50           2505         100.00       431.57
  306.01        2975.75           2509         114.00       492.60
  306.04        2976.00           2512         109.00       470.80
  306.08        2976.25           2516         105.00       453.36
  306.11        2976.50           2520         138.00       597.22
  306.14        2976.75           2523         107.00       462.08
  306.17        2977.00           2527         129.00       557.99
  306.20        2977.25           2530         118.00       510.03
  306.23        2977.50           2534          91.00       392.33
  306.26        2977.75           2537         111.00       479.52
  306.29        2978.00           2541          93.00       401.05
  306.32        2978.25           2544         101.00       435.93
  306.35        2978.50           2548          96.00       414.13
  306.38        2978.75           2552          93.00       401.05
  306.41        2979.00           2555          92.00       396.69
  306.44        2979.25           2559          91.00       392.33
  306.47        2979.50           2562          96.00       414.13
  306.50        2979.75           2566          89.00       383.61
  306.53        2980.00           2569          93.00       401.05
  306.57        2980.25           2573          84.00       361.82
  306.60        2980.50           2577         115.00       496.96
  306.63        2980.75           2580          94.00       405.41
  306.66        2981.00           2584          86.00       370.54
  306.69        2981.25           2587          90.00       387.97
  306.72        2981.50           2591          91.00       392.33
  306.75        2981.75           2594          89.00       383.61
  306.78        2982.00           2598          86.00       370.54
  306.81        2982.25           2601          89.00       383.61
  306.85        2982.50           2605          84.00       361.82
  306.88        2982.75           2609          79.00       340.02
  306.91        2983.00           2612          89.00       383.61
  306.94        2983.25           2616          79.00       340.02
  306.97        2983.50           2619         111.00       479.52
  307.00        2983.75           2623          81.00       348.74
  307.03        2984.00           2626          80.00       344.38
HS scan finished at 05:07:15
end
************************************************************
  HS Scan of (1) Internal mercury lamp
************************************************************
Integration time is 0.2294 seconds per sample
dh061217Reading 51.44 .94 3.13pr1000
************************************************************
Dead Time -------------------------  3.4E-08 
Number of Cycles Used -------------  4 
Starting Wavelength (Angstroms) ---  2950 
Final Wavelength (Angstoms) -------  2984 
Wavelength Increment (Angstroms) --  .25 
Filter Wheel #1 Position ---------- (1) Ground quartz diffuser (ND=2.32)
Filter Wheel #2 Position ---------- (1) Neutral Density 0.494



************************************************************
HS scan start time = 16:37:23
Dark Count =  1.3 


Time (GMT)  Wavelength (Ang)  Step Number  Raw Counts  Counts/Second

  998.29        2950.00           2144          80.00       343.07
  998.48        2950.25           2147          82.00       351.79
  998.51        2950.50           2151          81.00       347.43
  998.54        2950.75           2155          80.00       343.07
  998.57        2951.00           2158          81.00       347.43
  998.60        2951.25           2162          85.00       364.87
  998.64        2951.50           2165          86.00       369.23
  998.67        2951.75           2169          84.00       360.51
  998.70        2952.00           2172          87.00       373.59
  998.73        2952.25           2176          84.00       360.51
  998.76        2952.50           2179          86.00       369.23
  998.79        2952.75           2183          83.00       356.15
  998.82        2953.00           2186          79.00       338.71
  998.85        2953.25           2190          84.00       360.51
  998.88        2953.50           2193          94.00       404.10
  998.91        2953.75           2197          87.00       373.59
  998.94        2954.00           2200          96.00       412.82
  998.97        2954.25           2204          88.00       377.95
  999.00        2954.50           2208          80.00       343.07
  999.03        2954.75           2211          97.00       417.18
  999.06        2955.00           2215          87.00       373.59
  999.09        2955.25           2218          86.00       369.23
  999.12        2955.50           2222          93.00       399.74
  999.16        2955.75           2225          81.00       347.43
  999.19        2956.00           2229          89.00       382.31
  999.22        2956.25           2232          96.00       412.82
  999.25        2956.50           2236          87.00       373.59
  999.28        2956.75           2239          91.00       391.03
  999.31        2957.00           2243          92.00       395.38
  999.34        2957.25           2246          87.00       373.59
  999.37        2957.50           2250          96.00       412.82
  999.40        2957.75           2254         102.00       438.98
  999.43        2958.00           2257          97.00       417.18
  999.46        2958.25           2261          95.00       408.46
  999.49        2958.50           2264          90.00       386.67
  999.52        2958.75           2268         101.00       434.62
  999.55        2959.00           2271         115.00       495.65
  999.58        2959.25           2275         113.00       486.93
  999.61        2959.50           2278          98.00       421.54
  999.64        2959.75           2282         102.00       438.98
  999.68        2960.00           2285         112.00       482.57
  999.71        2960.25           2289         106.00       456.42
  999.74        2960.50           2293         110.00       473.85
  999.77        2960.75           2296         126.00       543.60
  999.80        2961.00           2300         154.00       665.66
  999.83        2961.25           2303         192.00       831.32
  999.86        2961.50           2307         622.00      2706.00
  999.89        2961.75           2310        1395.00      6076.67
  999.92        2962.00           2314        2745.00     11965.20
  999.95        2962.25           2317        3970.00     17310.54
  999.98        2962.50           2321        5375.00     23443.70
 1000.01        2962.75           2324        6392.00     27884.76
 1000.04        2963.00           2328        7769.00     33899.99
 1000.07        2963.25           2331        9063.00     39554.91
 1000.10        2963.50           2335       10729.00     46838.71
 1000.13        2963.75           2339       12192.00     53237.96
 1000.16        2964.00           2342       13321.00     58178.18
 1000.20        2964.25           2346       14835.00     64805.67
 1000.23        2964.50           2349       16064.00     70187.78
 1000.26        2964.75           2353       17601.00     76921.49
 1000.29        2965.00           2356       18624.00     81405.03
 1000.32        2965.25           2360       19938.00     87165.97
 1000.35        2965.50           2363       21202.00     92709.82
 1000.38        2965.75           2367       22714.00     99344.14
 1000.41        2966.00           2370       23731.00    103808.20
 1000.44        2966.25           2374       25086.00    109758.00
 1000.47        2966.50           2378       25619.00    112099.10
 1000.50        2966.75           2381       25881.00    113250.00
 1000.53        2967.00           2385       26037.00    113935.30
 1000.56        2967.25           2388       26267.00    114945.70
 1000.59        2967.50           2392       26303.00    115103.90
 1000.62        2967.75           2395       26043.00    113961.60
 1000.65        2968.00           2399       25090.00    109775.60
 1000.68        2968.25           2402       24269.00    106170.30
 1000.71        2968.50           2406       22870.00    100028.80
 1000.75        2968.75           2409       21645.00     94653.30
 1000.78        2969.00           2413       20427.00     89310.44
 1000.81        2969.25           2417       19046.00     83254.96
 1000.84        2969.50           2420       17652.00     77144.98
 1000.87        2969.75           2424       16434.00     71808.50
 1000.90        2970.00           2427       15138.00     66132.41
 1000.93        2970.25           2431       13667.00     59692.52
 1000.96        2970.50           2434       12528.00     54708.04
 1000.99        2970.75           2438       11002.00     48032.61
 1001.02        2971.00           2441        9857.00     43025.85
 1001.05        2971.25           2445        8315.00     36285.81
 1001.08        2971.50           2449        6732.00     29369.77
 1001.11        2971.75           2452        5859.00     25557.07
 1001.14        2972.00           2456        4435.00     19340.09
 1001.17        2972.25           2459        3281.00     14303.82
 1001.20        2972.50           2463        1763.00      7681.61
 1001.23        2972.75           2466         844.00      3673.96
 1001.27        2973.00           2470         307.00      1332.67
 1001.30        2973.25           2473         146.00       630.79
 1001.33        2973.50           2477         179.00       774.65
 1001.36        2973.75           2481         124.00       534.88
 1001.39        2974.00           2484         111.00       478.21
 1001.42        2974.25           2488         127.00       547.96
 1001.45        2974.50           2491         107.00       460.77
 1001.48        2974.75           2495         104.00       447.70
 1001.51        2975.00           2498         111.00       478.21
 1001.54        2975.25           2502         110.00       473.85
 1001.57        2975.50           2505          99.00       425.90
 1001.60        2975.75           2509         105.00       452.06
 1001.63        2976.00           2512         120.00       517.45
 1001.66        2976.25           2516         114.00       491.29
 1001.69        2976.50           2520          89.00       382.31
 1001.72        2976.75           2523         103.00       443.34
 1001.75        2977.00           2527          88.00       377.95
 1001.79        2977.25           2530         121.00       521.81
 1001.82        2977.50           2534         106.00       456.42
 1001.85        2977.75           2537          86.00       369.23
 1001.88        2978.00           2541          93.00       399.74
 1001.91        2978.25           2544          93.00       399.74
 1001.94        2978.50           2548          90.00       386.67
 1001.97        2978.75           2552          95.00       408.46
 1002.00        2979.00           2555          86.00       369.23
 1002.03        2979.25           2559          92.00       395.38
 1002.06        2979.50           2562          87.00       373.59
 1002.09        2979.75           2566          87.00       373.59
 1002.12        2980.00           2569          79.00       338.71
 1002.15        2980.25           2573          81.00       347.43
 1002.18        2980.50           2577          84.00       360.51
 1002.21        2980.75           2580          86.00       369.23
 1002.24        2981.00           2584          87.00       373.59
 1002.27        2981.25           2587          83.00       356.15
 1002.31        2981.50           2591          78.00       334.35
 1002.34        2981.75           2594          80.00       343.07
 1002.37        2982.00           2598          78.00       334.35
 1002.40        2982.25           2601          79.00       338.71
 1002.43        2982.50           2605          86.00       369.23
 1002.46        2982.75           2609          75.00       321.28
 1002.49        2983.00           2612          72.00       308.20
 1002.52        2983.25           2616          77.00       329.99
 1002.55        2983.50           2619          83.00       356.15
 1002.58        2983.75           2623          84.00       360.51
 1002.61        2984.00           2626          80.00       343.07
HS scan finished at 16:42:50
end
