************************************************************
  HS Scan of (1) Internal mercury lamp
************************************************************
Integration time is 0.2294 seconds per sample
dh141217Reading 51.44 .94 2.52pr1000
************************************************************
Dead Time -------------------------  3.4E-08 
Number of Cycles Used -------------  4 
Starting Wavelength (Angstroms) ---  2950 
Final Wavelength (Angstoms) -------  2984 
Wavelength Increment (Angstroms) --  .25 
Filter Wheel #1 Position ---------- (1) Ground quartz diffuser (ND=2.32)
Filter Wheel #2 Position ---------- (1) Neutral Density 0.494



************************************************************
HS scan start time = 05:11:45
Dark Count =  .3 


Time (GMT)  Wavelength (Ang)  Step Number  Raw Counts  Counts/Second

  312.65        2950.00           2144          81.00       351.79
  312.85        2950.25           2147          87.00       377.95
  312.88        2950.50           2151          86.00       373.59
  312.91        2950.75           2155          86.00       373.59
  312.94        2951.00           2158          90.00       391.03
  312.97        2951.25           2162          87.00       377.95
  313.00        2951.50           2165          88.00       382.31
  313.03        2951.75           2169          84.00       364.87
  313.06        2952.00           2172         113.00       491.29
  313.09        2952.25           2176          90.00       391.03
  313.12        2952.50           2179          83.00       360.51
  313.15        2952.75           2183          85.00       369.23
  313.18        2953.00           2186          96.00       417.18
  313.21        2953.25           2190          91.00       395.38
  313.24        2953.50           2193          91.00       395.38
  313.27        2953.75           2197          88.00       382.31
  313.31        2954.00           2200          91.00       395.38
  313.34        2954.25           2204          97.00       421.54
  313.37        2954.50           2208          95.00       412.82
  313.40        2954.75           2211          95.00       412.82
  313.43        2955.00           2215          92.00       399.74
  313.46        2955.25           2218          92.00       399.74
  313.49        2955.50           2222          97.00       421.54
  313.52        2955.75           2225         110.00       478.21
  313.55        2956.00           2229         101.00       438.98
  313.58        2956.25           2232          91.00       395.38
  313.61        2956.50           2236         100.00       434.62
  313.64        2956.75           2239          94.00       408.46
  313.67        2957.00           2243         103.00       447.70
  313.70        2957.25           2246          92.00       399.74
  313.73        2957.50           2250         100.00       434.62
  313.76        2957.75           2254         103.00       447.70
  313.79        2958.00           2257         123.00       534.88
  313.83        2958.25           2261          99.00       430.26
  313.86        2958.50           2264         100.00       434.62
  313.89        2958.75           2268         112.00       486.93
  313.92        2959.00           2271         180.00       783.37
  313.95        2959.25           2275         109.00       473.85
  313.98        2959.50           2278         124.00       539.24
  314.01        2959.75           2282         127.00       552.32
  314.04        2960.00           2285         126.00       547.96
  314.07        2960.25           2289         129.00       561.04
  314.10        2960.50           2293         108.00       469.49
  314.13        2960.75           2296         123.00       534.88
  314.16        2961.00           2300         152.00       661.31
  314.19        2961.25           2303         373.00      1624.76
  314.22        2961.50           2307        1265.00      5514.11
  314.25        2961.75           2310        2122.00      9251.82
  314.28        2962.00           2314        3326.00     14504.54
  314.31        2962.25           2317        4236.00     18475.86
  314.35        2962.50           2321        5420.00     23644.55
  314.38        2962.75           2324        6479.00     28269.10
  314.41        2963.00           2328        8042.00     35097.22
  314.44        2963.25           2331        9025.00     39393.18
  314.47        2963.50           2335       10193.00     44499.28
  314.50        2963.75           2339       12074.00     52726.09
  314.53        2964.00           2342       13210.00     57696.77
  314.56        2964.25           2346       14795.00     64634.92
  314.59        2964.50           2349       15879.00     69381.88
  314.62        2964.75           2353       17570.00     76790.03
  314.65        2965.00           2356       18465.00     80712.47
  314.68        2965.25           2360       19803.00     86578.38
  314.71        2965.50           2363       20916.00     91459.63
  314.74        2965.75           2367       22043.00     96403.96
  314.77        2966.00           2370       23111.00    101091.00
  314.80        2966.25           2374       23947.00    104760.90
  314.83        2966.50           2378       24467.00    107044.10
  314.87        2966.75           2381       24520.00    107276.80
  314.90        2967.00           2385       24601.00    107632.50
  314.93        2967.25           2388       24429.00    106877.20
  314.96        2967.50           2392       24354.00    106547.90
  314.99        2967.75           2395       23872.00    104431.60
  315.02        2968.00           2399       22954.00    100401.90
  315.05        2968.25           2402       21709.00     94938.47
  315.08        2968.50           2406       20612.00     90126.24
  315.11        2968.75           2409       19492.00     85214.72
  315.14        2969.00           2413       18402.00     80436.33
  315.17        2969.25           2417       16922.00     73950.75
  315.20        2969.50           2420       16050.00     70130.85
  315.23        2969.75           2424       14383.00     62831.12
  315.26        2970.00           2427       13500.00     58965.97
  315.29        2970.25           2431       12081.00     52756.71
  315.32        2970.50           2434       11022.00     48124.46
  315.35        2970.75           2438        9504.00     41486.99
  315.38        2971.00           2441        8366.00     36513.04
  315.42        2971.25           2445        6963.00     30383.16
  315.45        2971.50           2449        5718.00     24945.74
  315.48        2971.75           2452        4721.00     20592.88
  315.51        2972.00           2456        3284.00     14321.27
  315.54        2972.25           2459        2214.00      9653.12
  315.57        2972.50           2463        1100.00      4794.59
  315.60        2972.75           2466         549.00      2392.09
  315.63        2973.00           2470         199.00       866.20
  315.66        2973.25           2473         137.00       595.91
  315.69        2973.50           2477         152.00       661.31
  315.72        2973.75           2481         148.00       643.87
  315.75        2974.00           2484         124.00       539.24
  315.78        2974.25           2488         146.00       635.15
  315.81        2974.50           2491         138.00       600.27
  315.84        2974.75           2495         106.00       460.77
  315.87        2975.00           2498         117.00       508.73
  315.90        2975.25           2502         127.00       552.32
  315.94        2975.50           2505         103.00       447.70
  315.97        2975.75           2509         109.00       473.85
  316.00        2976.00           2512          93.00       404.10
  316.03        2976.25           2516         102.00       443.34
  316.06        2976.50           2520         108.00       469.49
  316.09        2976.75           2523          99.00       430.26
  316.12        2977.00           2527         101.00       438.98
  316.15        2977.25           2530         102.00       443.34
  316.18        2977.50           2534          90.00       391.03
  316.21        2977.75           2537          97.00       421.54
  316.24        2978.00           2541          91.00       395.38
  316.27        2978.25           2544          97.00       421.54
  316.30        2978.50           2548          88.00       382.31
  316.33        2978.75           2552          94.00       408.46
  316.36        2979.00           2555          87.00       377.95
  316.39        2979.25           2559          98.00       425.90
  316.43        2979.50           2562          90.00       391.03
  316.46        2979.75           2566         100.00       434.62
  316.49        2980.00           2569          89.00       386.67
  316.52        2980.25           2573          96.00       417.18
  316.55        2980.50           2577          88.00       382.31
  316.58        2980.75           2580          84.00       364.87
  316.61        2981.00           2584          85.00       369.23
  316.64        2981.25           2587          92.00       399.74
  316.67        2981.50           2591          83.00       360.51
  316.70        2981.75           2594         108.00       469.49
  316.73        2982.00           2598          87.00       377.95
  316.76        2982.25           2601          90.00       391.03
  316.79        2982.50           2605          81.00       351.79
  316.82        2982.75           2609          82.00       356.15
  316.85        2983.00           2612          80.00       347.43
  316.88        2983.25           2616          89.00       386.67
  316.91        2983.50           2619          86.00       373.59
  316.94        2983.75           2623          87.00       377.95
  316.98        2984.00           2626          84.00       364.87
HS scan finished at 05:17:12
end
************************************************************
  HS Scan of (1) Internal mercury lamp
************************************************************
Integration time is 0.2294 seconds per sample
dh141217Reading 51.44 .94 2.74pr1000
************************************************************
Dead Time -------------------------  3.4E-08 
Number of Cycles Used -------------  4 
Starting Wavelength (Angstroms) ---  2950 
Final Wavelength (Angstoms) -------  2984 
Wavelength Increment (Angstroms) --  .25 
Filter Wheel #1 Position ---------- (1) Ground quartz diffuser (ND=2.32)
Filter Wheel #2 Position ---------- (1) Neutral Density 0.494



************************************************************
HS scan start time = 16:37:23
Dark Count =  .6 


Time (GMT)  Wavelength (Ang)  Step Number  Raw Counts  Counts/Second

  998.27        2950.00           2144          88.00       381.00
  998.47        2950.25           2147          80.00       346.12
  998.50        2950.50           2151          87.00       376.64
  998.53        2950.75           2155          85.00       367.92
  998.56        2951.00           2158          87.00       376.64
  998.59        2951.25           2162          87.00       376.64
  998.62        2951.50           2165          86.00       372.28
  998.65        2951.75           2169          84.00       363.56
  998.68        2952.00           2172          82.00       354.84
  998.71        2952.25           2176          86.00       372.28
  998.74        2952.50           2179          92.00       398.44
  998.77        2952.75           2183          87.00       376.64
  998.80        2953.00           2186          90.00       389.72
  998.83        2953.25           2190          93.00       402.80
  998.86        2953.50           2193          84.00       363.56
  998.90        2953.75           2197          88.00       381.00
  998.93        2954.00           2200          90.00       389.72
  998.96        2954.25           2204          89.00       385.36
  998.99        2954.50           2208          85.00       367.92
  999.02        2954.75           2211          91.00       394.08
  999.05        2955.00           2215          96.00       415.87
  999.08        2955.25           2218          90.00       389.72
  999.11        2955.50           2222          91.00       394.08
  999.14        2955.75           2225          92.00       398.44
  999.17        2956.00           2229          84.00       363.56
  999.20        2956.25           2232          94.00       407.15
  999.23        2956.50           2236          90.00       389.72
  999.26        2956.75           2239          96.00       415.87
  999.29        2957.00           2243          82.00       354.84
  999.32        2957.25           2246          93.00       402.80
  999.35        2957.50           2250         100.00       433.31
  999.38        2957.75           2254          97.00       420.23
  999.42        2958.00           2257          91.00       394.08
  999.45        2958.25           2261          99.00       428.95
  999.48        2958.50           2264         115.00       498.70
  999.51        2958.75           2268          96.00       415.87
  999.54        2959.00           2271         124.00       537.93
  999.57        2959.25           2275          93.00       402.80
  999.61        2959.50           2278         110.00       476.90
  999.64        2959.75           2282         107.00       463.83
  999.67        2960.00           2285         105.00       455.11
  999.70        2960.25           2289         102.00       442.03
  999.73        2960.50           2293         145.00       629.48
  999.76        2960.75           2296         155.00       673.08
  999.79        2961.00           2300         122.00       529.22
  999.82        2961.25           2303         249.00      1082.86
  999.85        2961.50           2307         838.00      3650.85
  999.88        2961.75           2310        1592.00      6938.86
  999.91        2962.00           2314        2785.00     12142.76
  999.94        2962.25           2317        3800.00     16571.67
  999.97        2962.50           2321        5062.00     22080.22
 1000.00        2962.75           2324        6181.00     26966.30
 1000.03        2963.00           2328        7573.00     33046.70
 1000.06        2963.25           2331        8446.00     36861.34
 1000.09        2963.50           2335        9856.00     43024.53
 1000.13        2963.75           2339       11404.00     49793.91
 1000.16        2964.00           2342       12526.00     54702.35
 1000.19        2964.25           2346       13827.00     60395.91
 1000.22        2964.50           2349       14963.00     65369.19
 1000.25        2964.75           2353       16375.00     71553.12
 1000.28        2965.00           2356       17381.00     75960.54
 1000.31        2965.25           2360       18818.00     82258.51
 1000.34        2965.50           2363       19567.00     85542.24
 1000.37        2965.75           2367       20799.00     90945.12
 1000.40        2966.00           2370       21685.00     94831.87
 1000.43        2966.25           2374       23068.00    100900.90
 1000.46        2966.50           2378       23392.00    102323.10
 1000.49        2966.75           2381       23484.00    102727.00
 1000.52        2967.00           2385       23322.00    102015.80
 1000.55        2967.25           2388       24371.00    106621.20
 1000.58        2967.50           2392       24388.00    106695.90
 1000.61        2967.75           2395       24391.00    106709.00
 1000.64        2968.00           2399       23464.00    102639.20
 1000.68        2968.25           2402       22370.00     97837.56
 1000.71        2968.50           2406       21124.00     92370.74
 1000.74        2968.75           2409       20119.00     87962.78
 1000.77        2969.00           2413       18843.00     82368.10
 1000.80        2969.25           2417       17366.00     75894.81
 1000.83        2969.50           2420       16157.00     70598.21
 1000.86        2969.75           2424       14687.00     64160.74
 1000.89        2970.00           2427       13623.00     59503.00
 1000.92        2970.25           2431       12090.00     52794.77
 1000.95        2970.50           2434       10974.00     47913.22
 1000.98        2970.75           2438        9680.00     42255.08
 1001.01        2971.00           2441        8540.00     37272.14
 1001.04        2971.25           2445        7059.00     30801.20
 1001.07        2971.50           2449        5669.00     24730.46
 1001.10        2971.75           2452        4516.00     19696.71
 1001.13        2972.00           2456        3355.00     14629.77
 1001.16        2972.25           2459        2528.00     11021.57
 1001.20        2972.50           2463        1453.00      6332.66
 1001.23        2972.75           2466         700.00      3049.14
 1001.26        2973.00           2470         216.00       939.00
 1001.29        2973.25           2473         120.00       520.50
 1001.32        2973.50           2477         122.00       529.22
 1001.35        2973.75           2481         122.00       529.22
 1001.38        2974.00           2484         150.00       651.28
 1001.41        2974.25           2488         123.00       533.58
 1001.44        2974.50           2491         153.00       664.36
 1001.47        2974.75           2495         107.00       463.83
 1001.50        2975.00           2498         120.00       520.50
 1001.53        2975.25           2502          99.00       428.95
 1001.56        2975.50           2505         100.00       433.31
 1001.59        2975.75           2509         102.00       442.03
 1001.62        2976.00           2512          97.00       420.23
 1001.65        2976.25           2516         136.00       590.25
 1001.69        2976.50           2520         100.00       433.31
 1001.72        2976.75           2523          93.00       402.80
 1001.75        2977.00           2527          92.00       398.44
 1001.78        2977.25           2530         118.00       511.78
 1001.81        2977.50           2534         120.00       520.50
 1001.84        2977.75           2537          93.00       402.80
 1001.87        2978.00           2541          87.00       376.64
 1001.90        2978.25           2544         108.00       468.19
 1001.93        2978.50           2548          85.00       367.92
 1001.96        2978.75           2552          94.00       407.15
 1001.99        2979.00           2555          90.00       389.72
 1002.02        2979.25           2559          93.00       402.80
 1002.05        2979.50           2562          96.00       415.87
 1002.08        2979.75           2566          90.00       389.72
 1002.11        2980.00           2569          84.00       363.56
 1002.14        2980.25           2573          88.00       381.00
 1002.17        2980.50           2577         103.00       446.39
 1002.21        2980.75           2580          77.00       333.05
 1002.24        2981.00           2584          78.00       337.41
 1002.27        2981.25           2587          88.00       381.00
 1002.30        2981.50           2591          79.00       341.77
 1002.33        2981.75           2594          83.00       359.20
 1002.36        2982.00           2598          75.00       324.33
 1002.39        2982.25           2601          81.00       350.48
 1002.42        2982.50           2605          81.00       350.48
 1002.45        2982.75           2609          81.00       350.48
 1002.48        2983.00           2612          74.00       319.97
 1002.51        2983.25           2616          80.00       346.12
 1002.54        2983.50           2619          79.00       341.77
 1002.57        2983.75           2623          85.00       367.92
 1002.60        2984.00           2626          84.00       363.56
HS scan finished at 16:42:49
end
