************************************************************
  HS Scan of (1) Internal mercury lamp
************************************************************
Integration time is 0.2294 seconds per sample
dh091218Reading 51.44 .94 2.82pr1000
************************************************************
Dead Time -------------------------  3.4E-08 
Number of Cycles Used -------------  4 
Starting Wavelength (Angstroms) ---  2950 
Final Wavelength (Angstoms) -------  2984 
Wavelength Increment (Angstroms) --  .25 
Filter Wheel #1 Position ---------- (1) Ground quartz diffuser (ND=2.32)
Filter Wheel #2 Position ---------- (1) Neutral Density 0.494



************************************************************
HS scan start time = 05:04:22
Dark Count =  .4 


Time (GMT)  Wavelength (Ang)  Step Number  Raw Counts  Counts/Second

  305.27        2950.00           2144        1561.00      6804.54
  305.46        2950.25           2147        1620.00      7061.85
  305.49        2950.50           2151        1603.00      6987.71
  305.52        2950.75           2155        1621.00      7066.21
  305.55        2951.00           2158        1602.00      6983.35
  305.58        2951.25           2162        1593.00      6944.10
  305.61        2951.50           2165        1624.00      7079.30
  305.65        2951.75           2169        1615.00      7040.05
  305.68        2952.00           2172        1652.00      7201.41
  305.71        2952.25           2176        1616.00      7044.41
  305.74        2952.50           2179        1634.00      7122.91
  305.77        2952.75           2183        1603.00      6987.71
  305.80        2953.00           2186        1630.00      7105.47
  305.83        2953.25           2190        1671.00      7284.28
  305.86        2953.50           2193        1646.00      7175.25
  305.89        2953.75           2197        1650.00      7192.69
  305.92        2954.00           2200        1660.00      7236.30
  305.95        2954.25           2204        1646.00      7175.25
  305.98        2954.50           2208        1621.00      7066.21
  306.01        2954.75           2211        1669.00      7275.56
  306.04        2955.00           2215        1684.00      7340.98
  306.07        2955.25           2218        1672.00      7288.64
  306.10        2955.50           2222        1689.00      7362.78
  306.13        2955.75           2225        1704.00      7428.21
  306.17        2956.00           2229        1718.00      7489.26
  306.20        2956.25           2232        1717.00      7484.90
  306.23        2956.50           2236        1737.00      7572.13
  306.26        2956.75           2239        1746.00      7611.39
  306.29        2957.00           2243        1727.00      7528.52
  306.32        2957.25           2246        1766.00      7698.61
  306.35        2957.50           2250        1803.00      7859.99
  306.38        2957.75           2254        1803.00      7859.99
  306.41        2958.00           2257        1821.00      7938.50
  306.44        2958.25           2261        1848.00      8056.26
  306.47        2958.50           2264        1836.00      8003.92
  306.50        2958.75           2268        1865.00      8130.41
  306.53        2959.00           2271        1872.00      8160.94
  306.56        2959.25           2275        1911.00      8331.04
  306.59        2959.50           2278        1894.00      8256.89
  306.62        2959.75           2282        1924.00      8387.75
  306.65        2960.00           2285        1984.00      8649.45
  306.68        2960.25           2289        2001.00      8723.60
  306.72        2960.50           2293        2050.00      8937.33
  306.75        2960.75           2296        2093.00      9124.89
  306.78        2961.00           2300        2181.00      9508.74
  306.81        2961.25           2303        2616.00     11406.34
  306.84        2961.50           2307        6433.00     28067.75
  306.87        2961.75           2310       14340.00     62642.43
  306.90        2962.00           2314       31898.00    139710.00
  306.93        2962.25           2317       46514.00    204174.50
  306.96        2962.50           2321       68165.00    300191.30
  306.99        2962.75           2324       84920.00    374930.50
  307.02        2963.00           2328      108532.00    480910.20
  307.05        2963.25           2331      125734.00    558607.00
  307.08        2963.50           2335      148533.00    662226.90
  307.11        2963.75           2339      169621.00    758732.40
  307.14        2964.00           2342      186800.00    837826.10
  307.17        2964.25           2346      210086.00    945730.80
  307.20        2964.50           2349      227467.00   1026800.00
  307.24        2964.75           2353      252158.00   1142754.00
  307.27        2965.00           2356      268421.00   1219640.00
  307.30        2965.25           2360      288173.00   1313577.00
  307.33        2965.50           2363      302980.00   1384402.00
  307.36        2965.75           2367      325426.00   1492436.00
  307.39        2966.00           2370      343499.00   1580018.00
  307.42        2966.25           2374      363776.00   1678925.00
  307.45        2966.50           2378      377203.00   1744797.00
  307.48        2966.75           2381      381536.00   1766120.00
  307.51        2967.00           2385      382804.00   1772366.00
  307.54        2967.25           2388      382918.00   1772928.00
  307.57        2967.50           2392      383179.00   1774214.00
  307.60        2967.75           2395      381798.00   1767411.00
  307.63        2968.00           2399      375120.00   1734558.00
  307.66        2968.25           2402      363427.00   1677217.00
  307.69        2968.50           2406      344044.00   1582668.00
  307.72        2968.75           2409      328226.00   1505970.00
  307.76        2969.00           2413      309666.00   1416497.00
  307.79        2969.25           2417      290315.00   1323801.00
  307.82        2969.50           2420      275106.00   1251364.00
  307.85        2969.75           2424      251242.00   1138435.00
  307.88        2970.00           2427      232315.00   1049494.00
  307.91        2970.25           2431      208667.00    939132.30
  307.94        2970.50           2434      191736.00    860631.90
  307.97        2970.75           2438      169780.00    759462.50
  308.00        2971.00           2441      152617.00    680866.60
  308.03        2971.25           2445      126921.00    563983.60
  308.06        2971.50           2449      104120.00    461048.90
  308.09        2971.75           2452       87591.00    386880.50
  308.12        2972.00           2456       65578.00    288685.40
  308.15        2972.25           2459       48880.00    214636.50
  308.18        2972.50           2463       27388.00    119875.60
  308.21        2972.75           2466       14325.00     62576.77
  308.24        2973.00           2470        4888.00     21321.47
  308.28        2973.25           2473        2763.00     12047.65
  308.31        2973.50           2477        2124.00      9260.11
  308.34        2973.75           2481        2024.00      8823.92
  308.37        2974.00           2484        2015.00      8784.66
  308.40        2974.25           2488        2001.00      8723.60
  308.43        2974.50           2491        1946.00      8483.70
  308.46        2974.75           2495        1949.00      8496.79
  308.49        2975.00           2498        1897.00      8269.98
  308.52        2975.25           2502        1889.00      8235.09
  308.55        2975.50           2505        1813.00      7903.61
  308.58        2975.75           2509        1868.00      8143.49
  308.61        2976.00           2512        1827.00      7964.67
  308.64        2976.25           2516        1816.00      7916.69
  308.67        2976.50           2520        1804.00      7864.35
  308.70        2976.75           2523        1786.00      7785.84
  308.73        2977.00           2527        1766.00      7698.61
  308.76        2977.25           2530        1676.00      7306.09
  308.80        2977.50           2534        1739.00      7580.85
  308.83        2977.75           2537        1699.00      7406.40
  308.86        2978.00           2541        1681.00      7327.89
  308.89        2978.25           2544        1700.00      7410.76
  308.92        2978.50           2548        1679.00      7319.17
  308.95        2978.75           2552        1629.00      7101.10
  308.98        2979.00           2555        1640.00      7149.08
  309.01        2979.25           2559        1671.00      7284.28
  309.04        2979.50           2562        1648.00      7183.97
  309.07        2979.75           2566        1615.00      7040.05
  309.10        2980.00           2569        1615.00      7040.05
  309.13        2980.25           2573        1595.00      6952.82
  309.16        2980.50           2577        1565.00      6821.98
  309.19        2980.75           2580        1570.00      6843.79
  309.22        2981.00           2584        1530.00      6669.34
  309.25        2981.25           2587        1507.00      6569.04
  309.28        2981.50           2591        1582.00      6896.12
  309.32        2981.75           2594        1564.00      6817.62
  309.35        2982.00           2598        1530.00      6669.34
  309.38        2982.25           2601        1510.00      6582.12
  309.41        2982.50           2605        1505.00      6560.31
  309.44        2982.75           2609        1513.00      6595.20
  309.47        2983.00           2612        1540.00      6712.95
  309.50        2983.25           2616        1476.00      6433.84
  309.53        2983.50           2619        1524.00      6643.17
  309.56        2983.75           2623        1499.00      6534.15
  309.59        2984.00           2626        1525.00      6647.54
HS scan finished at 05:09:49
end
************************************************************
  HS Scan of (1) Internal mercury lamp
************************************************************
Integration time is 0.2294 seconds per sample
dh091218Reading 51.44 .94 2.98pr1000
************************************************************
Dead Time -------------------------  3.4E-08 
Number of Cycles Used -------------  4 
Starting Wavelength (Angstroms) ---  2950 
Final Wavelength (Angstoms) -------  2984 
Wavelength Increment (Angstroms) --  .25 
Filter Wheel #1 Position ---------- (1) Ground quartz diffuser (ND=2.32)
Filter Wheel #2 Position ---------- (1) Neutral Density 0.494



************************************************************
HS scan start time = 16:37:24
Dark Count =  1 


Time (GMT)  Wavelength (Ang)  Step Number  Raw Counts  Counts/Second

  998.29        2950.00           2144        1249.00      5441.29
  998.49        2950.25           2147        1264.00      5506.70
  998.52        2950.50           2151        1244.00      5419.48
  998.55        2950.75           2155        1225.00      5336.63
  998.58        2951.00           2158        1280.00      5576.47
  998.61        2951.25           2162        1260.00      5489.26
  998.64        2951.50           2165        1240.00      5402.04
  998.67        2951.75           2169        1257.00      5476.17
  998.70        2952.00           2172        1267.00      5519.78
  998.73        2952.25           2176        1289.00      5615.72
  998.76        2952.50           2179        1264.00      5506.70
  998.79        2952.75           2183        1272.00      5541.59
  998.82        2953.00           2186        1272.00      5541.59
  998.85        2953.25           2190        1300.00      5663.69
  998.88        2953.50           2193        1287.00      5607.00
  998.91        2953.75           2197        1280.00      5576.47
  998.94        2954.00           2200        1293.00      5633.16
  998.97        2954.25           2204        1315.00      5729.10
  999.01        2954.50           2208        1295.00      5641.88
  999.04        2954.75           2211        1306.00      5689.85
  999.07        2955.00           2215        1286.00      5602.64
  999.10        2955.25           2218        1343.00      5851.21
  999.13        2955.50           2222        1306.00      5689.85
  999.16        2955.75           2225        1304.00      5681.13
  999.19        2956.00           2229        1320.00      5750.91
  999.22        2956.25           2232        1328.00      5785.79
  999.25        2956.50           2236        1341.00      5842.49
  999.28        2956.75           2239        1351.00      5886.10
  999.31        2957.00           2243        1360.00      5925.34
  999.34        2957.25           2246        1415.00      6165.20
  999.37        2957.50           2250        1393.00      6069.26
  999.40        2957.75           2254        1426.00      6213.17
  999.43        2958.00           2257        1408.00      6134.67
  999.46        2958.25           2261        1457.00      6348.36
  999.49        2958.50           2264        1436.00      6256.78
  999.53        2958.75           2268        1430.00      6230.61
  999.56        2959.00           2271        1472.00      6413.78
  999.59        2959.25           2275        1475.00      6426.86
  999.62        2959.50           2278        1466.00      6387.61
  999.65        2959.75           2282        1465.00      6383.25
  999.68        2960.00           2285        1560.00      6797.56
  999.71        2960.25           2289        1507.00      6566.42
  999.74        2960.50           2293        1563.00      6810.64
  999.77        2960.75           2296        1625.00      7081.04
  999.80        2961.00           2300        1649.00      7185.71
  999.83        2961.25           2303        1701.00      7412.50
  999.86        2961.50           2307        2772.00     12084.30
  999.89        2961.75           2310        6488.00     28305.35
  999.92        2962.00           2314       18155.00     79350.68
  999.95        2962.25           2317       30006.00    131383.30
  999.98        2962.50           2321       46969.00    206183.20
 1000.02        2962.75           2324       59763.00    262853.00
 1000.05        2963.00           2328       77521.00    341875.90
 1000.08        2963.25           2331       91480.00    404294.50
 1000.11        2963.50           2335      111049.00    492250.20
 1000.14        2963.75           2339      130189.00    578794.00
 1000.17        2964.00           2342      142902.00    636563.00
 1000.20        2964.25           2346      161962.00    723605.40
 1000.23        2964.50           2349      176975.00    792535.30
 1000.26        2964.75           2353      195178.00    876553.50
 1000.29        2965.00           2356      209018.00    940761.40
 1000.32        2965.25           2360      227957.00   1029090.00
 1000.35        2965.50           2363      242324.00   1096457.00
 1000.38        2965.75           2367      261078.00   1184871.00
 1000.41        2966.00           2370      272755.00   1240197.00
 1000.44        2966.25           2374      287154.00   1308713.00
 1000.47        2966.50           2378      300859.00   1374232.00
 1000.50        2966.75           2381      306072.00   1399233.00
 1000.54        2967.00           2385      308418.00   1410498.00
 1000.57        2967.25           2388      308022.00   1408595.00
 1000.60        2967.50           2392      309015.00   1413366.00
 1000.63        2967.75           2395      308270.00   1409787.00
 1000.66        2968.00           2399      305632.00   1397121.00
 1000.69        2968.25           2402      299381.00   1367152.00
 1000.72        2968.50           2406      285339.00   1300059.00
 1000.75        2968.75           2409      273003.00   1241374.00
 1000.78        2969.00           2413      255737.00   1159636.00
 1000.81        2969.25           2417      238577.00   1078857.00
 1000.84        2969.50           2420      225112.00   1015787.00
 1000.87        2969.75           2424      208167.00    936805.10
 1000.90        2970.00           2427      194590.00    873831.90
 1000.93        2970.25           2431      177106.00    793138.30
 1000.96        2970.50           2434      162104.00    724255.80
 1000.99        2970.75           2438      143717.00    640274.20
 1001.02        2971.00           2441      128229.00    569908.00
 1001.05        2971.25           2445      109210.00    483962.00
 1001.09        2971.50           2449       91139.00    402766.50
 1001.12        2971.75           2452       78055.00    344258.90
 1001.15        2972.00           2456       59642.00    262316.00
 1001.18        2972.25           2459       45186.00    198302.90
 1001.21        2972.50           2463       27734.00    121393.70
 1001.24        2972.75           2466       16716.00     73045.18
 1001.27        2973.00           2470        5872.00     25615.15
 1001.30        2973.25           2473        2801.00     12210.82
 1001.33        2973.50           2477        1809.00      7883.54
 1001.36        2973.75           2481        1694.00      7381.97
 1001.39        2974.00           2484        1574.00      6858.62
 1001.42        2974.25           2488        1583.00      6897.87
 1001.45        2974.50           2491        1554.00      6771.39
 1001.48        2974.75           2495        1509.00      6575.14
 1001.51        2975.00           2498        1516.00      6605.67
 1001.54        2975.25           2502        1455.00      6339.64
 1001.57        2975.50           2505        1459.00      6357.08
 1001.61        2975.75           2509        1467.00      6391.97
 1001.64        2976.00           2512        1462.00      6370.17
 1001.67        2976.25           2516        1386.00      6038.73
 1001.70        2976.50           2520        1411.00      6147.75
 1001.73        2976.75           2523        1368.00      5960.23
 1001.76        2977.00           2527        1396.00      6082.34
 1001.79        2977.25           2530        1348.00      5873.01
 1001.82        2977.50           2534        1360.00      5925.34
 1001.85        2977.75           2537        1334.00      5811.96
 1001.88        2978.00           2541        1301.00      5668.05
 1001.91        2978.25           2544        1287.00      5607.00
 1001.94        2978.50           2548        1340.00      5838.13
 1001.97        2978.75           2552        1272.00      5541.59
 1002.00        2979.00           2555        1293.00      5633.16
 1002.03        2979.25           2559        1313.00      5720.38
 1002.06        2979.50           2562        1277.00      5563.39
 1002.09        2979.75           2566        1243.00      5415.12
 1002.13        2980.00           2569        1265.00      5511.06
 1002.16        2980.25           2573        1268.00      5524.14
 1002.19        2980.50           2577        1271.00      5537.22
 1002.22        2980.75           2580        1196.00      5210.16
 1002.25        2981.00           2584        1242.00      5410.76
 1002.28        2981.25           2587        1251.00      5450.01
 1002.31        2981.50           2591        1193.00      5197.08
 1002.34        2981.75           2594        1198.00      5218.89
 1002.37        2982.00           2598        1194.00      5201.44
 1002.40        2982.25           2601        1168.00      5088.06
 1002.43        2982.50           2605        1200.00      5227.61
 1002.46        2982.75           2609        1221.00      5319.18
 1002.49        2983.00           2612        1200.00      5227.61
 1002.52        2983.25           2616        1210.00      5271.22
 1002.55        2983.50           2619        1140.00      4965.96
 1002.58        2983.75           2623        1177.00      5127.31
 1002.61        2984.00           2626        1152.00      5018.29
HS scan finished at 16:42:50
end
