************************************************************
  HS Scan of (1) Internal mercury lamp
************************************************************
Integration time is 0.2294 seconds per sample
dh131218Reading 51.44 .94 2.37pr1000
************************************************************
Dead Time -------------------------  3.4E-08 
Number of Cycles Used -------------  4 
Starting Wavelength (Angstroms) ---  2950 
Final Wavelength (Angstoms) -------  2984 
Wavelength Increment (Angstroms) --  .25 
Filter Wheel #1 Position ---------- (1) Ground quartz diffuser (ND=2.32)
Filter Wheel #2 Position ---------- (1) Neutral Density 0.494



************************************************************
HS scan start time = 05:10:45
Dark Count =  .3 


Time (GMT)  Wavelength (Ang)  Step Number  Raw Counts  Counts/Second

  311.65        2950.00           2144        1595.00      6953.26
  311.84        2950.25           2147        1637.00      7136.43
  311.87        2950.50           2151        1632.00      7114.62
  311.90        2950.75           2155        1626.00      7088.46
  311.93        2951.00           2158        1630.00      7105.90
  311.96        2951.25           2162        1621.00      7066.65
  311.99        2951.50           2165        1640.00      7149.51
  312.02        2951.75           2169        1686.00      7350.14
  312.05        2952.00           2172        1624.00      7079.73
  312.08        2952.25           2176        1693.00      7380.67
  312.12        2952.50           2179        1650.00      7193.13
  312.15        2952.75           2183        1699.00      7406.83
  312.18        2953.00           2186        1686.00      7350.14
  312.21        2953.25           2190        1666.00      7262.91
  312.24        2953.50           2193        1665.00      7258.55
  312.27        2953.75           2197        1677.00      7310.88
  312.30        2954.00           2200        1706.00      7437.36
  312.33        2954.25           2204        1685.00      7345.78
  312.36        2954.50           2208        1631.00      7110.26
  312.39        2954.75           2211        1684.00      7341.41
  312.42        2955.00           2215        1689.00      7363.22
  312.45        2955.25           2218        1700.00      7411.20
  312.48        2955.50           2222        1741.00      7590.01
  312.51        2955.75           2225        1740.00      7585.65
  312.54        2956.00           2229        1786.00      7786.28
  312.57        2956.25           2232        1743.00      7598.74
  312.60        2956.50           2236        1746.00      7611.82
  312.63        2956.75           2239        1769.00      7712.14
  312.67        2957.00           2243        1789.00      7799.37
  312.70        2957.25           2246        1765.00      7694.69
  312.73        2957.50           2250        1773.00      7729.58
  312.76        2957.75           2254        1773.00      7729.58
  312.79        2958.00           2257        1848.00      8056.70
  312.82        2958.25           2261        1863.00      8122.12
  312.85        2958.50           2264        1883.00      8209.35
  312.88        2958.75           2268        1855.00      8087.23
  312.91        2959.00           2271        1850.00      8065.42
  312.94        2959.25           2275        1854.00      8082.87
  312.97        2959.50           2278        1932.00      8423.08
  313.00        2959.75           2282        1894.00      8257.33
  313.03        2960.00           2285        1937.00      8444.88
  313.06        2960.25           2289        1980.00      8632.44
  313.09        2960.50           2293        2020.00      8806.91
  313.12        2960.75           2296        2022.00      8815.63
  313.15        2961.00           2300        2134.00      9304.16
  313.19        2961.25           2303        2713.00     11829.95
  313.22        2961.50           2307        7409.00     32331.51
  313.25        2961.75           2310       15182.00     66329.46
  313.28        2962.00           2314       30206.00    132266.10
  313.31        2962.25           2317       43682.00    191662.10
  313.34        2962.50           2321       61698.00    271446.20
  313.37        2962.75           2324       74820.00    329832.10
  313.40        2963.00           2328       93335.00    412612.50
  313.43        2963.25           2331      108320.00    479955.60
  313.46        2963.50           2335      128779.00    572404.10
  313.49        2963.75           2339      148842.00    663636.80
  313.52        2964.00           2342      163981.00    732859.60
  313.55        2964.25           2346      183020.00    820386.00
  313.58        2964.50           2349      197313.00    886443.10
  313.61        2964.75           2353      217089.00    978340.40
  313.64        2965.00           2356      231168.00   1044122.00
  313.67        2965.25           2360      248310.00   1124622.00
  313.71        2965.50           2363      261380.00   1186303.00
  313.74        2965.75           2367      279492.00   1272217.00
  313.77        2966.00           2370      291834.00   1331056.00
  313.80        2966.25           2374      308671.00   1411716.00
  313.83        2966.50           2378      322805.00   1479779.00
  313.86        2966.75           2381      326760.00   1498883.00
  313.89        2967.00           2385      328288.00   1506270.00
  313.92        2967.25           2388      328285.00   1506255.00
  313.95        2967.50           2392      328481.00   1507203.00
  313.98        2967.75           2395      327806.00   1503939.00
  314.01        2968.00           2399      323606.00   1483646.00
  314.04        2968.25           2402      316311.00   1448467.00
  314.07        2968.50           2406      300629.00   1373133.00
  314.10        2968.75           2409      287241.00   1309131.00
  314.13        2969.00           2413      267301.00   1214332.00
  314.16        2969.25           2417      247708.00   1121787.00
  314.19        2969.50           2420      234806.00   1061169.00
  314.22        2969.75           2424      216302.00    974672.10
  314.26        2970.00           2427      201590.00    906268.60
  314.29        2970.25           2431      180432.00    808457.40
  314.32        2970.50           2434      165727.00    740864.40
  314.35        2970.75           2438      146947.00    654995.20
  314.38        2971.00           2441      131862.00    586386.30
  314.41        2971.25           2445      112189.00    497393.70
  314.44        2971.50           2449       91540.00    404566.50
  314.47        2971.75           2452       76641.00    337953.00
  314.50        2972.00           2456       56654.00    249064.90
  314.53        2972.25           2459       42241.00    185299.40
  314.56        2972.50           2463       24541.00    107369.00
  314.59        2972.75           2466       12855.00     56143.25
  314.62        2973.00           2470        4615.00     20130.16
  314.65        2973.25           2473        2709.00     11812.50
  314.68        2973.50           2477        2112.00      9208.20
  314.71        2973.75           2481        2046.00      8920.32
  314.75        2974.00           2484        1977.00      8619.35
  314.78        2974.25           2488        1917.00      8357.65
  314.81        2974.50           2491        1902.00      8292.22
  314.84        2974.75           2495        1879.00      8191.91
  314.87        2975.00           2498        1876.00      8178.82
  314.90        2975.25           2502        1849.00      8061.06
  314.93        2975.50           2505        1818.00      7925.85
  314.96        2975.75           2509        1797.00      7834.26
  314.99        2976.00           2512        1809.00      7886.60
  315.02        2976.25           2516        1749.00      7624.91
  315.05        2976.50           2520        1763.00      7685.97
  315.08        2976.75           2523        1711.00      7459.17
  315.11        2977.00           2527        1731.00      7546.40
  315.14        2977.25           2530        1701.00      7415.56
  315.17        2977.50           2534        1688.00      7358.86
  315.20        2977.75           2537        1657.00      7223.66
  315.23        2978.00           2541        1646.00      7175.68
  315.26        2978.25           2544        1629.00      7101.54
  315.30        2978.50           2548        1637.00      7136.43
  315.33        2978.75           2552        1624.00      7079.73
  315.36        2979.00           2555        1653.00      7206.21
  315.39        2979.25           2559        1588.00      6922.73
  315.42        2979.50           2562        1627.00      7092.82
  315.45        2979.75           2566        1623.00      7075.37
  315.48        2980.00           2569        1566.00      6826.78
  315.51        2980.25           2573        1572.00      6852.95
  315.54        2980.50           2577        1575.00      6866.03
  315.57        2980.75           2580        1557.00      6787.53
  315.60        2981.00           2584        1540.00      6713.39
  315.63        2981.25           2587        1563.00      6813.70
  315.66        2981.50           2591        1541.00      6717.75
  315.69        2981.75           2594        1542.00      6722.11
  315.72        2982.00           2598        1506.00      6565.11
  315.75        2982.25           2601        1534.00      6687.22
  315.78        2982.50           2605        1510.00      6582.55
  315.82        2982.75           2609        1534.00      6687.22
  315.85        2983.00           2612        1559.00      6796.25
  315.88        2983.25           2616        1470.00      6408.11
  315.91        2983.50           2619        1534.00      6687.22
  315.94        2983.75           2623        1492.00      6504.05
  315.97        2984.00           2626        1493.00      6508.41
HS scan finished at 05:16:11
end
************************************************************
  HS Scan of (1) Internal mercury lamp
************************************************************
Integration time is 0.2294 seconds per sample
dh131218Reading 51.44 .94 2.68pr1000
************************************************************
Dead Time -------------------------  3.4E-08 
Number of Cycles Used -------------  4 
Starting Wavelength (Angstroms) ---  2950 
Final Wavelength (Angstoms) -------  2984 
Wavelength Increment (Angstroms) --  .25 
Filter Wheel #1 Position ---------- (1) Ground quartz diffuser (ND=2.32)
Filter Wheel #2 Position ---------- (1) Neutral Density 0.494



************************************************************
HS scan start time = 16:37:25
Dark Count =  .4 


Time (GMT)  Wavelength (Ang)  Step Number  Raw Counts  Counts/Second

  998.31        2950.00           2144        1539.00      6708.59
  998.51        2950.25           2147        1569.00      6839.43
  998.54        2950.50           2151        1530.00      6669.34
  998.57        2950.75           2155        1526.00      6651.90
  998.60        2951.00           2158        1563.00      6813.26
  998.63        2951.25           2162        1547.00      6743.48
  998.66        2951.50           2165        1533.00      6682.43
  998.69        2951.75           2169        1547.00      6743.48
  998.72        2952.00           2172        1571.00      6848.15
  998.75        2952.25           2176        1540.00      6712.95
  998.78        2952.50           2179        1559.00      6795.82
  998.81        2952.75           2183        1595.00      6952.82
  998.84        2953.00           2186        1590.00      6931.01
  998.87        2953.25           2190        1584.00      6904.85
  998.90        2953.50           2193        1595.00      6952.82
  998.93        2953.75           2197        1572.00      6852.51
  998.96        2954.00           2200        1635.00      7127.27
  998.99        2954.25           2204        1611.00      7022.60
  999.03        2954.50           2208        1566.00      6826.34
  999.06        2954.75           2211        1592.00      6939.74
  999.09        2955.00           2215        1638.00      7140.36
  999.12        2955.25           2218        1593.00      6944.10
  999.15        2955.50           2222        1640.00      7149.08
  999.18        2955.75           2225        1656.00      7218.86
  999.21        2956.00           2229        1651.00      7197.05
  999.24        2956.25           2232        1647.00      7179.61
  999.27        2956.50           2236        1681.00      7327.89
  999.30        2956.75           2239        1640.00      7149.08
  999.33        2957.00           2243        1694.00      7384.59
  999.36        2957.25           2246        1722.00      7506.71
  999.39        2957.50           2250        1693.00      7380.23
  999.42        2957.75           2254        1677.00      7310.45
  999.45        2958.00           2257        1706.00      7436.93
  999.48        2958.25           2261        1740.00      7585.22
  999.51        2958.50           2264        1738.00      7576.49
  999.54        2958.75           2268        1732.00      7550.33
  999.58        2959.00           2271        1758.00      7663.72
  999.61        2959.25           2275        1778.00      7750.95
  999.64        2959.50           2278        1817.00      7921.05
  999.67        2959.75           2282        1844.00      8038.81
  999.70        2960.00           2285        1869.00      8147.85
  999.73        2960.25           2289        1849.00      8060.62
  999.76        2960.50           2293        1864.00      8126.05
  999.79        2960.75           2296        1933.00      8427.00
  999.82        2961.00           2300        1963.00      8557.85
  999.85        2961.25           2303        2209.00      9630.88
  999.88        2961.50           2307        4652.00     20291.24
  999.91        2961.75           2310       11445.00     49974.12
  999.94        2962.00           2314       25730.00    112590.60
  999.97        2962.25           2317       38057.00    166840.00
 1000.00        2962.50           2321       56139.00    246781.30
 1000.03        2962.75           2324       71238.00    313870.50
 1000.07        2963.00           2328       91672.00    405157.60
 1000.10        2963.25           2331      106994.00    473983.50
 1000.13        2963.50           2335      125979.00    559716.60
 1000.16        2963.75           2339      144995.00    646098.40
 1000.19        2964.00           2342      160180.00    715448.10
 1000.22        2964.25           2346      181152.00    811774.60
 1000.25        2964.50           2349      197700.00    888235.40
 1000.28        2964.75           2353      216696.00    976508.10
 1000.31        2965.00           2356      230289.00   1040006.00
 1000.34        2965.25           2360      248092.00   1123595.00
 1000.37        2965.50           2363      262155.00   1189968.00
 1000.40        2965.75           2367      279808.00   1273720.00
 1000.43        2966.00           2370      293529.00   1339156.00
 1000.46        2966.25           2374      310916.00   1422505.00
 1000.49        2966.50           2378      325824.00   1494359.00
 1000.52        2966.75           2381      330847.00   1518650.00
 1000.55        2967.00           2385      333788.00   1532892.00
 1000.59        2967.25           2388      333606.00   1532010.00
 1000.62        2967.50           2392      334332.00   1535528.00
 1000.65        2967.75           2395      333669.00   1532315.00
 1000.68        2968.00           2399      331537.00   1521990.00
 1000.71        2968.25           2402      324580.00   1488349.00
 1000.74        2968.50           2406      309604.00   1416199.00
 1000.77        2968.75           2409      298727.00   1364023.00
 1000.80        2969.00           2413      281780.00   1283106.00
 1000.83        2969.25           2417      263580.00   1196710.00
 1000.86        2969.50           2420      248719.00   1126547.00
 1000.89        2969.75           2424      228226.00   1030351.00
 1000.92        2970.00           2427      213948.00    963704.90
 1000.95        2970.25           2431      194429.00    873089.50
 1000.98        2970.50           2434      179173.00    802657.40
 1001.01        2970.75           2438      159427.00    712001.30
 1001.04        2971.00           2441      143402.00    638842.40
 1001.07        2971.25           2445      123047.00    546443.10
 1001.10        2971.50           2449      102231.00    452553.50
 1001.14        2971.75           2452       85981.00    379676.20
 1001.17        2972.00           2456       64950.00    285893.70
 1001.20        2972.25           2459       50235.00    220631.50
 1001.23        2972.50           2463       31878.00    139622.00
 1001.26        2972.75           2466       19825.00     86674.40
 1001.29        2973.00           2470        7632.00     33305.35
 1001.32        2973.25           2473        3449.00     15040.82
 1001.35        2973.50           2477        2134.00      9303.73
 1001.38        2973.75           2481        1967.00      8575.30
 1001.41        2974.00           2484        1951.00      8505.51
 1001.44        2974.25           2488        1900.00      8283.06
 1001.47        2974.50           2491        1873.00      8165.30
 1001.50        2974.75           2495        1796.00      7829.46
 1001.53        2975.00           2498        1837.00      8008.28
 1001.56        2975.25           2502        1771.00      7720.42
 1001.59        2975.50           2505        1742.00      7593.94
 1001.62        2975.75           2509        1755.00      7650.64
 1001.66        2976.00           2512        1746.00      7611.39
 1001.69        2976.25           2516        1717.00      7484.90
 1001.72        2976.50           2520        1643.00      7162.16
 1001.75        2976.75           2523        1650.00      7192.69
 1001.78        2977.00           2527        1645.00      7170.88
 1001.81        2977.25           2530        1649.00      7188.33
 1001.84        2977.50           2534        1613.00      7031.32
 1001.87        2977.75           2537        1618.00      7053.13
 1001.90        2978.00           2541        1613.00      7031.32
 1001.93        2978.25           2544        1586.00      6913.57
 1001.96        2978.50           2548        1564.00      6817.62
 1001.99        2978.75           2552        1611.00      7022.60
 1002.02        2979.00           2555        1529.00      6664.98
 1002.05        2979.25           2559        1564.00      6817.62
 1002.08        2979.50           2562        1552.00      6765.29
 1002.11        2979.75           2566        1545.00      6734.76
 1002.14        2980.00           2569        1497.00      6525.42
 1002.18        2980.25           2573        1536.00      6695.51
 1002.21        2980.50           2577        1480.00      6451.28
 1002.24        2980.75           2580        1507.00      6569.04
 1002.27        2981.00           2584        1478.00      6442.56
 1002.30        2981.25           2587        1464.00      6381.51
 1002.33        2981.50           2591        1510.00      6582.12
 1002.36        2981.75           2594        1499.00      6534.15
 1002.39        2982.00           2598        1484.00      6468.73
 1002.42        2982.25           2601        1478.00      6442.56
 1002.45        2982.50           2605        1461.00      6368.42
 1002.48        2982.75           2609        1466.00      6390.23
 1002.51        2983.00           2612        1490.00      6494.90
 1002.54        2983.25           2616        1454.00      6337.90
 1002.57        2983.50           2619        1434.00      6250.67
 1002.60        2983.75           2623        1463.00      6377.15
 1002.63        2984.00           2626        1452.00      6329.17
HS scan finished at 16:42:51
end
