************************************************************
  HS Scan of (1) Internal mercury lamp
************************************************************
Integration time is 0.2294 seconds per sample
dh061218Reading 51.44 .94 3.07pr1000
************************************************************
Dead Time -------------------------  3.4E-08 
Number of Cycles Used -------------  4 
Starting Wavelength (Angstroms) ---  2950 
Final Wavelength (Angstoms) -------  2984 
Wavelength Increment (Angstroms) --  .25 
Filter Wheel #1 Position ---------- (1) Ground quartz diffuser (ND=2.32)
Filter Wheel #2 Position ---------- (1) Neutral Density 0.494



************************************************************
HS scan start time = 05:01:29
Dark Count =  1.1 


Time (GMT)  Wavelength (Ang)  Step Number  Raw Counts  Counts/Second

  302.38        2950.00           2144        1466.00      6387.18
  302.58        2950.25           2147        1479.00      6443.87
  302.61        2950.50           2151        1462.00      6369.73
  302.64        2950.75           2155        1516.00      6605.23
  302.67        2951.00           2158        1494.00      6509.29
  302.70        2951.25           2162        1480.00      6448.23
  302.73        2951.50           2165        1502.00      6544.18
  302.76        2951.75           2169        1499.00      6531.09
  302.80        2952.00           2172        1526.00      6648.84
  302.84        2952.25           2176        1504.00      6552.90
  302.87        2952.50           2179        1556.00      6779.68
  302.90        2952.75           2183        1556.00      6779.68
  302.93        2953.00           2186        1540.00      6709.90
  302.96        2953.25           2190        1554.00      6770.96
  302.99        2953.50           2193        1555.00      6775.32
  303.02        2953.75           2197        1542.00      6718.62
  303.05        2954.00           2200        1572.00      6849.46
  303.08        2954.25           2204        1565.00      6818.93
  303.11        2954.50           2208        1575.00      6862.54
  303.14        2954.75           2211        1583.00      6897.43
  303.17        2955.00           2215        1618.00      7050.08
  303.20        2955.25           2218        1607.00      7002.10
  303.23        2955.50           2222        1609.00      7010.83
  303.26        2955.75           2225        1646.00      7172.19
  303.29        2956.00           2229        1656.00      7215.81
  303.33        2956.25           2232        1667.00      7263.78
  303.36        2956.50           2236        1671.00      7281.23
  303.39        2956.75           2239        1678.00      7311.76
  303.42        2957.00           2243        1700.00      7407.71
  303.45        2957.25           2246        1697.00      7394.62
  303.48        2957.50           2250        1719.00      7490.57
  303.51        2957.75           2254        1764.00      7686.84
  303.54        2958.00           2257        1801.00      7848.22
  303.57        2958.25           2261        1770.00      7713.01
  303.60        2958.50           2264        1814.00      7904.91
  303.63        2958.75           2268        1855.00      8083.74
  303.66        2959.00           2271        1817.00      7918.00
  303.69        2959.25           2275        1828.00      7965.98
  303.72        2959.50           2278        1881.00      8197.14
  303.75        2959.75           2282        1900.00      8280.01
  303.78        2960.00           2285        1952.00      8506.82
  303.81        2960.25           2289        1904.00      8297.46
  303.85        2960.50           2293        1983.00      8642.03
  303.88        2960.75           2296        2054.00      8951.72
  303.91        2961.00           2300        2150.00      9370.47
  303.94        2961.25           2303        2909.00     12681.58
  303.97        2961.50           2307        8949.00     39057.50
  304.00        2961.75           2310       19572.00     85561.98
  304.03        2962.00           2314       38500.00    168790.20
  304.06        2962.25           2317       54350.00    238849.40
  304.09        2962.50           2321       74681.00    329208.80
  304.12        2962.75           2324       90964.00    401982.00
  304.15        2963.00           2328      115178.00    510876.10
  304.18        2963.25           2331      134787.00    599660.80
  304.21        2963.50           2335      160742.00    718017.90
  304.24        2963.75           2339      182235.00    816763.10
  304.27        2964.00           2342      197274.00    886258.80
  304.30        2964.25           2346      219216.00    988255.60
  304.33        2964.50           2349      235033.00   1062230.00
  304.37        2964.75           2353      260805.00   1183580.00
  304.40        2965.00           2356      278269.00   1266395.00
  304.43        2965.25           2360      299124.00   1365921.00
  304.46        2965.50           2363      316253.00   1448184.00
  304.49        2965.75           2367      335487.00   1541122.00
  304.52        2966.00           2370      347724.00   1600567.00
  304.55        2966.25           2374      368499.00   1702058.00
  304.58        2966.50           2378      385491.00   1785607.00
  304.61        2966.75           2381      391021.00   1812904.00
  304.64        2967.00           2385      392921.00   1822295.00
  304.67        2967.25           2388      392799.00   1821692.00
  304.70        2967.50           2392      392821.00   1821800.00
  304.73        2967.75           2395      391963.00   1817559.00
  304.76        2968.00           2399      387850.00   1797245.00
  304.79        2968.25           2402      379098.00   1754115.00
  304.82        2968.50           2406      359557.00   1658285.00
  304.85        2968.75           2409      343823.00   1581590.00
  304.88        2969.00           2413      320271.00   1467549.00
  304.92        2969.25           2417      298054.00   1360798.00
  304.95        2969.50           2420      283584.00   1291695.00
  304.98        2969.75           2424      262577.00   1191961.00
  305.01        2970.00           2427      243423.00   1101623.00
  305.04        2970.25           2431      217570.00    980579.20
  305.07        2970.50           2434      198883.00    893713.80
  305.10        2970.75           2438      174500.00    781148.80
  305.13        2971.00           2441      156964.00    700729.80
  305.16        2971.25           2445      135034.00    600782.60
  305.19        2971.50           2449      110079.00    487877.40
  305.22        2971.75           2452       91350.00    403711.50
  305.25        2972.00           2456       67680.00    298030.40
  305.28        2972.25           2459       51032.00    224155.70
  305.31        2972.50           2463       29463.00    128994.80
  305.34        2972.75           2466       15287.00     66785.75
  305.37        2973.00           2470        5308.00     23152.05
  305.40        2973.25           2473        2839.00     12376.18
  305.44        2973.50           2477        2197.00      9575.48
  305.47        2973.75           2481        2018.00      8794.70
  305.50        2974.00           2484        2037.00      8877.57
  305.53        2974.25           2488        1934.00      8428.31
  305.56        2974.50           2491        1901.00      8284.37
  305.59        2974.75           2495        1866.00      8131.72
  305.62        2975.00           2498        1869.00      8144.80
  305.65        2975.25           2502        1863.00      8118.63
  305.68        2975.50           2505        1813.00      7900.55
  305.71        2975.75           2509        1777.00      7743.54
  305.74        2976.00           2512        1772.00      7721.73
  305.78        2976.25           2516        1810.00      7887.47
  305.81        2976.50           2520        1773.00      7726.09
  305.84        2976.75           2523        1714.00      7468.77
  305.87        2977.00           2527        1670.00      7276.87
  305.90        2977.25           2530        1720.00      7494.94
  305.93        2977.50           2534        1677.00      7307.40
  305.96        2977.75           2537        1652.00      7198.36
  305.99        2978.00           2541        1655.00      7211.45
  306.03        2978.25           2544        1657.00      7220.17
  306.06        2978.50           2548        1618.00      7050.08
  306.09        2978.75           2552        1595.00      6949.77
  306.12        2979.00           2555        1601.00      6975.94
  306.15        2979.25           2559        1583.00      6897.43
  306.18        2979.50           2562        1601.00      6975.94
  306.21        2979.75           2566        1567.00      6827.65
  306.24        2980.00           2569        1580.00      6884.35
  306.27        2980.25           2573        1555.00      6775.32
  306.30        2980.50           2577        1535.00      6688.09
  306.33        2980.75           2580        1520.00      6622.68
  306.36        2981.00           2584        1543.00      6722.98
  306.39        2981.25           2587        1534.00      6683.73
  306.42        2981.50           2591        1489.00      6487.48
  306.45        2981.75           2594        1516.00      6605.23
  306.48        2982.00           2598        1510.00      6579.07
  306.51        2982.25           2601        1543.00      6722.98
  306.55        2982.50           2605        1459.00      6356.65
  306.58        2982.75           2609        1513.00      6592.15
  306.61        2983.00           2612        1468.00      6395.90
  306.64        2983.25           2616        1466.00      6387.18
  306.67        2983.50           2619        1463.00      6374.09
  306.70        2983.75           2623        1454.00      6334.84
  306.73        2984.00           2626        1488.00      6483.12
HS scan finished at 05:06:57
end
************************************************************
  HS Scan of (1) Internal mercury lamp
************************************************************
Integration time is 0.2294 seconds per sample
dh061218Reading 51.44 .94 3.29pr1000
************************************************************
Dead Time -------------------------  3.4E-08 
Number of Cycles Used -------------  4 
Starting Wavelength (Angstroms) ---  2950 
Final Wavelength (Angstoms) -------  2984 
Wavelength Increment (Angstroms) --  .25 
Filter Wheel #1 Position ---------- (1) Ground quartz diffuser (ND=2.32)
Filter Wheel #2 Position ---------- (1) Neutral Density 0.494



************************************************************
HS scan start time = 16:37:23
Dark Count =  1.3 


Time (GMT)  Wavelength (Ang)  Step Number  Raw Counts  Counts/Second

  998.28        2950.00           2144        1277.00      5562.08
  998.47        2950.25           2147        1220.00      5313.51
  998.50        2950.50           2151        1246.00      5426.89
  998.53        2950.75           2155        1285.00      5596.97
  998.56        2951.00           2158        1241.00      5405.09
  998.59        2951.25           2162        1285.00      5596.97
  998.62        2951.50           2165        1277.00      5562.08
  998.65        2951.75           2169        1268.00      5522.83
  998.68        2952.00           2172        1256.00      5470.50
  998.71        2952.25           2176        1252.00      5453.06
  998.75        2952.50           2179        1274.00      5549.00
  998.78        2952.75           2183        1228.00      5348.40
  998.81        2953.00           2186        1293.00      5631.85
  998.84        2953.25           2190        1288.00      5610.05
  998.87        2953.50           2193        1315.00      5727.79
  998.90        2953.75           2197        1303.00      5675.46
  998.93        2954.00           2200        1297.00      5649.30
  998.96        2954.25           2204        1330.00      5793.21
  998.99        2954.50           2208        1334.00      5810.65
  999.02        2954.75           2211        1325.00      5771.40
  999.05        2955.00           2215        1331.00      5797.57
  999.08        2955.25           2218        1324.00      5767.04
  999.11        2955.50           2222        1352.00      5889.15
  999.14        2955.75           2225        1347.00      5867.34
  999.17        2956.00           2229        1339.00      5832.46
  999.20        2956.25           2232        1383.00      6024.34
  999.23        2956.50           2236        1361.00      5928.40
  999.27        2956.75           2239        1391.00      6059.23
  999.30        2957.00           2243        1374.00      5985.09
  999.33        2957.25           2246        1426.00      6211.86
  999.36        2957.50           2250        1428.00      6220.58
  999.39        2957.75           2254        1456.00      6342.69
  999.42        2958.00           2257        1477.00      6434.28
  999.45        2958.25           2261        1442.00      6281.64
  999.48        2958.50           2264        1491.00      6495.33
  999.51        2958.75           2268        1484.00      6464.80
  999.54        2959.00           2271        1478.00      6438.64
  999.57        2959.25           2275        1534.00      6682.86
  999.60        2959.50           2278        1532.00      6674.14
  999.63        2959.75           2282        1559.00      6791.89
  999.66        2960.00           2285        1580.00      6883.48
  999.69        2960.25           2289        1613.00      7027.40
  999.72        2960.50           2293        1628.00      7092.82
  999.75        2960.75           2296        1667.00      7262.91
  999.79        2961.00           2300        1732.00      7546.40
  999.82        2961.25           2303        1885.00      8213.72
  999.85        2961.50           2307        4072.00     17755.70
  999.88        2961.75           2310       10627.00     46392.65
  999.91        2962.00           2314       25141.00    109999.60
  999.94        2962.25           2317       38969.00    170857.60
  999.97        2962.50           2321       57680.00    253610.30
 1000.00        2962.75           2324       72969.00    321577.50
 1000.03        2963.00           2328       94491.00    417792.10
 1000.06        2963.25           2331      110819.00    491212.00
 1000.09        2963.50           2335      131061.00    582747.80
 1000.12        2963.75           2339      151070.00    673799.10
 1000.15        2964.00           2342      166977.00    746593.30
 1000.18        2964.25           2346      188630.00    846272.90
 1000.21        2964.50           2349      205282.00    923399.60
 1000.24        2964.75           2353      225122.00   1015832.00
 1000.27        2965.00           2356      238378.00   1077921.00
 1000.31        2965.25           2360      257060.00   1165881.00
 1000.34        2965.50           2363      271968.00   1236460.00
 1000.37        2965.75           2367      291688.00   1330354.00
 1000.40        2966.00           2370      306237.00   1400023.00
 1000.43        2966.25           2374      324502.00   1487968.00
 1000.46        2966.50           2378      338446.00   1555473.00
 1000.49        2966.75           2381      343924.00   1582080.00
 1000.52        2967.00           2385      346502.00   1594619.00
 1000.55        2967.25           2388      347089.00   1597475.00
 1000.58        2967.50           2392      347086.00   1597461.00
 1000.61        2967.75           2395      347017.00   1597125.00
 1000.64        2968.00           2399      344412.00   1584453.00
 1000.67        2968.25           2402      337663.00   1551674.00
 1000.70        2968.50           2406      322844.00   1479963.00
 1000.73        2968.75           2409      311037.00   1423083.00
 1000.76        2969.00           2413      293674.00   1339844.00
 1000.79        2969.25           2417      275141.00   1251526.00
 1000.83        2969.50           2420      259508.00   1177447.00
 1000.86        2969.75           2424      238050.00   1076382.00
 1000.89        2970.00           2427      222917.00   1005530.00
 1000.92        2970.25           2431      203676.00    915943.20
 1000.95        2970.50           2434      188250.00    844517.80
 1000.99        2970.75           2438      167359.00    748345.90
 1001.02        2971.00           2441      151732.00    676821.30
 1001.05        2971.25           2445      130281.00    579209.90
 1001.08        2971.50           2449      106692.00    472619.80
 1001.11        2971.75           2452       90692.00    400762.50
 1001.14        2972.00           2456       69037.00    304067.70
 1001.17        2972.25           2459       53903.00    236868.20
 1001.20        2972.50           2463       35406.00    155152.40
 1001.23        2972.75           2466       22536.00     98562.97
 1001.26        2973.00           2470        8301.00     36224.62
 1001.29        2973.25           2473        3454.00     15058.71
 1001.32        2973.50           2477        1925.00      8388.18
 1001.35        2973.75           2481        1772.00      7720.86
 1001.38        2974.00           2484        1717.00      7480.98
 1001.41        2974.25           2488        1674.00      7293.44
 1001.44        2974.50           2491        1605.00      6992.51
 1001.47        2974.75           2495        1595.00      6948.90
 1001.51        2975.00           2498        1583.00      6896.56
 1001.54        2975.25           2502        1537.00      6695.95
 1001.57        2975.50           2505        1538.00      6700.31
 1001.60        2975.75           2509        1480.00      6447.36
 1001.63        2976.00           2512        1481.00      6451.72
 1001.66        2976.25           2516        1451.00      6320.89
 1001.69        2976.50           2520        1449.00      6312.17
 1001.72        2976.75           2523        1418.00      6176.97
 1001.75        2977.00           2527        1437.00      6259.83
 1001.78        2977.25           2530        1413.00      6155.17
 1001.81        2977.50           2534        1388.00      6046.14
 1001.84        2977.75           2537        1380.00      6011.25
 1001.87        2978.00           2541        1385.00      6033.06
 1001.90        2978.25           2544        1361.00      5928.40
 1001.93        2978.50           2548        1412.00      6150.81
 1001.96        2978.75           2552        1343.00      5849.90
 1001.99        2979.00           2555        1347.00      5867.34
 1002.02        2979.25           2559        1300.00      5662.38
 1002.06        2979.50           2562        1266.00      5514.11
 1002.09        2979.75           2566        1284.00      5592.61
 1002.12        2980.00           2569        1299.00      5658.02
 1002.15        2980.25           2573        1287.00      5605.69
 1002.18        2980.50           2577        1263.00      5501.03
 1002.21        2980.75           2580        1256.00      5470.50
 1002.24        2981.00           2584        1274.00      5549.00
 1002.27        2981.25           2587        1282.00      5583.89
 1002.30        2981.50           2591        1246.00      5426.89
 1002.33        2981.75           2594        1179.00      5134.72
 1002.36        2982.00           2598        1242.00      5409.45
 1002.39        2982.25           2601        1226.00      5339.68
 1002.42        2982.50           2605        1225.00      5335.32
 1002.45        2982.75           2609        1234.00      5374.57
 1002.48        2983.00           2612        1191.00      5187.05
 1002.51        2983.25           2616        1208.00      5261.19
 1002.54        2983.50           2619        1207.00      5256.82
 1002.58        2983.75           2623        1196.00      5208.86
 1002.61        2984.00           2626        1176.00      5121.64
HS scan finished at 16:42:50
end
