************************************************************
  HS Scan of (1) Internal mercury lamp
************************************************************
Integration time is 0.2294 seconds per sample
dh111218Reading 51.44 .94 2.6pr1000
************************************************************
Dead Time -------------------------  3.4E-08 
Number of Cycles Used -------------  4 
Starting Wavelength (Angstroms) ---  2950 
Final Wavelength (Angstoms) -------  2984 
Wavelength Increment (Angstroms) --  .25 
Filter Wheel #1 Position ---------- (1) Ground quartz diffuser (ND=2.32)
Filter Wheel #2 Position ---------- (1) Neutral Density 0.494



************************************************************
HS scan start time = 05:06:10
Dark Count =  .4 


Time (GMT)  Wavelength (Ang)  Step Number  Raw Counts  Counts/Second

  307.06        2950.00           2144        1619.00      7057.49
  307.25        2950.25           2147        1629.00      7101.10
  307.28        2950.50           2151        1631.00      7109.83
  307.31        2950.75           2155        1682.00      7332.26
  307.34        2951.00           2158        1626.00      7088.02
  307.37        2951.25           2162        1659.00      7231.94
  307.40        2951.50           2165        1634.00      7122.91
  307.43        2951.75           2169        1656.00      7218.86
  307.47        2952.00           2172        1628.00      7096.74
  307.50        2952.25           2176        1652.00      7201.41
  307.53        2952.50           2179        1656.00      7218.86
  307.56        2952.75           2183        1668.00      7271.20
  307.59        2953.00           2186        1656.00      7218.86
  307.62        2953.25           2190        1685.00      7345.34
  307.65        2953.50           2193        1690.00      7367.15
  307.68        2953.75           2197        1690.00      7367.15
  307.71        2954.00           2200        1687.00      7354.06
  307.74        2954.25           2204        1735.00      7563.41
  307.77        2954.50           2208        1695.00      7388.95
  307.80        2954.75           2211        1672.00      7288.64
  307.83        2955.00           2215        1745.00      7607.02
  307.86        2955.25           2218        1717.00      7484.90
  307.89        2955.50           2222        1696.00      7393.31
  307.92        2955.75           2225        1753.00      7641.92
  307.95        2956.00           2229        1713.00      7467.46
  307.98        2956.25           2232        1767.00      7702.98
  308.02        2956.50           2236        1753.00      7641.92
  308.05        2956.75           2239        1740.00      7585.22
  308.08        2957.00           2243        1794.00      7820.74
  308.11        2957.25           2246        1799.00      7842.54
  308.14        2957.50           2250        1814.00      7907.97
  308.17        2957.75           2254        1843.00      8034.45
  308.20        2958.00           2257        1831.00      7982.11
  308.23        2958.25           2261        1786.00      7785.84
  308.26        2958.50           2264        1822.00      7942.86
  308.29        2958.75           2268        1866.00      8134.77
  308.32        2959.00           2271        1885.00      8217.64
  308.35        2959.25           2275        1901.00      8287.43
  308.38        2959.50           2278        1921.00      8374.66
  308.41        2959.75           2282        1898.00      8274.34
  308.44        2960.00           2285        1947.00      8488.06
  308.47        2960.25           2289        1976.00      8614.55
  308.51        2960.50           2293        2013.00      8775.94
  308.54        2960.75           2296        2100.00      9155.42
  308.57        2961.00           2300        2081.00      9072.55
  308.60        2961.25           2303        2460.00     10725.80
  308.63        2961.50           2307        6460.00     28185.68
  308.66        2961.75           2310       15346.00     67047.18
  308.69        2962.00           2314       30001.00    131364.00
  308.72        2962.25           2317       43304.00    189992.30
  308.75        2962.50           2321       63819.00    280867.30
  308.78        2962.75           2324       80407.00    354761.70
  308.81        2963.00           2328      103343.00    457553.90
  308.84        2963.25           2331      118836.00    527400.80
  308.87        2963.50           2335      139678.00    621893.80
  308.90        2963.75           2339      160490.00    716867.30
  308.93        2964.00           2342      177168.00    793426.40
  308.96        2964.25           2346      199488.00    896521.10
  308.99        2964.50           2349      215724.00    971978.10
  309.02        2964.75           2353      237069.00   1071782.00
  309.06        2965.00           2356      251485.00   1139581.00
  309.09        2965.25           2360      270901.00   1231401.00
  309.12        2965.50           2363      284768.00   1297340.00
  309.15        2965.75           2367      303914.00   1388881.00
  309.18        2966.00           2370      318226.00   1457693.00
  309.21        2966.25           2374      335888.00   1543070.00
  309.24        2966.50           2378      349349.00   1608483.00
  309.27        2966.75           2381      354167.00   1631969.00
  309.30        2967.00           2385      355345.00   1637717.00
  309.33        2967.25           2388      356034.00   1641080.00
  309.36        2967.50           2392      355087.00   1636458.00
  309.39        2967.75           2395      354599.00   1634077.00
  309.42        2968.00           2399      348561.00   1604646.00
  309.45        2968.25           2402      337789.00   1552289.00
  309.48        2968.50           2406      320323.00   1467803.00
  309.51        2968.75           2409      305698.00   1397440.00
  309.54        2969.00           2413      286958.00   1307781.00
  309.58        2969.25           2417      269339.00   1223992.00
  309.61        2969.50           2420      256092.00   1161315.00
  309.64        2969.75           2424      234189.00   1058276.00
  309.67        2970.00           2427      216206.00    974224.20
  309.70        2970.25           2431      193970.00    870965.50
  309.73        2970.50           2434      178552.00    799797.70
  309.76        2970.75           2438      159361.00    711699.20
  309.79        2971.00           2441      144672.00    644626.90
  309.82        2971.25           2445      124079.00    551113.70
  309.85        2971.50           2449      102524.00    453870.90
  309.88        2971.75           2452       87355.00    385824.20
  309.91        2972.00           2456       66740.00    293852.40
  309.94        2972.25           2459       51340.00    225522.10
  309.97        2972.50           2463       30095.00    131777.40
  310.00        2972.75           2466       16404.00     71681.03
  310.03        2973.00           2470        6282.00     27408.27
  310.06        2973.25           2473        3378.00     14731.01
  310.10        2973.50           2477        2208.00      9626.52
  310.13        2973.75           2481        2096.00      9137.97
  310.16        2974.00           2484        1973.00      8601.47
  310.19        2974.25           2488        2011.00      8767.22
  310.22        2974.50           2491        1942.00      8466.26
  310.25        2974.75           2495        1891.00      8243.81
  310.28        2975.00           2498        1844.00      8038.81
  310.31        2975.25           2502        1881.00      8200.19
  310.34        2975.50           2505        1849.00      8060.62
  310.37        2975.75           2509        1836.00      8003.92
  310.40        2976.00           2512        1802.00      7855.63
  310.43        2976.25           2516        1791.00      7807.65
  310.46        2976.50           2520        1788.00      7794.57
  310.49        2976.75           2523        1750.00      7628.83
  310.52        2977.00           2527        1733.00      7554.69
  310.55        2977.25           2530        1723.00      7511.07
  310.58        2977.50           2534        1698.00      7402.04
  310.62        2977.75           2537        1750.00      7628.83
  310.65        2978.00           2541        1690.00      7367.15
  310.68        2978.25           2544        1637.00      7135.99
  310.71        2978.50           2548        1625.00      7083.66
  310.74        2978.75           2552        1648.00      7183.97
  310.77        2979.00           2555        1675.00      7301.73
  310.80        2979.25           2559        1657.00      7223.22
  310.83        2979.50           2562        1609.00      7013.88
  310.86        2979.75           2566        1654.00      7210.14
  310.89        2980.00           2569        1595.00      6952.82
  310.92        2980.25           2573        1602.00      6983.35
  310.95        2980.50           2577        1595.00      6952.82
  310.98        2980.75           2580        1557.00      6787.09
  311.01        2981.00           2584        1587.00      6917.93
  311.04        2981.25           2587        1575.00      6865.60
  311.07        2981.50           2591        1564.00      6817.62
  311.10        2981.75           2594        1550.00      6756.57
  311.14        2982.00           2598        1578.00      6878.68
  311.17        2982.25           2601        1521.00      6630.09
  311.20        2982.50           2605        1569.00      6839.43
  311.23        2982.75           2609        1536.00      6695.51
  311.26        2983.00           2612        1515.00      6603.92
  311.29        2983.25           2616        1511.00      6586.48
  311.32        2983.50           2619        1513.00      6595.20
  311.35        2983.75           2623        1504.00      6555.95
  311.38        2984.00           2626        1483.00      6464.37
HS scan finished at 05:11:36
end
************************************************************
  HS Scan of (1) Internal mercury lamp
************************************************************
Integration time is 0.2294 seconds per sample
dh111218Reading 51.44 .94 3.01pr1000
************************************************************
Dead Time -------------------------  3.4E-08 
Number of Cycles Used -------------  4 
Starting Wavelength (Angstroms) ---  2950 
Final Wavelength (Angstoms) -------  2984 
Wavelength Increment (Angstroms) --  .25 
Filter Wheel #1 Position ---------- (1) Ground quartz diffuser (ND=2.32)
Filter Wheel #2 Position ---------- (1) Neutral Density 0.494



************************************************************
HS scan start time = 16:37:23
Dark Count =  .8 


Time (GMT)  Wavelength (Ang)  Step Number  Raw Counts  Counts/Second

  998.28        2950.00           2144        1503.00      6549.85
  998.47        2950.25           2147        1548.00      6746.10
  998.50        2950.50           2151        1529.00      6663.24
  998.53        2950.75           2155        1502.00      6545.48
  998.56        2951.00           2158        1493.00      6506.23
  998.59        2951.25           2162        1544.00      6728.65
  998.62        2951.50           2165        1540.00      6711.21
  998.65        2951.75           2169        1538.00      6702.49
  998.68        2952.00           2172        1515.00      6602.18
  998.71        2952.25           2176        1552.00      6763.54
  998.74        2952.50           2179        1533.00      6680.68
  998.78        2952.75           2183        1566.00      6824.60
  998.81        2953.00           2186        1539.00      6706.85
  998.84        2953.25           2190        1574.00      6859.49
  998.87        2953.50           2193        1576.00      6868.21
  998.90        2953.75           2197        1576.00      6868.21
  998.93        2954.00           2200        1551.00      6759.18
  998.96        2954.25           2204        1570.00      6842.05
  998.99        2954.50           2208        1643.00      7160.42
  999.02        2954.75           2211        1593.00      6942.35
  999.05        2955.00           2215        1630.00      7103.72
  999.08        2955.25           2218        1590.00      6929.27
  999.11        2955.50           2222        1632.00      7112.44
  999.14        2955.75           2225        1659.00      7230.20
  999.17        2956.00           2229        1640.00      7147.33
  999.20        2956.25           2232        1648.00      7182.22
  999.23        2956.50           2236        1675.00      7299.98
  999.26        2956.75           2239        1655.00      7212.75
  999.30        2957.00           2243        1690.00      7365.40
  999.33        2957.25           2246        1695.00      7387.21
  999.36        2957.50           2250        1698.00      7400.29
  999.39        2957.75           2254        1719.00      7491.88
  999.42        2958.00           2257        1696.00      7391.57
  999.45        2958.25           2261        1714.00      7470.07
  999.48        2958.50           2264        1749.00      7622.73
  999.51        2958.75           2268        1782.00      7766.65
  999.54        2959.00           2271        1732.00      7548.58
  999.57        2959.25           2275        1807.00      7875.69
  999.60        2959.50           2278        1821.00      7936.75
  999.63        2959.75           2282        1844.00      8037.07
  999.66        2960.00           2285        1899.00      8276.96
  999.69        2960.25           2289        1859.00      8102.49
  999.72        2960.50           2293        1905.00      8303.13
  999.75        2960.75           2296        1936.00      8438.34
  999.78        2961.00           2300        2022.00      8813.45
  999.82        2961.25           2303        2202.00      9598.60
  999.85        2961.50           2307        4576.00     19957.74
  999.88        2961.75           2310       10987.00     47969.20
  999.91        2962.00           2314       24216.00    105939.80
  999.94        2962.25           2317       38865.00    170401.10
  999.97        2962.50           2321       60489.00    266076.30
 1000.00        2962.75           2324       77099.00    339994.00
 1000.03        2963.00           2328       97448.00    431063.30
 1000.06        2963.25           2331      112516.00    498866.20
 1000.09        2963.50           2335      133178.00    592356.60
 1000.12        2963.75           2339      154930.00    691432.20
 1000.15        2964.00           2342      171756.00    768536.90
 1000.18        2964.25           2346      195900.00    879897.00
 1000.21        2964.50           2349      214544.00    966478.90
 1000.24        2964.75           2353      236421.00   1068740.00
 1000.27        2965.00           2356      252306.00   1143450.00
 1000.30        2965.25           2360      273206.00   1242338.00
 1000.34        2965.50           2363      288212.00   1313761.00
 1000.37        2965.75           2367      308981.00   1413203.00
 1000.40        2966.00           2370      324509.00   1488004.00
 1000.43        2966.25           2374      343720.00   1581091.00
 1000.46        2966.50           2378      360804.00   1664383.00
 1000.49        2966.75           2381      367590.00   1697603.00
 1000.52        2967.00           2385      370525.00   1711995.00
 1000.55        2967.25           2388      371574.00   1717143.00
 1000.58        2967.50           2392      371837.00   1718433.00
 1000.61        2967.75           2395      371292.00   1715758.00
 1000.64        2968.00           2399      368667.00   1702883.00
 1000.67        2968.25           2402      359721.00   1659088.00
 1000.70        2968.50           2406      343896.00   1581946.00
 1000.73        2968.75           2409      331317.00   1520923.00
 1000.76        2969.00           2413      312556.00   1430390.00
 1000.79        2969.25           2417      291043.00   1327276.00
 1000.82        2969.50           2420      274608.00   1248997.00
 1000.86        2969.75           2424      252438.00   1144072.00
 1000.89        2970.00           2427      235735.00   1065523.00
 1000.92        2970.25           2431      213624.00    962194.30
 1000.95        2970.50           2434      196741.00    883791.40
 1000.98        2970.75           2438      173315.00    775701.80
 1001.01        2971.00           2441      155027.00    691875.50
 1001.04        2971.25           2445      133794.00    595153.10
 1001.07        2971.50           2449      111968.00    496394.80
 1001.10        2971.75           2452       95494.00    422293.70
 1001.13        2972.00           2456       73570.00    324258.00
 1001.16        2972.25           2459       57586.00    253195.60
 1001.19        2972.50           2463       37085.00    162553.30
 1001.22        2972.75           2466       23073.00    100922.00
 1001.25        2973.00           2470        8037.00     35073.18
 1001.28        2973.25           2473        3562.00     15532.18
 1001.31        2973.50           2477        2216.00      9659.67
 1001.34        2973.75           2481        2018.00      8796.00
 1001.37        2974.00           2484        1957.00      8529.94
 1001.41        2974.25           2488        1910.00      8324.94
 1001.44        2974.50           2491        1908.00      8316.21
 1001.47        2974.75           2495        1876.00      8176.64
 1001.50        2975.00           2498        1853.00      8076.32
 1001.53        2975.25           2502        1854.00      8080.69
 1001.56        2975.50           2505        1751.00      7631.45
 1001.59        2975.75           2509        1790.00      7801.55
 1001.62        2976.00           2512        1793.00      7814.63
 1001.65        2976.25           2516        1704.00      7426.46
 1001.68        2976.50           2520        1695.00      7387.21
 1001.71        2976.75           2523        1677.00      7308.70
 1001.74        2977.00           2527        1694.00      7382.85
 1001.77        2977.25           2530        1643.00      7160.42
 1001.80        2977.50           2534        1641.00      7151.70
 1001.83        2977.75           2537        1634.00      7121.17
 1001.86        2978.00           2541        1666.00      7260.73
 1001.89        2978.25           2544        1599.00      6968.52
 1001.93        2978.50           2548        1578.00      6876.94
 1001.96        2978.75           2552        1589.00      6924.91
 1001.99        2979.00           2555        1527.00      6654.51
 1002.02        2979.25           2559        1616.00      7042.66
 1002.05        2979.50           2562        1516.00      6606.54
 1002.08        2979.75           2566        1535.00      6689.40
 1002.11        2980.00           2569        1515.00      6602.18
 1002.14        2980.25           2573        1518.00      6615.26
 1002.17        2980.50           2577        1532.00      6676.32
 1002.20        2980.75           2580        1516.00      6606.54
 1002.23        2981.00           2584        1501.00      6541.12
 1002.26        2981.25           2587        1493.00      6506.23
 1002.29        2981.50           2591        1493.00      6506.23
 1002.32        2981.75           2594        1480.00      6449.54
 1002.35        2982.00           2598        1496.00      6519.32
 1002.38        2982.25           2601        1444.00      6292.54
 1002.41        2982.50           2605        1462.00      6371.04
 1002.45        2982.75           2609        1457.00      6349.23
 1002.48        2983.00           2612        1463.00      6375.40
 1002.51        2983.25           2616        1459.00      6357.96
 1002.54        2983.50           2619        1431.00      6235.85
 1002.57        2983.75           2623        1421.00      6192.24
 1002.60        2984.00           2626        1477.00      6436.46
HS scan finished at 16:42:49
end
