************************************************************
  HS Scan of (1) Internal mercury lamp
************************************************************
Integration time is 0.2294 seconds per sample
dh151217Reading 51.44 .94 2.49pr1000
************************************************************
Dead Time -------------------------  3.4E-08 
Number of Cycles Used -------------  4 
Starting Wavelength (Angstroms) ---  2950 
Final Wavelength (Angstoms) -------  2984 
Wavelength Increment (Angstroms) --  .25 
Filter Wheel #1 Position ---------- (1) Ground quartz diffuser (ND=2.32)
Filter Wheel #2 Position ---------- (1) Neutral Density 0.494



************************************************************
HS scan start time = 05:12:27
Dark Count =  .3 


Time (GMT)  Wavelength (Ang)  Step Number  Raw Counts  Counts/Second

  313.35        2950.00           2144          95.00       412.82
  313.54        2950.25           2147          76.00       329.99
  313.57        2950.50           2151          92.00       399.74
  313.60        2950.75           2155          94.00       408.46
  313.63        2951.00           2158          81.00       351.79
  313.66        2951.25           2162          91.00       395.38
  313.69        2951.50           2165          88.00       382.31
  313.72        2951.75           2169          94.00       408.46
  313.75        2952.00           2172          88.00       382.31
  313.78        2952.25           2176          90.00       391.03
  313.81        2952.50           2179          91.00       395.38
  313.85        2952.75           2183         113.00       491.29
  313.88        2953.00           2186          90.00       391.03
  313.91        2953.25           2190          96.00       417.18
  313.94        2953.50           2193          96.00       417.18
  313.97        2953.75           2197          90.00       391.03
  314.00        2954.00           2200          92.00       399.74
  314.03        2954.25           2204         102.00       443.34
  314.06        2954.50           2208         114.00       495.65
  314.09        2954.75           2211          93.00       404.10
  314.12        2955.00           2215          99.00       430.26
  314.15        2955.25           2218          92.00       399.74
  314.18        2955.50           2222         116.00       504.37
  314.21        2955.75           2225         111.00       482.57
  314.24        2956.00           2229          88.00       382.31
  314.27        2956.25           2232          95.00       412.82
  314.30        2956.50           2236         105.00       456.42
  314.33        2956.75           2239          94.00       408.46
  314.37        2957.00           2243          97.00       421.54
  314.40        2957.25           2246          94.00       408.46
  314.43        2957.50           2250         127.00       552.32
  314.46        2957.75           2254         113.00       491.29
  314.49        2958.00           2257         116.00       504.37
  314.52        2958.25           2261         134.00       582.84
  314.55        2958.50           2264         116.00       504.37
  314.58        2958.75           2268         113.00       491.29
  314.61        2959.00           2271         106.00       460.77
  314.64        2959.25           2275         108.00       469.49
  314.67        2959.50           2278         118.00       513.09
  314.70        2959.75           2282         126.00       547.96
  314.73        2960.00           2285         113.00       491.29
  314.76        2960.25           2289         109.00       473.85
  314.79        2960.50           2293         138.00       600.27
  314.82        2960.75           2296         130.00       565.40
  314.85        2961.00           2300         151.00       656.95
  314.89        2961.25           2303         248.00      1079.81
  314.92        2961.50           2307         931.00      4057.67
  314.95        2961.75           2310        1839.00      8017.44
  314.98        2962.00           2314        3056.00     13326.44
  315.01        2962.25           2317        3987.00     17389.09
  315.04        2962.50           2321        5327.00     23238.50
  315.07        2962.75           2324        6397.00     27910.96
  315.10        2963.00           2328        7910.00     34520.44
  315.13        2963.25           2331        9009.00     39323.25
  315.16        2963.50           2335       10454.00     45640.52
  315.19        2963.75           2339       11994.00     52376.11
  315.22        2964.00           2342       13055.00     57018.46
  315.25        2964.25           2346       14767.00     64512.32
  315.28        2964.50           2349       15688.00     68545.35
  315.31        2964.75           2353       17154.00     74967.22
  315.34        2965.00           2356       18395.00     80405.65
  315.37        2965.25           2360       19806.00     86591.52
  315.41        2965.50           2363       20887.00     91332.44
  315.44        2965.75           2367       22182.00     97013.89
  315.47        2966.00           2370       23165.00    101328.00
  315.50        2966.25           2374       24104.00    105450.20
  315.53        2966.50           2378       24741.00    108247.30
  315.56        2966.75           2381       24879.00    108853.30
  315.59        2967.00           2385       24828.00    108629.30
  315.62        2967.25           2388       25107.00    109854.60
  315.65        2967.50           2392       24922.00    109042.10
  315.68        2967.75           2395       24408.00    106785.00
  315.71        2968.00           2399       23586.00    103176.00
  315.74        2968.25           2402       22547.00     98615.62
  315.77        2968.50           2406       21208.00     92740.53
  315.80        2968.75           2409       20185.00     88253.52
  315.83        2969.00           2413       18848.00     82391.33
  315.86        2969.25           2417       17529.00     76610.36
  315.89        2969.50           2420       16424.00     71769.06
  315.92        2969.75           2424       15038.00     65698.91
  315.96        2970.00           2427       13960.00     60979.40
  315.99        2970.25           2431       12371.00     54025.48
  316.02        2970.50           2434       11220.00     48990.43
  316.05        2970.75           2438        9903.00     43231.33
  316.08        2971.00           2441        8792.00     38374.80
  316.11        2971.25           2445        7462.00     32563.06
  316.14        2971.50           2449        6163.00     26889.00
  316.17        2971.75           2452        4948.00     21583.84
  316.20        2972.00           2456        3569.00     15564.90
  316.23        2972.25           2459        2636.00     11494.03
  316.26        2972.50           2463        1527.00      6656.69
  316.29        2972.75           2466         791.00      3447.22
  316.32        2973.00           2470         230.00      1001.34
  316.35        2973.25           2473         145.00       630.79
  316.38        2973.50           2477         130.00       565.40
  316.41        2973.75           2481         120.00       521.81
  316.45        2974.00           2484         151.00       656.95
  316.48        2974.25           2488         130.00       565.40
  316.51        2974.50           2491         125.00       543.60
  316.54        2974.75           2495         105.00       456.42
  316.57        2975.00           2498         113.00       491.29
  316.60        2975.25           2502         123.00       534.88
  316.63        2975.50           2505         125.00       543.60
  316.66        2975.75           2509         105.00       456.42
  316.69        2976.00           2512         133.00       578.48
  316.72        2976.25           2516         142.00       617.71
  316.75        2976.50           2520         104.00       452.06
  316.78        2976.75           2523         123.00       534.88
  316.81        2977.00           2527         101.00       438.98
  316.84        2977.25           2530          96.00       417.18
  316.87        2977.50           2534         119.00       517.45
  316.90        2977.75           2537         102.00       443.34
  316.93        2978.00           2541         103.00       447.70
  316.97        2978.25           2544          95.00       412.82
  317.00        2978.50           2548          99.00       430.26
  317.03        2978.75           2552          92.00       399.74
  317.06        2979.00           2555          97.00       421.54
  317.09        2979.25           2559          86.00       373.59
  317.12        2979.50           2562          98.00       425.90
  317.15        2979.75           2566          96.00       417.18
  317.18        2980.00           2569          89.00       386.67
  317.21        2980.25           2573          92.00       399.74
  317.24        2980.50           2577          88.00       382.31
  317.27        2980.75           2580         108.00       469.49
  317.30        2981.00           2584          96.00       417.18
  317.33        2981.25           2587          88.00       382.31
  317.36        2981.50           2591          94.00       408.46
  317.39        2981.75           2594          86.00       373.59
  317.42        2982.00           2598          88.00       382.31
  317.45        2982.25           2601          85.00       369.23
  317.48        2982.50           2605          93.00       404.10
  317.52        2982.75           2609          91.00       395.38
  317.55        2983.00           2612         105.00       456.42
  317.58        2983.25           2616          89.00       386.67
  317.61        2983.50           2619          86.00       373.59
  317.64        2983.75           2623          90.00       391.03
  317.67        2984.00           2626          86.00       373.59
HS scan finished at 05:17:53
end
************************************************************
  HS Scan of (1) Internal mercury lamp
************************************************************
Integration time is 0.2294 seconds per sample
dh151217Reading 51.44 .94 2.78pr1000
************************************************************
Dead Time -------------------------  3.4E-08 
Number of Cycles Used -------------  4 
Starting Wavelength (Angstroms) ---  2950 
Final Wavelength (Angstoms) -------  2984 
Wavelength Increment (Angstroms) --  .25 
Filter Wheel #1 Position ---------- (1) Ground quartz diffuser (ND=2.32)
Filter Wheel #2 Position ---------- (1) Neutral Density 0.494



************************************************************
HS scan start time = 16:37:23
Dark Count =  .7 


Time (GMT)  Wavelength (Ang)  Step Number  Raw Counts  Counts/Second

  998.28        2950.00           2144          82.00       354.41
  998.47        2950.25           2147          84.00       363.13
  998.50        2950.50           2151          85.00       367.49
  998.53        2950.75           2155          90.00       389.28
  998.56        2951.00           2158          81.00       350.05
  998.59        2951.25           2162          91.00       393.64
  998.62        2951.50           2165          96.00       415.44
  998.65        2951.75           2169          78.00       336.97
  998.69        2952.00           2172          87.00       376.20
  998.72        2952.25           2176          89.00       384.92
  998.75        2952.50           2179          95.00       411.08
  998.78        2952.75           2183          82.00       354.41
  998.81        2953.00           2186          87.00       376.20
  998.84        2953.25           2190          81.00       350.05
  998.87        2953.50           2193          82.00       354.41
  998.90        2953.75           2197          86.00       371.84
  998.93        2954.00           2200          88.00       380.56
  998.96        2954.25           2204          83.00       358.77
  998.99        2954.50           2208          94.00       406.72
  999.02        2954.75           2211          92.00       398.00
  999.05        2955.00           2215          91.00       393.64
  999.08        2955.25           2218          92.00       398.00
  999.11        2955.50           2222          89.00       384.92
  999.14        2955.75           2225          95.00       411.08
  999.17        2956.00           2229         115.00       498.26
  999.20        2956.25           2232          94.00       406.72
  999.24        2956.50           2236          89.00       384.92
  999.27        2956.75           2239          91.00       393.64
  999.30        2957.00           2243          90.00       389.28
  999.33        2957.25           2246          92.00       398.00
  999.36        2957.50           2250          92.00       398.00
  999.39        2957.75           2254          95.00       411.08
  999.42        2958.00           2257          99.00       428.52
  999.45        2958.25           2261         114.00       493.91
  999.48        2958.50           2264         123.00       533.14
  999.51        2958.75           2268          97.00       419.80
  999.54        2959.00           2271         103.00       445.95
  999.57        2959.25           2275          94.00       406.72
  999.60        2959.50           2278         117.00       506.98
  999.63        2959.75           2282         158.00       685.72
  999.66        2960.00           2285         128.00       554.94
  999.69        2960.25           2289         107.00       463.39
  999.72        2960.50           2293         148.00       642.12
  999.76        2960.75           2296         130.00       563.66
  999.79        2961.00           2300         154.00       668.28
  999.82        2961.25           2303         167.00       724.95
  999.85        2961.50           2307         544.00      2368.54
  999.88        2961.75           2310        1155.00      5032.68
  999.91        2962.00           2314        2206.00      9616.48
  999.94        2962.25           2317        3145.00     13713.02
  999.97        2962.50           2321        4625.00     20172.07
 1000.00        2962.75           2324        5782.00     25223.45
 1000.03        2963.00           2328        7140.00     31154.60
 1000.06        2963.25           2331        8215.00     35851.43
 1000.09        2963.50           2335        9599.00     41900.54
 1000.12        2963.75           2339       11254.00     49137.39
 1000.15        2964.00           2342       12481.00     54505.01
 1000.18        2964.25           2346       14057.00     61402.25
 1000.21        2964.50           2349       15100.00     65968.63
 1000.24        2964.75           2353       16514.00     72161.59
 1000.28        2965.00           2356       17530.00     76613.00
 1000.31        2965.25           2360       18968.00     82915.65
 1000.34        2965.50           2363       20111.00     87927.24
 1000.37        2965.75           2367       21339.00     93313.46
 1000.40        2966.00           2370       22264.00     97371.97
 1000.43        2966.25           2374       23711.00    103723.00
 1000.46        2966.50           2378       24350.00    106528.60
 1000.49        2966.75           2381       24426.00    106862.30
 1000.52        2967.00           2385       24433.00    106893.00
 1000.55        2967.25           2388       24412.00    106800.80
 1000.58        2967.50           2392       24072.00    105308.00
 1000.61        2967.75           2395       24014.00    105053.30
 1000.64        2968.00           2399       23256.00    101725.70
 1000.67        2968.25           2402       22963.00    100439.60
 1000.70        2968.50           2406       21405.00     93603.00
 1000.73        2968.75           2409       20227.00     88435.97
 1000.76        2969.00           2413       18779.00     82087.11
 1000.80        2969.25           2417       17282.00     75526.31
 1000.83        2969.50           2420       16498.00     72091.50
 1000.86        2969.75           2424       15243.00     66594.81
 1000.89        2970.00           2427       14159.00     61848.76
 1000.92        2970.25           2431       12533.00     54732.54
 1000.95        2970.50           2434       11629.00     50777.65
 1000.98        2970.75           2438        9734.00     42490.73
 1001.01        2971.00           2441        8625.00     37643.18
 1001.04        2971.25           2445        7424.00     32395.30
 1001.07        2971.50           2449        6156.00     26856.68
 1001.10        2971.75           2452        5082.00     22167.10
 1001.13        2972.00           2456        3560.00     15523.89
 1001.16        2972.25           2459        2546.00     11099.65
 1001.19        2972.50           2463        1348.00      5874.32
 1001.22        2972.75           2466         666.00      2900.46
 1001.25        2973.00           2470         215.00       934.21
 1001.28        2973.25           2473         147.00       637.76
 1001.32        2973.50           2477         123.00       533.14
 1001.35        2973.75           2481         139.00       602.89
 1001.38        2974.00           2484         137.00       594.17
 1001.41        2974.25           2488         106.00       459.03
 1001.44        2974.50           2491         107.00       463.39
 1001.47        2974.75           2495         146.00       633.41
 1001.50        2975.00           2498         108.00       467.75
 1001.53        2975.25           2502         102.00       441.59
 1001.56        2975.50           2505         105.00       454.67
 1001.59        2975.75           2509         106.00       459.03
 1001.62        2976.00           2512          92.00       398.00
 1001.65        2976.25           2516         103.00       445.95
 1001.68        2976.50           2520         102.00       441.59
 1001.71        2976.75           2523          95.00       411.08
 1001.74        2977.00           2527          97.00       419.80
 1001.77        2977.25           2530          88.00       380.56
 1001.80        2977.50           2534         133.00       576.73
 1001.84        2977.75           2537          90.00       389.28
 1001.87        2978.00           2541          90.00       389.28
 1001.90        2978.25           2544         106.00       459.03
 1001.93        2978.50           2548          91.00       393.64
 1001.96        2978.75           2552          87.00       376.20
 1001.99        2979.00           2555          82.00       354.41
 1002.02        2979.25           2559          93.00       402.36
 1002.05        2979.50           2562          91.00       393.64
 1002.08        2979.75           2566         103.00       445.95
 1002.11        2980.00           2569          84.00       363.13
 1002.14        2980.25           2573          97.00       419.80
 1002.17        2980.50           2577          94.00       406.72
 1002.20        2980.75           2580          89.00       384.92
 1002.23        2981.00           2584          81.00       350.05
 1002.26        2981.25           2587          87.00       376.20
 1002.29        2981.50           2591          86.00       371.84
 1002.32        2981.75           2594          91.00       393.64
 1002.36        2982.00           2598          90.00       389.28
 1002.39        2982.25           2601          88.00       380.56
 1002.42        2982.50           2605          86.00       371.84
 1002.45        2982.75           2609          76.00       328.25
 1002.48        2983.00           2612         108.00       467.75
 1002.51        2983.25           2616          81.00       350.05
 1002.54        2983.50           2619          72.00       310.81
 1002.57        2983.75           2623          82.00       354.41
 1002.60        2984.00           2626          83.00       358.77
HS scan finished at 16:42:49
end
