************************************************************
  HS Scan of (1) Internal mercury lamp
************************************************************
Integration time is 0.2294 seconds per sample
dh091217Reading 51.44 .94 2.23pr1000
************************************************************
Dead Time -------------------------  3.4E-08 
Number of Cycles Used -------------  4 
Starting Wavelength (Angstroms) ---  2950 
Final Wavelength (Angstoms) -------  2984 
Wavelength Increment (Angstroms) --  .25 
Filter Wheel #1 Position ---------- (1) Ground quartz diffuser (ND=2.32)
Filter Wheel #2 Position ---------- (1) Neutral Density 0.494



************************************************************
HS scan start time = 05:07:35
Dark Count =  .2 


Time (GMT)  Wavelength (Ang)  Step Number  Raw Counts  Counts/Second

  308.49        2950.00           2144         219.00       953.82
  308.68        2950.25           2147         220.00       958.18
  308.72        2950.50           2151         203.00       884.07
  308.76        2950.75           2155         216.00       940.75
  308.79        2951.00           2158         215.00       936.39
  308.82        2951.25           2162         215.00       936.39
  308.85        2951.50           2165         203.00       884.07
  308.88        2951.75           2169         223.00       971.26
  308.92        2952.00           2172         205.00       892.79
  308.95        2952.25           2176         210.00       914.59
  308.98        2952.50           2179         214.00       932.03
  309.01        2952.75           2183         209.00       910.23
  309.04        2953.00           2186         205.00       892.79
  309.07        2953.25           2190         217.00       945.10
  309.11        2953.50           2193         230.00      1001.78
  309.14        2953.75           2197         210.00       914.59
  309.17        2954.00           2200         232.00      1010.50
  309.20        2954.25           2204         219.00       953.82
  309.23        2954.50           2208         236.00      1027.93
  309.26        2954.75           2211         237.00      1032.29
  309.29        2955.00           2215         231.00      1006.14
  309.32        2955.25           2218         235.00      1023.58
  309.35        2955.50           2222         231.00      1006.14
  309.38        2955.75           2225         220.00       958.18
  309.42        2956.00           2229         227.00       988.70
  309.46        2956.25           2232         228.00       993.06
  309.49        2956.50           2236         233.00      1014.86
  309.52        2956.75           2239         270.00      1176.16
  309.55        2957.00           2243         232.00      1010.50
  309.58        2957.25           2246         226.00       984.34
  309.61        2957.50           2250         255.00      1110.77
  309.64        2957.75           2254         228.00       993.06
  309.67        2958.00           2257         250.00      1088.97
  309.70        2958.25           2261         232.00      1010.50
  309.73        2958.50           2264         246.00      1071.53
  309.76        2958.75           2268         252.00      1097.69
  309.79        2959.00           2271         294.00      1280.79
  309.82        2959.25           2275         267.00      1163.08
  309.85        2959.50           2278         281.00      1224.11
  309.89        2959.75           2282         257.00      1119.48
  309.92        2960.00           2285         271.00      1180.52
  309.95        2960.25           2289         282.00      1228.47
  309.98        2960.50           2293         284.00      1237.19
  310.01        2960.75           2296         289.00      1258.99
  310.04        2961.00           2300         315.00      1372.34
  310.07        2961.25           2303         485.00      2113.49
  310.10        2961.50           2307        1610.00      7019.11
  310.13        2961.75           2310        3528.00     15386.43
  310.16        2962.00           2314        6973.00     30427.28
  310.19        2962.25           2317        9836.00     42938.85
  310.22        2962.50           2321       13967.00     61010.48
  310.25        2962.75           2324       16911.00     73903.00
  310.28        2963.00           2328       20936.00     91547.81
  310.31        2963.25           2331       24191.00    105832.60
  310.34        2963.50           2335       28233.00    123590.60
  310.37        2963.75           2339       32048.00    140371.00
  310.41        2964.00           2342       35010.00    153412.80
  310.44        2964.25           2346       39009.00    171038.90
  310.47        2964.50           2349       42155.00    184920.10
  310.50        2964.75           2353       46235.00    202942.10
  310.53        2965.00           2356       49143.00    215800.80
  310.56        2965.25           2360       53334.00    234352.50
  310.59        2965.50           2363       56368.00    247797.40
  310.62        2965.75           2367       59958.00    263722.00
  310.65        2966.00           2370       62668.00    275754.70
  310.68        2966.25           2374       66140.00    291185.10
  310.71        2966.50           2378       68262.00    300623.80
  310.74        2966.75           2381       68864.00    303302.60
  310.77        2967.00           2385       68979.00    303814.40
  310.80        2967.25           2388       69298.00    305234.10
  310.83        2967.50           2392       68873.00    303342.70
  310.86        2967.75           2395       68705.00    302595.00
  310.89        2968.00           2399       67191.00    295859.20
  310.93        2968.25           2402       64592.00    284303.40
  310.96        2968.50           2406       61574.00    270896.00
  310.99        2968.75           2409       59228.00    260482.50
  311.02        2969.00           2413       55015.00    241800.20
  311.05        2969.25           2417       51133.00    224606.70
  311.08        2969.50           2420       48084.00    211116.80
  311.11        2969.75           2424       44325.00    194502.60
  311.14        2970.00           2427       41339.00    181318.40
  311.17        2970.25           2431       37466.00    164235.40
  311.20        2970.50           2434       33983.00    148889.60
  311.23        2970.75           2438       29598.00    129592.40
  311.26        2971.00           2441       26670.00    116721.20
  311.29        2971.25           2445       22696.00     99269.99
  311.32        2971.50           2449       18731.00     81878.90
  311.35        2971.75           2452       15735.00     68751.63
  311.38        2972.00           2456       11823.00     51628.48
  311.41        2972.25           2459        9000.00     39284.35
  311.45        2972.50           2463        5353.00     23352.45
  311.48        2972.75           2466        2993.00     13052.00
  311.51        2973.00           2470         938.00      4088.62
  311.54        2973.25           2473         413.00      1799.59
  311.57        2973.50           2477         288.00      1254.63
  311.60        2973.75           2481         292.00      1272.07
  311.63        2974.00           2484         286.00      1245.91
  311.66        2974.25           2488         283.00      1232.83
  311.69        2974.50           2491         281.00      1224.11
  311.72        2974.75           2495         238.00      1036.65
  311.75        2975.00           2498         266.00      1158.72
  311.78        2975.25           2502         257.00      1119.48
  311.81        2975.50           2505         253.00      1102.05
  311.84        2975.75           2509         280.00      1219.75
  311.87        2976.00           2512         251.00      1093.33
  311.90        2976.25           2516         237.00      1032.29
  311.93        2976.50           2520         223.00       971.26
  311.97        2976.75           2523         228.00       993.06
  312.00        2977.00           2527         225.00       979.98
  312.03        2977.25           2530         219.00       953.82
  312.06        2977.50           2534         225.00       979.98
  312.09        2977.75           2537         206.00       897.15
  312.12        2978.00           2541         199.00       866.63
  312.15        2978.25           2544         210.00       914.59
  312.18        2978.50           2548         201.00       875.35
  312.21        2978.75           2552         197.00       857.92
  312.24        2979.00           2555         212.00       923.31
  312.27        2979.25           2559         198.00       862.27
  312.30        2979.50           2562         195.00       849.20
  312.33        2979.75           2566         188.00       818.68
  312.36        2980.00           2569         187.00       814.32
  312.39        2980.25           2573         182.00       792.52
  312.42        2980.50           2577         201.00       875.35
  312.45        2980.75           2580         178.00       775.09
  312.49        2981.00           2584         196.00       853.56
  312.52        2981.25           2587         184.00       801.24
  312.55        2981.50           2591         193.00       840.48
  312.58        2981.75           2594         172.00       748.93
  312.61        2982.00           2598         193.00       840.48
  312.64        2982.25           2601         181.00       788.16
  312.67        2982.50           2605         188.00       818.68
  312.70        2982.75           2609         176.00       766.37
  312.73        2983.00           2612         177.00       770.73
  312.76        2983.25           2616         174.00       757.65
  312.79        2983.50           2619         169.00       735.85
  312.82        2983.75           2623         170.00       740.21
  312.85        2984.00           2626         172.00       748.93
HS scan finished at 05:13:05
end
************************************************************
  HS Scan of (1) Internal mercury lamp
************************************************************
Integration time is 0.2294 seconds per sample
dh091217Reading 51.44 .94 2.58pr1000
************************************************************
Dead Time -------------------------  3.4E-08 
Number of Cycles Used -------------  4 
Starting Wavelength (Angstroms) ---  2950 
Final Wavelength (Angstoms) -------  2984 
Wavelength Increment (Angstroms) --  .25 
Filter Wheel #1 Position ---------- (1) Ground quartz diffuser (ND=2.32)
Filter Wheel #2 Position ---------- (1) Neutral Density 0.494



************************************************************
HS scan start time = 16:37:23
Dark Count =  .3 


Time (GMT)  Wavelength (Ang)  Step Number  Raw Counts  Counts/Second

  998.27        2950.00           2144          78.00       338.71
  998.47        2950.25           2147          82.00       356.15
  998.50        2950.50           2151          77.00       334.35
  998.53        2950.75           2155          82.00       356.15
  998.56        2951.00           2158          86.00       373.59
  998.59        2951.25           2162          89.00       386.67
  998.62        2951.50           2165          86.00       373.59
  998.65        2951.75           2169          94.00       408.46
  998.68        2952.00           2172          83.00       360.51
  998.71        2952.25           2176          83.00       360.51
  998.74        2952.50           2179          89.00       386.67
  998.77        2952.75           2183          89.00       386.67
  998.80        2953.00           2186          85.00       369.23
  998.84        2953.25           2190          88.00       382.31
  998.87        2953.50           2193          84.00       364.87
  998.90        2953.75           2197          81.00       351.79
  998.93        2954.00           2200          84.00       364.87
  998.96        2954.25           2204          95.00       412.82
  998.99        2954.50           2208          88.00       382.31
  999.02        2954.75           2211          91.00       395.38
  999.05        2955.00           2215          94.00       408.46
  999.08        2955.25           2218         105.00       456.42
  999.11        2955.50           2222          96.00       417.18
  999.14        2955.75           2225          94.00       408.46
  999.17        2956.00           2229          94.00       408.46
  999.20        2956.25           2232         101.00       438.98
  999.23        2956.50           2236         101.00       438.98
  999.26        2956.75           2239          93.00       404.10
  999.29        2957.00           2243         104.00       452.06
  999.32        2957.25           2246         109.00       473.85
  999.36        2957.50           2250          94.00       408.46
  999.39        2957.75           2254          95.00       412.82
  999.42        2958.00           2257          99.00       430.26
  999.45        2958.25           2261          91.00       395.38
  999.48        2958.50           2264          94.00       408.46
  999.51        2958.75           2268         101.00       438.98
  999.54        2959.00           2271          97.00       421.54
  999.57        2959.25           2275         104.00       452.06
  999.60        2959.50           2278         103.00       447.70
  999.63        2959.75           2282         113.00       491.29
  999.66        2960.00           2285         127.00       552.32
  999.69        2960.25           2289         109.00       473.85
  999.72        2960.50           2293         102.00       443.34
  999.75        2960.75           2296         113.00       491.29
  999.78        2961.00           2300         153.00       665.66
  999.81        2961.25           2303         289.00      1258.55
  999.84        2961.50           2307        1004.00      4375.98
  999.87        2961.75           2310        1677.00      7310.88
  999.91        2962.00           2314        2753.00     12004.46
  999.94        2962.25           2317        3651.00     15922.74
  999.97        2962.50           2321        4983.00     21736.64
 1000.00        2962.75           2324        6085.00     26548.36
 1000.03        2963.00           2328        7432.00     32432.00
 1000.07        2963.25           2331        8297.00     36211.52
 1000.10        2963.50           2335        9446.00     41233.45
 1000.13        2963.75           2339       10887.00     47534.04
 1000.16        2964.00           2342       11891.00     51925.51
 1000.19        2964.25           2346       13417.00     58602.71
 1000.22        2964.50           2349       14382.00     62826.74
 1000.25        2964.75           2353       15789.00     68987.70
 1000.28        2965.00           2356       16739.00     73149.01
 1000.31        2965.25           2360       18021.00     78766.46
 1000.34        2965.50           2363       18787.00     82123.94
 1000.37        2965.75           2367       20167.00     88174.58
 1000.40        2966.00           2370       20907.00     91420.16
 1000.43        2966.25           2374       22022.00     96311.81
 1000.46        2966.50           2378       22559.00     98668.29
 1000.49        2966.75           2381       22564.00     98690.22
 1000.52        2967.00           2385       22492.00     98374.27
 1000.55        2967.25           2388       22391.00     97931.03
 1000.59        2967.50           2392       22157.00     96904.19
 1000.62        2967.75           2395       22093.00     96623.37
 1000.65        2968.00           2399       21523.00     94122.44
 1000.68        2968.25           2402       20595.00     90051.66
 1000.71        2968.50           2406       19788.00     86512.59
 1000.74        2968.75           2409       19019.00     83140.96
 1000.77        2969.00           2413       17798.00     77789.16
 1000.80        2969.25           2417       16179.00     70695.88
 1000.83        2969.50           2420       15260.00     66671.02
 1000.86        2969.75           2424       13922.00     60813.07
 1000.89        2970.00           2427       13155.00     57456.07
 1000.92        2970.25           2431       11585.00     50586.94
 1000.95        2970.50           2434       10433.00     45548.69
 1000.98        2970.75           2438        9208.00     40193.08
 1001.01        2971.00           2441        8237.00     35949.32
 1001.04        2971.25           2445        6865.00     29955.08
 1001.07        2971.50           2449        5442.00     23740.61
 1001.10        2971.75           2452        4340.00     18929.79
 1001.14        2972.00           2456        3158.00     13771.49
 1001.17        2972.25           2459        2305.00     10050.08
 1001.20        2972.50           2463        1278.00      5570.80
 1001.23        2972.75           2466         638.00      2780.12
 1001.26        2973.00           2470         190.00       826.96
 1001.29        2973.25           2473         131.00       569.76
 1001.32        2973.50           2477         115.00       500.01
 1001.35        2973.75           2481         148.00       643.87
 1001.38        2974.00           2484         133.00       578.48
 1001.41        2974.25           2488         136.00       591.56
 1001.44        2974.50           2491         138.00       600.27
 1001.47        2974.75           2495          99.00       430.26
 1001.50        2975.00           2498         120.00       521.81
 1001.53        2975.25           2502         143.00       622.07
 1001.56        2975.50           2505         122.00       530.52
 1001.59        2975.75           2509         103.00       447.70
 1001.62        2976.00           2512         113.00       491.29
 1001.66        2976.25           2516          95.00       412.82
 1001.69        2976.50           2520          93.00       404.10
 1001.72        2976.75           2523          96.00       417.18
 1001.75        2977.00           2527          96.00       417.18
 1001.78        2977.25           2530          94.00       408.46
 1001.81        2977.50           2534          90.00       391.03
 1001.84        2977.75           2537          93.00       404.10
 1001.87        2978.00           2541          89.00       386.67
 1001.90        2978.25           2544          86.00       373.59
 1001.93        2978.50           2548          97.00       421.54
 1001.96        2978.75           2552          86.00       373.59
 1001.99        2979.00           2555          90.00       391.03
 1002.02        2979.25           2559          87.00       377.95
 1002.05        2979.50           2562          90.00       391.03
 1002.08        2979.75           2566          89.00       386.67
 1002.11        2980.00           2569          82.00       356.15
 1002.14        2980.25           2573          82.00       356.15
 1002.18        2980.50           2577          80.00       347.43
 1002.21        2980.75           2580          82.00       356.15
 1002.24        2981.00           2584          80.00       347.43
 1002.27        2981.25           2587          97.00       421.54
 1002.30        2981.50           2591          84.00       364.87
 1002.33        2981.75           2594          86.00       373.59
 1002.36        2982.00           2598          91.00       395.38
 1002.39        2982.25           2601          77.00       334.35
 1002.42        2982.50           2605          84.00       364.87
 1002.45        2982.75           2609          82.00       356.15
 1002.48        2983.00           2612          81.00       351.79
 1002.51        2983.25           2616          81.00       351.79
 1002.54        2983.50           2619          85.00       369.23
 1002.57        2983.75           2623          84.00       364.87
 1002.60        2984.00           2626          77.00       334.35
HS scan finished at 16:42:50
end
