************************************************************
  HS Scan of (1) Internal mercury lamp
************************************************************
Integration time is 0.2294 seconds per sample
dh081217Reading 51.44 .94 2.41pr1000
************************************************************
Dead Time -------------------------  3.4E-08 
Number of Cycles Used -------------  4 
Starting Wavelength (Angstroms) ---  2950 
Final Wavelength (Angstoms) -------  2984 
Wavelength Increment (Angstroms) --  .25 
Filter Wheel #1 Position ---------- (1) Ground quartz diffuser (ND=2.32)
Filter Wheel #2 Position ---------- (1) Neutral Density 0.494



************************************************************
HS scan start time = 05:06:40
Dark Count =  .3 


Time (GMT)  Wavelength (Ang)  Step Number  Raw Counts  Counts/Second

  307.56        2950.00           2144         100.00       434.62
  307.75        2950.25           2147          93.00       404.10
  307.78        2950.50           2151         117.00       508.73
  307.81        2950.75           2155         103.00       447.70
  307.84        2951.00           2158          99.00       430.26
  307.87        2951.25           2162         121.00       526.16
  307.90        2951.50           2165         105.00       456.42
  307.95        2951.75           2169          98.00       425.90
  307.98        2952.00           2172         100.00       434.62
  308.01        2952.25           2176         153.00       665.66
  308.04        2952.50           2179          98.00       425.90
  308.07        2952.75           2183         103.00       447.70
  308.10        2953.00           2186         103.00       447.70
  308.13        2953.25           2190          93.00       404.10
  308.16        2953.50           2193         105.00       456.42
  308.20        2953.75           2197         104.00       452.06
  308.23        2954.00           2200         122.00       530.52
  308.26        2954.25           2204         123.00       534.88
  308.29        2954.50           2208         104.00       452.06
  308.32        2954.75           2211         102.00       443.34
  308.35        2955.00           2215         103.00       447.70
  308.38        2955.25           2218         109.00       473.85
  308.41        2955.50           2222         147.00       639.51
  308.44        2955.75           2225         110.00       478.21
  308.47        2956.00           2229         133.00       578.48
  308.50        2956.25           2232         131.00       569.76
  308.53        2956.50           2236         112.00       486.93
  308.56        2956.75           2239         130.00       565.40
  308.59        2957.00           2243         113.00       491.29
  308.62        2957.25           2246         166.00       722.34
  308.65        2957.50           2250         113.00       491.29
  308.69        2957.75           2254         120.00       521.81
  308.72        2958.00           2257         127.00       552.32
  308.75        2958.25           2261         127.00       552.32
  308.78        2958.50           2264         114.00       495.65
  308.81        2958.75           2268         160.00       696.18
  308.84        2959.00           2271         137.00       595.91
  308.87        2959.25           2275         170.00       739.77
  308.90        2959.50           2278         168.00       731.06
  308.93        2959.75           2282         137.00       595.91
  308.96        2960.00           2285         140.00       608.99
  308.99        2960.25           2289         117.00       508.73
  309.02        2960.50           2293         132.00       574.12
  309.05        2960.75           2296         140.00       608.99
  309.08        2961.00           2300         166.00       722.34
  309.11        2961.25           2303         314.00      1367.54
  309.14        2961.50           2307        1119.00      4877.44
  309.17        2961.75           2310        2028.00      8841.80
  309.21        2962.00           2314        3459.00     15084.89
  309.24        2962.25           2317        4653.00     20296.04
  309.27        2962.50           2321        6303.00     27500.42
  309.30        2962.75           2324        7814.00     34100.98
  309.33        2963.00           2328        9850.00     42999.62
  309.36        2963.25           2331       11187.00     48846.10
  309.39        2963.50           2335       13137.00     57377.30
  309.42        2963.75           2339       14829.00     64783.79
  309.45        2964.00           2342       16109.00     70389.28
  309.48        2964.25           2346       18063.00     78950.53
  309.51        2964.50           2349       19374.00     84697.34
  309.54        2964.75           2353       21038.00     91994.79
  309.57        2965.00           2356       22467.00     98264.54
  309.60        2965.25           2360       24238.00    106038.50
  309.63        2965.50           2363       25240.00    110438.80
  309.66        2965.75           2367       26713.00    116909.70
  309.69        2966.00           2370       28020.00    122653.80
  309.73        2966.25           2374       29124.00    127507.60
  309.76        2966.50           2378       30088.00    131747.10
  309.79        2966.75           2381       30247.00    132446.40
  309.82        2967.00           2385       30183.00    132164.90
  309.85        2967.25           2388       30309.00    132719.20
  309.88        2967.50           2392       30251.00    132464.00
  309.91        2967.75           2395       29981.00    131276.40
  309.94        2968.00           2399       29105.00    127424.00
  309.97        2968.25           2402       27512.00    120421.00
  310.00        2968.50           2406       26028.00    113900.10
  310.03        2968.75           2409       24735.00    108220.90
  310.06        2969.00           2413       23183.00    101407.00
  310.09        2969.25           2417       21370.00     93451.21
  310.12        2969.50           2420       20358.00     89012.22
  310.15        2969.75           2424       18448.00     80637.96
  310.18        2970.00           2427       17075.00     74621.08
  310.21        2970.25           2431       15224.00     66513.38
  310.25        2970.50           2434       13978.00     61058.19
  310.28        2970.75           2438       12205.00     53299.20
  310.31        2971.00           2441       10934.00     47739.59
  310.34        2971.25           2445        9117.00     39795.31
  310.37        2971.50           2449        7298.00     31846.59
  310.40        2971.75           2452        5837.00     25465.37
  310.43        2972.00           2456        4208.00     18353.65
  310.47        2972.25           2459        3070.00     13387.52
  310.50        2972.50           2463        1573.00      6857.31
  310.53        2972.75           2466         730.00      3181.25
  310.56        2973.00           2470         247.00      1075.45
  310.59        2973.25           2473         171.00       744.13
  310.62        2973.50           2477         157.00       683.10
  310.65        2973.75           2481         156.00       678.74
  310.68        2974.00           2484         133.00       578.48
  310.71        2974.25           2488         132.00       574.12
  310.74        2974.50           2491         143.00       622.07
  310.77        2974.75           2495         133.00       578.48
  310.80        2975.00           2498         135.00       587.20
  310.83        2975.25           2502         141.00       613.35
  310.86        2975.50           2505         120.00       521.81
  310.89        2975.75           2509         120.00       521.81
  310.92        2976.00           2512         124.00       539.24
  310.96        2976.25           2516         116.00       504.37
  310.99        2976.50           2520         129.00       561.04
  311.02        2976.75           2523         151.00       656.95
  311.05        2977.00           2527         111.00       482.57
  311.08        2977.25           2530         125.00       543.60
  311.11        2977.50           2534         105.00       456.42
  311.14        2977.75           2537         120.00       521.81
  311.17        2978.00           2541         107.00       465.13
  311.20        2978.25           2544         129.00       561.04
  311.23        2978.50           2548         127.00       552.32
  311.26        2978.75           2552         112.00       486.93
  311.29        2979.00           2555         101.00       438.98
  311.32        2979.25           2559         122.00       530.52
  311.35        2979.50           2562         104.00       452.06
  311.38        2979.75           2566         102.00       443.34
  311.41        2980.00           2569          96.00       417.18
  311.44        2980.25           2573         106.00       460.77
  311.48        2980.50           2577         119.00       517.45
  311.51        2980.75           2580         106.00       460.77
  311.54        2981.00           2584         110.00       478.21
  311.57        2981.25           2587          99.00       430.26
  311.60        2981.50           2591         111.00       482.57
  311.63        2981.75           2594          85.00       369.23
  311.66        2982.00           2598          90.00       391.03
  311.69        2982.25           2601         137.00       595.91
  311.72        2982.50           2605         115.00       500.01
  311.75        2982.75           2609          92.00       399.74
  311.78        2983.00           2612         106.00       460.77
  311.81        2983.25           2616          84.00       364.87
  311.84        2983.50           2619          94.00       408.46
  311.87        2983.75           2623          96.00       417.18
  311.90        2984.00           2626          85.00       369.23
HS scan finished at 05:12:07
end
************************************************************
  HS Scan of (1) Internal mercury lamp
************************************************************
Integration time is 0.2294 seconds per sample
dh081217Reading 51.44 .94 2.54pr1000
************************************************************
Dead Time -------------------------  3.4E-08 
Number of Cycles Used -------------  4 
Starting Wavelength (Angstroms) ---  2950 
Final Wavelength (Angstoms) -------  2984 
Wavelength Increment (Angstroms) --  .25 
Filter Wheel #1 Position ---------- (1) Ground quartz diffuser (ND=2.32)
Filter Wheel #2 Position ---------- (1) Neutral Density 0.494



************************************************************
HS scan start time = 16:37:24
Dark Count =  .3 


Time (GMT)  Wavelength (Ang)  Step Number  Raw Counts  Counts/Second

  998.29        2950.00           2144          93.00       404.10
  998.49        2950.25           2147          91.00       395.38
  998.52        2950.50           2151          87.00       377.95
  998.55        2950.75           2155          86.00       373.59
  998.58        2951.00           2158         101.00       438.98
  998.61        2951.25           2162          95.00       412.82
  998.64        2951.50           2165          89.00       386.67
  998.67        2951.75           2169          90.00       391.03
  998.70        2952.00           2172          86.00       373.59
  998.73        2952.25           2176          92.00       399.74
  998.76        2952.50           2179         116.00       504.37
  998.79        2952.75           2183          89.00       386.67
  998.82        2953.00           2186         105.00       456.42
  998.85        2953.25           2190          91.00       395.38
  998.89        2953.50           2193          98.00       425.90
  998.92        2953.75           2197         104.00       452.06
  998.95        2954.00           2200          96.00       417.18
  998.98        2954.25           2204         121.00       526.16
  999.01        2954.50           2208          94.00       408.46
  999.04        2954.75           2211         104.00       452.06
  999.07        2955.00           2215          99.00       430.26
  999.10        2955.25           2218          95.00       412.82
  999.13        2955.50           2222         111.00       482.57
  999.16        2955.75           2225         105.00       456.42
  999.19        2956.00           2229          93.00       404.10
  999.22        2956.25           2232         104.00       452.06
  999.25        2956.50           2236          99.00       430.26
  999.28        2956.75           2239         105.00       456.42
  999.31        2957.00           2243         157.00       683.10
  999.34        2957.25           2246         119.00       517.45
  999.37        2957.50           2250         118.00       513.09
  999.40        2957.75           2254         116.00       504.37
  999.44        2958.00           2257         103.00       447.70
  999.47        2958.25           2261         103.00       447.70
  999.50        2958.50           2264         117.00       508.73
  999.53        2958.75           2268         115.00       500.01
  999.56        2959.00           2271          99.00       430.26
  999.59        2959.25           2275         105.00       456.42
  999.62        2959.50           2278         124.00       539.24
  999.65        2959.75           2282         128.00       556.68
  999.68        2960.00           2285         130.00       565.40
  999.71        2960.25           2289         127.00       552.32
  999.74        2960.50           2293         139.00       604.63
  999.77        2960.75           2296         144.00       626.43
  999.80        2961.00           2300         168.00       731.06
  999.83        2961.25           2303         262.00      1140.85
  999.86        2961.50           2307         988.00      4306.21
  999.89        2961.75           2310        1735.00      7563.85
  999.92        2962.00           2314        2868.00     12506.19
  999.96        2962.25           2317        3804.00     16590.44
  999.99        2962.50           2321        5043.00     21998.58
 1000.02        2962.75           2324        6053.00     26408.62
 1000.05        2963.00           2328        7466.00     32580.54
 1000.08        2963.25           2331        8635.00     37688.63
 1000.11        2963.50           2335        9897.00     43205.10
 1000.14        2963.75           2339       11370.00     49646.51
 1000.17        2964.00           2342       12311.00     53762.97
 1000.20        2964.25           2346       14034.00     61303.33
 1000.23        2964.50           2349       15051.00     65755.83
 1000.26        2964.75           2353       16466.00     71953.06
 1000.29        2965.00           2356       17725.00     77469.26
 1000.32        2965.25           2360       18973.00     82939.31
 1000.35        2965.50           2363       19857.00     86815.16
 1000.38        2965.75           2367       21237.00     92867.74
 1000.41        2966.00           2370       22556.00     98655.12
 1000.44        2966.25           2374       23774.00    104001.40
 1000.48        2966.50           2378       24501.00    107193.40
 1000.51        2966.75           2381       24736.00    108225.30
 1000.54        2967.00           2385       24949.00    109160.70
 1000.57        2967.25           2388       25435.00    111295.20
 1000.60        2967.50           2392       25143.00    110012.70
 1000.63        2967.75           2395       25052.00    109613.10
 1000.66        2968.00           2399       23972.00    104870.70
 1000.69        2968.25           2402       22751.00     99510.92
 1000.72        2968.50           2406       21416.00     93653.02
 1000.75        2968.75           2409       20212.00     88371.93
 1000.78        2969.00           2413       19003.00     83070.82
 1000.81        2969.25           2417       17535.00     76636.66
 1000.84        2969.50           2420       16522.00     72198.37
 1000.87        2969.75           2424       15115.00     66036.06
 1000.90        2970.00           2427       13912.00     60769.29
 1000.93        2970.25           2431       12456.00     54397.38
 1000.96        2970.50           2434       11392.00     49742.73
 1001.00        2970.75           2438        9954.00     43454.31
 1001.03        2971.00           2441        8872.00     38724.45
 1001.06        2971.25           2445        7559.00     32986.85
 1001.09        2971.50           2449        6135.00     26766.72
 1001.12        2971.75           2452        5137.00     22408.96
 1001.15        2972.00           2456        3737.00     16298.04
 1001.18        2972.25           2459        2767.00     12065.54
 1001.21        2972.50           2463        1474.00      6425.55
 1001.24        2972.75           2466         738.00      3216.13
 1001.27        2973.00           2470         281.00      1223.68
 1001.30        2973.25           2473         166.00       722.34
 1001.33        2973.50           2477         141.00       613.35
 1001.36        2973.75           2481         118.00       513.09
 1001.39        2974.00           2484         146.00       635.15
 1001.42        2974.25           2488         122.00       530.52
 1001.45        2974.50           2491         112.00       486.93
 1001.48        2974.75           2495         115.00       500.01
 1001.52        2975.00           2498         136.00       591.56
 1001.55        2975.25           2502         121.00       526.16
 1001.58        2975.50           2505         110.00       478.21
 1001.61        2975.75           2509          92.00       399.74
 1001.64        2976.00           2512         123.00       534.88
 1001.67        2976.25           2516         110.00       478.21
 1001.70        2976.50           2520         121.00       526.16
 1001.73        2976.75           2523         101.00       438.98
 1001.76        2977.00           2527         103.00       447.70
 1001.79        2977.25           2530         108.00       469.49
 1001.82        2977.50           2534          94.00       408.46
 1001.85        2977.75           2537          96.00       417.18
 1001.88        2978.00           2541          99.00       430.26
 1001.91        2978.25           2544         154.00       670.02
 1001.94        2978.50           2548          99.00       430.26
 1001.97        2978.75           2552          90.00       391.03
 1002.00        2979.00           2555          98.00       425.90
 1002.04        2979.25           2559          92.00       399.74
 1002.07        2979.50           2562          98.00       425.90
 1002.10        2979.75           2566          94.00       408.46
 1002.13        2980.00           2569          86.00       373.59
 1002.16        2980.25           2573          92.00       399.74
 1002.19        2980.50           2577          82.00       356.15
 1002.22        2980.75           2580          89.00       386.67
 1002.25        2981.00           2584          88.00       382.31
 1002.28        2981.25           2587          89.00       386.67
 1002.31        2981.50           2591          94.00       408.46
 1002.34        2981.75           2594          91.00       395.38
 1002.37        2982.00           2598          95.00       412.82
 1002.40        2982.25           2601          85.00       369.23
 1002.43        2982.50           2605          83.00       360.51
 1002.46        2982.75           2609          92.00       399.74
 1002.49        2983.00           2612          86.00       373.59
 1002.52        2983.25           2616          92.00       399.74
 1002.55        2983.50           2619          91.00       395.38
 1002.59        2983.75           2623          87.00       377.95
 1002.62        2984.00           2626          94.00       408.46
HS scan finished at 16:42:50
end
