************************************************************
  HS Scan of (1) Internal mercury lamp
************************************************************
Integration time is 0.2294 seconds per sample
dh101218Reading 51.44 .94 2.82pr1000
************************************************************
Dead Time -------------------------  3.4E-08 
Number of Cycles Used -------------  4 
Starting Wavelength (Angstroms) ---  2950 
Final Wavelength (Angstoms) -------  2984 
Wavelength Increment (Angstroms) --  .25 
Filter Wheel #1 Position ---------- (1) Ground quartz diffuser (ND=2.32)
Filter Wheel #2 Position ---------- (1) Neutral Density 0.494



************************************************************
HS scan start time = 05:05:18
Dark Count =  .5 


Time (GMT)  Wavelength (Ang)  Step Number  Raw Counts  Counts/Second

  306.19        2950.00           2144        1593.00      6943.66
  306.39        2950.25           2147        1569.00      6838.99
  306.42        2950.50           2151        1578.00      6878.24
  306.45        2950.75           2155        1572.00      6852.08
  306.48        2951.00           2158        1592.00      6939.30
  306.51        2951.25           2162        1594.00      6948.02
  306.54        2951.50           2165        1581.00      6891.33
  306.58        2951.75           2169        1624.00      7078.86
  306.61        2952.00           2172        1608.00      7009.08
  306.64        2952.25           2176        1643.00      7161.73
  306.67        2952.50           2179        1621.00      7065.78
  306.70        2952.75           2183        1640.00      7148.64
  306.73        2953.00           2186        1608.00      7009.08
  306.76        2953.25           2190        1609.00      7013.44
  306.79        2953.50           2193        1600.00      6974.19
  306.82        2953.75           2197        1679.00      7318.74
  306.85        2954.00           2200        1650.00      7192.26
  306.88        2954.25           2204        1673.00      7292.57
  306.91        2954.50           2208        1684.00      7340.54
  306.94        2954.75           2211        1695.00      7388.52
  306.97        2955.00           2215        1689.00      7362.35
  307.00        2955.25           2218        1692.00      7375.43
  307.03        2955.50           2222        1661.00      7240.23
  307.07        2955.75           2225        1675.00      7301.29
  307.10        2956.00           2229        1719.00      7493.19
  307.13        2956.25           2232        1695.00      7388.52
  307.16        2956.50           2236        1740.00      7584.78
  307.19        2956.75           2239        1717.00      7484.47
  307.22        2957.00           2243        1783.00      7772.32
  307.25        2957.25           2246        1770.00      7715.63
  307.28        2957.50           2250        1774.00      7733.07
  307.31        2957.75           2254        1824.00      7951.15
  307.34        2958.00           2257        1797.00      7833.39
  307.37        2958.25           2261        1796.00      7829.02
  307.40        2958.50           2264        1838.00      8012.21
  307.43        2958.75           2268        1872.00      8160.50
  307.46        2959.00           2271        1878.00      8186.67
  307.49        2959.25           2275        1902.00      8291.35
  307.52        2959.50           2278        1874.00      8169.23
  307.55        2959.75           2282        1935.00      8435.29
  307.59        2960.00           2285        1990.00      8675.18
  307.62        2960.25           2289        1996.00      8701.35
  307.65        2960.50           2293        2004.00      8736.25
  307.68        2960.75           2296        2134.00      9303.29
  307.71        2961.00           2300        2274.00      9913.98
  307.74        2961.25           2303        3168.00     13814.25
  307.77        2961.50           2307       10865.00     47436.96
  307.80        2961.75           2310       21978.00     96117.88
  307.83        2962.00           2314       39126.00    171553.50
  307.86        2962.25           2317       54045.00    237500.80
  307.89        2962.50           2321       75639.00    333483.00
  307.92        2962.75           2324       91990.00    406582.30
  307.95        2963.00           2328      115015.00    510143.00
  307.98        2963.25           2331      131872.00    586430.80
  308.01        2963.50           2335      154514.00    689532.40
  308.04        2963.75           2339      177968.00    797108.50
  308.07        2964.00           2342      195776.00    879324.20
  308.11        2964.25           2346      218617.00    985464.40
  308.14        2964.50           2349      234836.00   1061309.00
  308.17        2964.75           2353      256972.00   1165469.00
  308.20        2965.00           2356      272942.00   1241087.00
  308.23        2965.25           2360      294086.00   1341818.00
  308.26        2965.50           2363      309637.00   1416357.00
  308.29        2965.75           2367      329136.00   1510370.00
  308.32        2966.00           2370      343639.00   1580698.00
  308.36        2966.25           2374      361308.00   1666849.00
  308.39        2966.50           2378      371994.00   1719205.00
  308.42        2966.75           2381      374376.00   1730902.00
  308.45        2967.00           2385      374886.00   1733408.00
  308.48        2967.25           2388      374533.00   1731674.00
  308.51        2967.50           2392      374343.00   1730740.00
  308.54        2967.75           2395      372338.00   1720894.00
  308.57        2968.00           2399      362294.00   1671672.00
  308.60        2968.25           2402      348828.00   1605945.00
  308.63        2968.50           2406      330724.00   1518054.00
  308.66        2968.75           2409      318108.00   1457124.00
  308.69        2969.00           2413      297807.00   1359618.00
  308.72        2969.25           2417      275968.00   1255459.00
  308.75        2969.50           2420      261891.00   1188718.00
  308.78        2969.75           2424      238845.00   1080117.00
  308.82        2970.00           2427      221153.00    997297.10
  308.85        2970.25           2431      197530.00    887447.30
  308.88        2970.50           2434      179748.00    805305.50
  308.91        2970.75           2438      158517.00    707836.60
  308.94        2971.00           2441      143260.00    638195.30
  308.97        2971.25           2445      123293.00    547556.00
  309.00        2971.50           2449      102833.00    455259.90
  309.03        2971.75           2452       87366.00    385873.00
  309.06        2972.00           2456       64603.00    284351.00
  309.09        2972.25           2459       48430.00    212645.70
  309.12        2972.50           2463       26261.00    114922.90
  309.15        2972.75           2466       12995.00     56755.01
  309.18        2973.00           2470        4223.00     18418.24
  309.21        2973.25           2473        2585.00     11270.67
  309.24        2973.50           2477        2121.00      9246.59
  309.27        2973.75           2481        2062.00      8989.23
  309.30        2974.00           2484        2029.00      8845.29
  309.34        2974.25           2488        1969.00      8583.59
  309.37        2974.50           2491        1972.00      8596.67
  309.40        2974.75           2495        1919.00      8365.50
  309.43        2975.00           2498        1907.00      8313.16
  309.46        2975.25           2502        1855.00      8086.36
  309.49        2975.50           2505        1828.00      7968.59
  309.52        2975.75           2509        1801.00      7850.83
  309.55        2976.00           2512        1832.00      7986.04
  309.58        2976.25           2516        1826.00      7959.87
  309.61        2976.50           2520        1764.00      7689.46
  309.64        2976.75           2523        1744.00      7602.23
  309.67        2977.00           2527        1707.00      7440.85
  309.70        2977.25           2530        1709.00      7449.58
  309.73        2977.50           2534        1676.00      7305.65
  309.76        2977.75           2537        1689.00      7362.35
  309.79        2978.00           2541        1719.00      7493.19
  309.82        2978.25           2544        1670.00      7279.48
  309.86        2978.50           2548        1643.00      7161.73
  309.89        2978.75           2552        1641.00      7153.00
  309.92        2979.00           2555        1661.00      7240.23
  309.95        2979.25           2559        1594.00      6948.02
  309.98        2979.50           2562        1607.00      7004.72
  310.01        2979.75           2566        1578.00      6878.24
  310.04        2980.00           2569        1580.00      6886.97
  310.07        2980.25           2573        1536.00      6695.07
  310.10        2980.50           2577        1568.00      6834.63
  310.14        2980.75           2580        1576.00      6869.52
  310.17        2981.00           2584        1534.00      6686.35
  310.20        2981.25           2587        1558.00      6791.02
  310.23        2981.50           2591        1528.00      6660.18
  310.26        2981.75           2594        1536.00      6695.07
  310.29        2982.00           2598        1536.00      6695.07
  310.32        2982.25           2601        1567.00      6830.27
  310.35        2982.50           2605        1488.00      6485.74
  310.38        2982.75           2609        1546.00      6738.68
  310.41        2983.00           2612        1498.00      6529.35
  310.44        2983.25           2616        1485.00      6472.65
  310.47        2983.50           2619        1513.00      6594.77
  310.50        2983.75           2623        1488.00      6485.74
  310.53        2984.00           2626        1449.00      6315.65
HS scan finished at 05:10:45
end
************************************************************
  HS Scan of (1) Internal mercury lamp
************************************************************
Integration time is 0.2294 seconds per sample
dh101218Reading 51.44 .94 3.03pr1000
************************************************************
Dead Time -------------------------  3.4E-08 
Number of Cycles Used -------------  4 
Starting Wavelength (Angstroms) ---  2950 
Final Wavelength (Angstoms) -------  2984 
Wavelength Increment (Angstroms) --  .25 
Filter Wheel #1 Position ---------- (1) Ground quartz diffuser (ND=2.32)
Filter Wheel #2 Position ---------- (1) Neutral Density 0.494



************************************************************
HS scan start time = 16:37:22
Dark Count =  .9 


Time (GMT)  Wavelength (Ang)  Step Number  Raw Counts  Counts/Second

  998.26        2950.00           2144        1549.00      6750.02
  998.45        2950.25           2147        1495.00      6514.52
  998.49        2950.50           2151        1516.00      6606.10
  998.52        2950.75           2155        1518.00      6614.83
  998.55        2951.00           2158        1557.00      6784.91
  998.58        2951.25           2162        1548.00      6745.66
  998.61        2951.50           2165        1569.00      6837.25
  998.64        2951.75           2169        1535.00      6688.97
  998.67        2952.00           2172        1562.00      6806.72
  998.70        2952.25           2176        1531.00      6671.52
  998.73        2952.50           2179        1539.00      6706.41
  998.76        2952.75           2183        1556.00      6780.55
  998.79        2953.00           2186        1602.00      6981.17
  998.82        2953.25           2190        1617.00      7046.59
  998.85        2953.50           2193        1586.00      6911.39
  998.88        2953.75           2197        1606.00      6998.61
  998.91        2954.00           2200        1613.00      7029.14
  998.94        2954.25           2204        1603.00      6985.53
  998.97        2954.50           2208        1586.00      6911.39
  999.01        2954.75           2211        1597.00      6959.36
  999.04        2955.00           2215        1615.00      7037.87
  999.07        2955.25           2218        1599.00      6968.09
  999.10        2955.50           2222        1606.00      6998.61
  999.13        2955.75           2225        1570.00      6841.61
  999.16        2956.00           2229        1664.00      7251.57
  999.19        2956.25           2232        1647.00      7177.43
  999.22        2956.50           2236        1675.00      7299.54
  999.25        2956.75           2239        1694.00      7382.41
  999.28        2957.00           2243        1653.00      7203.60
  999.31        2957.25           2246        1698.00      7399.86
  999.34        2957.50           2250        1727.00      7526.34
  999.37        2957.75           2254        1771.00      7718.24
  999.40        2958.00           2257        1721.00      7500.17
  999.43        2958.25           2261        1765.00      7692.07
  999.46        2958.50           2264        1784.00      7774.94
  999.49        2958.75           2268        1784.00      7774.94
  999.53        2959.00           2271        1748.00      7617.93
  999.56        2959.25           2275        1814.00      7905.79
  999.59        2959.50           2278        1820.00      7931.96
  999.62        2959.75           2282        1815.00      7910.15
  999.65        2960.00           2285        1850.00      8062.80
  999.68        2960.25           2289        1888.00      8228.54
  999.71        2960.50           2293        1881.00      8198.01
  999.74        2960.75           2296        1970.00      8586.20
  999.77        2961.00           2300        2001.00      8721.42
  999.80        2961.25           2303        2146.00      9353.89
  999.83        2961.50           2307        3497.00     15248.10
  999.86        2961.75           2310        8791.00     38367.81
  999.89        2962.00           2314       24595.00    107603.50
  999.92        2962.25           2317       39672.00    173960.10
  999.95        2962.50           2321       59993.00    263874.30
  999.98        2962.75           2324       75999.00    335086.70
 1000.01        2963.00           2328       98513.00    435844.80
 1000.04        2963.25           2331      116708.00    517785.10
 1000.08        2963.50           2335      140076.00    623702.00
 1000.11        2963.75           2339      164508.00    735272.40
 1000.14        2964.00           2342      182785.00    819299.70
 1000.17        2964.25           2346      205908.00    926308.80
 1000.20        2964.50           2349      223787.00   1009596.00
 1000.23        2964.75           2353      245756.00   1112597.00
 1000.26        2965.00           2356      260620.00   1182706.00
 1000.29        2965.25           2360      280984.00   1279314.00
 1000.32        2965.50           2363      296798.00   1354787.00
 1000.35        2965.75           2367      319260.00   1462675.00
 1000.38        2966.00           2370      336133.00   1544255.00
 1000.41        2966.25           2374      355848.00   1640170.00
 1000.44        2966.50           2378      370315.00   1710964.00
 1000.47        2966.75           2381      375566.00   1736747.00
 1000.50        2967.00           2385      377959.00   1748513.00
 1000.53        2967.25           2388      379145.00   1754347.00
 1000.56        2967.50           2392      379148.00   1754362.00
 1000.60        2967.75           2395      378878.00   1753034.00
 1000.63        2968.00           2399      374945.00   1733696.00
 1000.66        2968.25           2402      365932.00   1689479.00
 1000.69        2968.50           2406      344841.00   1586541.00
 1000.72        2968.75           2409      335667.00   1541996.00
 1000.75        2969.00           2413      315959.00   1446769.00
 1000.78        2969.25           2417      292523.00   1334345.00
 1000.81        2969.50           2420      275805.00   1254683.00
 1000.84        2969.75           2424      254530.00   1153940.00
 1000.87        2970.00           2427      238167.00   1076933.00
 1000.90        2970.25           2431      217402.00    979796.80
 1000.93        2970.50           2434      201019.00    903617.40
 1000.96        2970.75           2438      178204.00    798193.10
 1000.99        2971.00           2441      159257.00    711221.00
 1001.02        2971.25           2445      134626.00    598930.50
 1001.05        2971.50           2449      111833.00    495785.60
 1001.08        2971.75           2452       95544.00    422517.70
 1001.12        2972.00           2456       73464.00    323785.10
 1001.15        2972.25           2459       56712.00    249319.40
 1001.18        2972.50           2463       34725.00    152154.40
 1001.21        2972.75           2466       20459.00     89452.56
 1001.24        2973.00           2470        7755.00     33840.57
 1001.27        2973.25           2473        3751.00     16356.52
 1001.30        2973.50           2477        2226.00      9702.85
 1001.33        2973.75           2481        2047.00      8922.06
 1001.36        2974.00           2484        1974.00      8603.65
 1001.39        2974.25           2488        1979.00      8625.46
 1001.42        2974.50           2491        1898.00      8272.16
 1001.45        2974.75           2495        1891.00      8241.63
 1001.48        2975.00           2498        1885.00      8215.46
 1001.51        2975.25           2502        1794.00      7818.56
 1001.54        2975.50           2505        1850.00      8062.80
 1001.57        2975.75           2509        1783.00      7770.58
 1001.60        2976.00           2512        1801.00      7849.09
 1001.64        2976.25           2516        1763.00      7683.35
 1001.67        2976.50           2520        1715.00      7474.00
 1001.70        2976.75           2523        1728.00      7530.70
 1001.73        2977.00           2527        1708.00      7443.47
 1001.76        2977.25           2530        1710.00      7452.19
 1001.79        2977.50           2534        1650.00      7190.51
 1001.82        2977.75           2537        1673.00      7290.82
 1001.85        2978.00           2541        1615.00      7037.87
 1001.88        2978.25           2544        1630.00      7103.28
 1001.91        2978.50           2548        1574.00      6859.05
 1001.94        2978.75           2552        1620.00      7059.67
 1001.97        2979.00           2555        1601.00      6976.81
 1002.00        2979.25           2559        1570.00      6841.61
 1002.03        2979.50           2562        1604.00      6989.89
 1002.06        2979.75           2566        1555.00      6776.19
 1002.09        2980.00           2569        1511.00      6584.30
 1002.13        2980.25           2573        1534.00      6684.61
 1002.16        2980.50           2577        1502.00      6545.05
 1002.19        2980.75           2580        1549.00      6750.02
 1002.22        2981.00           2584        1503.00      6549.41
 1002.25        2981.25           2587        1515.00      6601.74
 1002.28        2981.50           2591        1478.00      6440.38
 1002.31        2981.75           2594        1468.00      6396.77
 1002.34        2982.00           2598        1463.00      6374.97
 1002.37        2982.25           2601        1482.00      6457.83
 1002.40        2982.50           2605        1460.00      6361.88
 1002.43        2982.75           2609        1435.00      6252.86
 1002.46        2983.00           2612        1446.00      6300.83
 1002.49        2983.25           2616        1442.00      6283.38
 1002.52        2983.50           2619        1436.00      6257.22
 1002.55        2983.75           2623        1414.00      6161.27
 1002.58        2984.00           2626        1455.00      6340.08
HS scan finished at 16:42:48
end
