************************************************************
  HS Scan of (1) Internal mercury lamp
************************************************************
Integration time is 0.2294 seconds per sample
dh071218Reading 51.44 .94 3.13pr1000
************************************************************
Dead Time -------------------------  3.4E-08 
Number of Cycles Used -------------  4 
Starting Wavelength (Angstroms) ---  2950 
Final Wavelength (Angstoms) -------  2984 
Wavelength Increment (Angstroms) --  .25 
Filter Wheel #1 Position ---------- (1) Ground quartz diffuser (ND=2.32)
Filter Wheel #2 Position ---------- (1) Neutral Density 0.494



************************************************************
HS scan start time = 05:02:27
Dark Count =  1.2 


Time (GMT)  Wavelength (Ang)  Step Number  Raw Counts  Counts/Second

  303.35        2950.00           2144        1537.00      6696.38
  303.54        2950.25           2147        1528.00      6657.13
  303.57        2950.50           2151        1508.00      6569.91
  303.60        2950.75           2155        1592.00      6936.25
  303.63        2951.00           2158        1554.00      6770.52
  303.66        2951.25           2162        1556.00      6779.24
  303.69        2951.50           2165        1562.00      6805.41
  303.72        2951.75           2169        1533.00      6678.94
  303.75        2952.00           2172        1577.00      6870.83
  303.79        2952.25           2176        1576.00      6866.47
  303.82        2952.50           2179        1541.00      6713.83
  303.85        2952.75           2183        1589.00      6923.16
  303.88        2953.00           2186        1558.00      6787.97
  303.91        2953.25           2190        1544.00      6726.91
  303.94        2953.50           2193        1605.00      6992.95
  303.97        2953.75           2197        1596.00      6953.69
  304.00        2954.00           2200        1612.00      7023.47
  304.03        2954.25           2204        1597.00      6958.05
  304.06        2954.50           2208        1653.00      7202.29
  304.09        2954.75           2211        1634.00      7119.42
  304.12        2955.00           2215        1612.00      7023.47
  304.15        2955.25           2218        1653.00      7202.29
  304.18        2955.50           2222        1629.00      7097.62
  304.21        2955.75           2225        1666.00      7258.98
  304.24        2956.00           2229        1681.00      7324.40
  304.27        2956.25           2232        1632.00      7110.70
  304.31        2956.50           2236        1730.00      7538.11
  304.34        2956.75           2239        1713.00      7463.97
  304.37        2957.00           2243        1680.00      7320.04
  304.40        2957.25           2246        1698.00      7398.55
  304.43        2957.50           2250        1721.00      7498.86
  304.46        2957.75           2254        1785.00      7777.99
  304.49        2958.00           2257        1768.00      7703.85
  304.52        2958.25           2261        1779.00      7751.82
  304.55        2958.50           2264        1825.00      7952.46
  304.58        2958.75           2268        1819.00      7926.29
  304.61        2959.00           2271        1841.00      8022.24
  304.64        2959.25           2275        1861.00      8109.47
  304.67        2959.50           2278        1859.00      8100.75
  304.70        2959.75           2282        1887.00      8222.88
  304.73        2960.00           2285        1896.00      8262.13
  304.76        2960.25           2289        1950.00      8497.66
  304.79        2960.50           2293        2004.00      8733.19
  304.83        2960.75           2296        2029.00      8842.24
  304.86        2961.00           2300        2234.00      9736.44
  304.89        2961.25           2303        3125.00     13623.57
  304.92        2961.50           2307        9140.00     39891.91
  304.95        2961.75           2310       19703.00     86135.94
  304.98        2962.00           2314       39174.00    171762.20
  305.01        2962.25           2317       55134.00    242323.10
  305.04        2962.50           2321       77027.00    339670.90
  305.07        2962.75           2324       94772.00    419052.90
  305.10        2963.00           2328      120565.00    535212.80
  305.13        2963.25           2331      139768.00    622299.60
  305.16        2963.50           2335      163908.00    732520.90
  305.19        2963.75           2339      186067.00    834438.80
  305.22        2964.00           2342      203081.00    913182.00
  305.25        2964.25           2346      228649.00   1032326.00
  305.28        2964.50           2349      247896.00   1122668.00
  305.31        2964.75           2353      271360.00   1233575.00
  305.35        2965.00           2356      287893.00   1312237.00
  305.38        2965.25           2360      308859.00   1412615.00
  305.41        2965.50           2363      325570.00   1493128.00
  305.44        2965.75           2367      347191.00   1597972.00
  305.47        2966.00           2370      362146.00   1670945.00
  305.50        2966.25           2374      383114.00   1773889.00
  305.53        2966.50           2378      396382.00   1839416.00
  305.56        2966.75           2381      399869.00   1856688.00
  305.59        2967.00           2385      402484.00   1869654.00
  305.62        2967.25           2388      402562.00   1870041.00
  305.65        2967.50           2392      402342.00   1868950.00
  305.68        2967.75           2395      401644.00   1865488.00
  305.71        2968.00           2399      397073.00   1842837.00
  305.74        2968.25           2402      386607.00   1791111.00
  305.77        2968.50           2406      366496.00   1692240.00
  305.80        2968.75           2409      351242.00   1617702.00
  305.83        2969.00           2413      329722.00   1513202.00
  305.87        2969.25           2417      309921.00   1417719.00
  305.90        2969.50           2420      293183.00   1337498.00
  305.93        2969.75           2424      268439.00   1219722.00
  305.96        2970.00           2427      249524.00   1130336.00
  305.99        2970.25           2431      224460.00   1012738.00
  306.02        2970.50           2434      207342.00    932969.80
  306.05        2970.75           2438      182464.00    817818.30
  306.08        2971.00           2441      162355.00    725404.80
  306.11        2971.25           2445      137709.00    612937.00
  306.14        2971.50           2449      112144.00    497186.70
  306.17        2971.75           2452       92828.00    410335.40
  306.20        2972.00           2456       68936.00    303618.60
  306.23        2972.25           2459       50645.00    222442.40
  306.26        2972.50           2463       28582.00    125120.50
  306.29        2972.75           2466       15511.00     67766.25
  306.32        2973.00           2470        5614.00     24487.69
  306.35        2973.25           2473        2958.00     12894.93
  306.39        2973.50           2477        2171.00      9461.63
  306.42        2973.75           2481        2008.00      8750.64
  306.45        2974.00           2484        2052.00      8942.56
  306.48        2974.25           2488        1943.00      8467.13
  306.51        2974.50           2491        1945.00      8475.85
  306.54        2974.75           2495        1892.00      8244.68
  306.57        2975.00           2498        1871.00      8153.09
  306.60        2975.25           2502        1871.00      8153.09
  306.63        2975.50           2505        1760.00      7668.96
  306.66        2975.75           2509        1770.00      7712.57
  306.69        2976.00           2512        1795.00      7821.61
  306.72        2976.25           2516        1745.00      7603.54
  306.75        2976.50           2520        1739.00      7577.37
  306.78        2976.75           2523        1738.00      7573.01
  306.81        2977.00           2527        1686.00      7346.21
  306.84        2977.25           2530        1691.00      7368.02
  306.87        2977.50           2534        1677.00      7306.96
  306.91        2977.75           2537        1625.00      7080.17
  306.94        2978.00           2541        1627.00      7088.89
  306.97        2978.25           2544        1647.00      7176.12
  307.00        2978.50           2548        1651.00      7193.56
  307.03        2978.75           2552        1605.00      6992.95
  307.06        2979.00           2555        1603.00      6984.22
  307.09        2979.25           2559        1578.00      6875.19
  307.12        2979.50           2562        1575.00      6862.11
  307.15        2979.75           2566        1530.00      6665.85
  307.18        2980.00           2569        1526.00      6648.41
  307.21        2980.25           2573        1551.00      6757.44
  307.24        2980.50           2577        1549.00      6748.72
  307.27        2980.75           2580        1570.00      6840.30
  307.30        2981.00           2584        1552.00      6761.80
  307.33        2981.25           2587        1481.00      6452.16
  307.36        2981.50           2591        1532.00      6674.58
  307.39        2981.75           2594        1483.00      6460.88
  307.43        2982.00           2598        1511.00      6582.99
  307.46        2982.25           2601        1489.00      6487.05
  307.49        2982.50           2605        1487.00      6478.32
  307.52        2982.75           2609        1477.00      6434.71
  307.55        2983.00           2612        1466.00      6386.74
  307.58        2983.25           2616        1474.00      6421.63
  307.61        2983.50           2619        1462.00      6369.30
  307.64        2983.75           2623        1441.00      6277.71
  307.67        2984.00           2626        1474.00      6421.63
HS scan finished at 05:07:53
end
************************************************************
  HS Scan of (1) Internal mercury lamp
************************************************************
Integration time is 0.2294 seconds per sample
dh071218Reading 51.44 .94 2.94pr1000
************************************************************
Dead Time -------------------------  3.4E-08 
Number of Cycles Used -------------  4 
Starting Wavelength (Angstroms) ---  2950 
Final Wavelength (Angstoms) -------  2984 
Wavelength Increment (Angstroms) --  .25 
Filter Wheel #1 Position ---------- (1) Ground quartz diffuser (ND=2.32)
Filter Wheel #2 Position ---------- (1) Neutral Density 0.494



************************************************************
HS scan start time = 16:37:26
Dark Count =  1.2 


Time (GMT)  Wavelength (Ang)  Step Number  Raw Counts  Counts/Second

  998.33        2950.00           2144        1298.00      5654.10
  998.52        2950.25           2147        1256.00      5470.94
  998.55        2950.50           2151        1300.00      5662.82
  998.59        2950.75           2155        1282.00      5584.32
  998.62        2951.00           2158        1297.00      5649.73
  998.65        2951.25           2162        1304.00      5680.26
  998.68        2951.50           2165        1262.00      5497.10
  998.71        2951.75           2169        1310.00      5706.43
  998.74        2952.00           2172        1300.00      5662.82
  998.77        2952.25           2176        1295.00      5641.01
  998.80        2952.50           2179        1292.00      5627.93
  998.83        2952.75           2183        1302.00      5671.54
  998.86        2953.00           2186        1326.00      5776.20
  998.89        2953.25           2190        1294.00      5636.65
  998.92        2953.50           2193        1333.00      5806.73
  998.95        2953.75           2197        1305.00      5684.62
  998.98        2954.00           2200        1351.00      5885.22
  999.02        2954.25           2204        1364.00      5941.92
  999.05        2954.50           2208        1344.00      5854.70
  999.08        2954.75           2211        1361.00      5928.83
  999.11        2955.00           2215        1372.00      5976.80
  999.14        2955.25           2218        1341.00      5841.61
  999.17        2955.50           2222        1343.00      5850.34
  999.20        2955.75           2225        1368.00      5959.36
  999.23        2956.00           2229        1407.00      6129.44
  999.26        2956.25           2232        1386.00      6037.86
  999.29        2956.50           2236        1361.00      5928.83
  999.32        2956.75           2239        1425.00      6207.94
  999.35        2957.00           2243        1425.00      6207.94
  999.38        2957.25           2246        1433.00      6242.83
  999.41        2957.50           2250        1421.00      6190.49
  999.44        2957.75           2254        1439.00      6268.99
  999.47        2958.00           2257        1444.00      6290.80
  999.51        2958.25           2261        1448.00      6308.24
  999.54        2958.50           2264        1444.00      6290.80
  999.57        2958.75           2268        1499.00      6530.66
  999.60        2959.00           2271        1515.00      6600.44
  999.63        2959.25           2275        1529.00      6661.49
  999.66        2959.50           2278        1481.00      6452.16
  999.69        2959.75           2282        1595.00      6949.33
  999.72        2960.00           2285        1595.00      6949.33
  999.75        2960.25           2289        1608.00      7006.03
  999.78        2960.50           2293        1600.00      6971.14
  999.81        2960.75           2296        1655.00      7211.01
  999.84        2961.00           2300        1696.00      7389.83
  999.87        2961.25           2303        1912.00      8331.92
  999.90        2961.50           2307        3939.00     17175.68
  999.93        2961.75           2310       10183.00     44451.62
  999.96        2962.00           2314       25348.00    110909.20
  999.99        2962.25           2317       38105.00    167048.10
 1000.03        2962.50           2321       55559.00    244206.70
 1000.06        2962.75           2324       67684.00    298047.80
 1000.09        2963.00           2328       85045.00    375486.00
 1000.12        2963.25           2331       99565.00    440568.60
 1000.15        2963.50           2335      120683.00    535746.40
 1000.18        2963.75           2339      140063.00    623641.50
 1000.21        2964.00           2342      154545.00    689670.80
 1000.24        2964.25           2346      172520.00    772045.80
 1000.27        2964.50           2349      185831.00    833349.50
 1000.30        2964.75           2353      204390.00    919258.10
 1000.33        2965.00           2356      218616.00    985456.40
 1000.36        2965.25           2360      237296.00   1072844.00
 1000.39        2965.50           2363      251984.00   1141929.00
 1000.42        2965.75           2367      268751.00   1221201.00
 1000.45        2966.00           2370      281267.00   1280660.00
 1000.48        2966.25           2374      297097.00   1356217.00
 1000.51        2966.50           2378      308990.00   1413245.00
 1000.55        2966.75           2381      313105.00   1433029.00
 1000.58        2967.00           2385      314604.00   1440243.00
 1000.61        2967.25           2388      314654.00   1440484.00
 1000.64        2967.50           2392      314835.00   1441355.00
 1000.67        2967.75           2395      314145.00   1438034.00
 1000.70        2968.00           2399      311724.00   1426387.00
 1000.73        2968.25           2402      304210.00   1390297.00
 1000.76        2968.50           2406      290186.00   1323181.00
 1000.79        2968.75           2409      277625.00   1263333.00
 1000.82        2969.00           2413      260255.00   1180979.00
 1000.85        2969.25           2417      243545.00   1102196.00
 1000.88        2969.50           2420      231338.00   1044914.00
 1000.91        2969.75           2424      213255.00    960474.20
 1000.94        2970.00           2427      199369.00    895965.80
 1000.97        2970.25           2431      181533.00    813526.80
 1001.00        2970.50           2434      167437.00    748704.30
 1001.03        2970.75           2438      146496.00    652935.10
 1001.07        2971.00           2441      132013.00    587067.40
 1001.10        2971.25           2445      113501.00    503307.70
 1001.13        2971.50           2449       95802.00    423673.90
 1001.16        2971.75           2452       82337.00    363379.90
 1001.19        2972.00           2456       65471.00    288206.20
 1001.22        2972.25           2459       52348.00    229981.40
 1001.25        2972.50           2463       34491.00    151122.40
 1001.28        2972.75           2466       20805.00     90968.82
 1001.31        2973.00           2470        7914.00     34533.99
 1001.34        2973.25           2473        3664.00     15975.55
 1001.37        2973.50           2477        1923.00      8379.89
 1001.40        2973.75           2481        1706.00      7433.44
 1001.43        2974.00           2484        1670.00      7276.43
 1001.46        2974.25           2488        1631.00      7106.34
 1001.49        2974.50           2491        1620.00      7058.36
 1001.52        2974.75           2495        1551.00      6757.44
 1001.55        2975.00           2498        1550.00      6753.08
 1001.59        2975.25           2502        1532.00      6674.58
 1001.62        2975.50           2505        1500.00      6535.02
 1001.65        2975.75           2509        1517.00      6609.16
 1001.68        2976.00           2512        1488.00      6482.68
 1001.71        2976.25           2516        1459.00      6356.21
 1001.74        2976.50           2520        1409.00      6138.16
 1001.77        2976.75           2523        1406.00      6125.08
 1001.80        2977.00           2527        1378.00      6002.97
 1001.83        2977.25           2530        1404.00      6116.36
 1001.86        2977.50           2534        1394.00      6072.74
 1001.89        2977.75           2537        1409.00      6138.16
 1001.92        2978.00           2541        1377.00      5998.61
 1001.95        2978.25           2544        1351.00      5885.22
 1001.98        2978.50           2548        1354.00      5898.31
 1002.01        2978.75           2552        1286.00      5601.76
 1002.04        2979.00           2555        1330.00      5793.64
 1002.07        2979.25           2559        1287.00      5606.13
 1002.10        2979.50           2562        1323.00      5763.12
 1002.14        2979.75           2566        1284.00      5593.04
 1002.17        2980.00           2569        1282.00      5584.32
 1002.20        2980.25           2573        1266.00      5514.55
 1002.23        2980.50           2577        1253.00      5457.86
 1002.26        2980.75           2580        1261.00      5492.74
 1002.29        2981.00           2584        1256.00      5470.94
 1002.32        2981.25           2587        1256.00      5470.94
 1002.35        2981.50           2591        1277.00      5562.52
 1002.38        2981.75           2594        1217.00      5300.87
 1002.41        2982.00           2598        1233.00      5370.64
 1002.44        2982.25           2601        1181.00      5143.88
 1002.47        2982.50           2605        1234.00      5375.00
 1002.50        2982.75           2609        1200.00      5226.74
 1002.53        2983.00           2612        1233.00      5370.64
 1002.56        2983.25           2616        1200.00      5226.74
 1002.59        2983.50           2619        1204.00      5244.18
 1002.62        2983.75           2623        1214.00      5287.79
 1002.66        2984.00           2626        1216.00      5296.51
HS scan finished at 16:42:53
end
