************************************************************
  HS Scan of (1) Internal mercury lamp
************************************************************
Integration time is 0.2294 seconds per sample
dh121217Reading 51.44 .94 2.13pr1000
************************************************************
Dead Time -------------------------  3.4E-08 
Number of Cycles Used -------------  4 
Starting Wavelength (Angstroms) ---  2950 
Final Wavelength (Angstoms) -------  2984 
Wavelength Increment (Angstroms) --  .25 
Filter Wheel #1 Position ---------- (1) Ground quartz diffuser (ND=2.32)
Filter Wheel #2 Position ---------- (1) Neutral Density 0.494



************************************************************
HS scan start time = 05:10:14
Dark Count =  .3 


Time (GMT)  Wavelength (Ang)  Step Number  Raw Counts  Counts/Second

  311.14        2950.00           2144          96.00       417.18
  311.33        2950.25           2147          96.00       417.18
  311.36        2950.50           2151         120.00       521.81
  311.39        2950.75           2155         120.00       521.81
  311.42        2951.00           2158         107.00       465.13
  311.45        2951.25           2162         124.00       539.24
  311.48        2951.50           2165          93.00       404.10
  311.51        2951.75           2169         100.00       434.62
  311.54        2952.00           2172          95.00       412.82
  311.57        2952.25           2176          94.00       408.46
  311.60        2952.50           2179          99.00       430.26
  311.64        2952.75           2183          95.00       412.82
  311.67        2953.00           2186          97.00       421.54
  311.70        2953.25           2190         105.00       456.42
  311.73        2953.50           2193         120.00       521.81
  311.76        2953.75           2197         117.00       508.73
  311.79        2954.00           2200          97.00       421.54
  311.82        2954.25           2204         101.00       438.98
  311.85        2954.50           2208         101.00       438.98
  311.88        2954.75           2211          96.00       417.18
  311.91        2955.00           2215         105.00       456.42
  311.94        2955.25           2218         121.00       526.16
  311.97        2955.50           2222         101.00       438.98
  312.00        2955.75           2225         111.00       482.57
  312.03        2956.00           2229         107.00       465.13
  312.06        2956.25           2232         122.00       530.52
  312.09        2956.50           2236         112.00       486.93
  312.12        2956.75           2239         142.00       617.71
  312.15        2957.00           2243         108.00       469.49
  312.19        2957.25           2246         106.00       460.77
  312.22        2957.50           2250         116.00       504.37
  312.25        2957.75           2254         101.00       438.98
  312.28        2958.00           2257         135.00       587.20
  312.31        2958.25           2261         118.00       513.09
  312.34        2958.50           2264         143.00       622.07
  312.37        2958.75           2268         150.00       652.59
  312.40        2959.00           2271         123.00       534.88
  312.43        2959.25           2275         108.00       469.49
  312.46        2959.50           2278         134.00       582.84
  312.49        2959.75           2282         131.00       569.76
  312.52        2960.00           2285         131.00       569.76
  312.55        2960.25           2289         129.00       561.04
  312.58        2960.50           2293         143.00       622.07
  312.61        2960.75           2296         167.00       726.70
  312.64        2961.00           2300         160.00       696.18
  312.68        2961.25           2303         253.00      1101.61
  312.71        2961.50           2307         915.00      3987.90
  312.74        2961.75           2310        1700.00      7411.20
  312.77        2962.00           2314        2976.00     12977.39
  312.80        2962.25           2317        3810.00     16616.62
  312.83        2962.50           2321        5089.00     22199.40
  312.86        2962.75           2324        6158.00     26867.17
  312.89        2963.00           2328        7610.00     33209.67
  312.92        2963.25           2331        8683.00     37898.41
  312.95        2963.50           2335        9971.00     43528.63
  312.98        2963.75           2339       11540.00     50390.10
  313.01        2964.00           2342       12533.00     54734.29
  313.04        2964.25           2346       13874.00     60602.96
  313.07        2964.50           2349       15068.00     65830.27
  313.10        2964.75           2353       16223.00     70888.61
  313.13        2965.00           2356       17114.00     74791.96
  313.16        2965.25           2360       19452.00     85039.33
  313.20        2965.50           2363       20392.00     89161.34
  313.23        2965.75           2367       21716.00     94969.19
  313.26        2966.00           2370       22939.00    100336.00
  313.29        2966.25           2374       24087.00    105375.60
  313.32        2966.50           2378       24871.00    108818.20
  313.35        2966.75           2381       24926.00    109059.70
  313.38        2967.00           2385       24625.00    107737.90
  313.41        2967.25           2388       24861.00    108774.30
  313.44        2967.50           2392       24859.00    108765.50
  313.47        2967.75           2395       24621.00    107720.30
  313.50        2968.00           2399       24010.00    105037.50
  313.53        2968.25           2402       22991.00    100564.30
  313.56        2968.50           2406       21293.00     93113.41
  313.59        2968.75           2409       20183.00     88244.74
  313.62        2969.00           2413       18773.00     82062.56
  313.65        2969.25           2417       17338.00     75773.43
  313.68        2969.50           2420       16295.00     71204.00
  313.71        2969.75           2424       14718.00     64297.78
  313.75        2970.00           2427       13738.00     60007.66
  313.78        2970.25           2431       12408.00     54187.36
  313.81        2970.50           2434       11249.00     49117.28
  313.84        2970.75           2438        9912.00     43270.67
  313.87        2971.00           2441        8775.00     38300.50
  313.90        2971.25           2445        7407.00     32322.78
  313.93        2971.50           2449        5867.00     25596.38
  313.96        2971.75           2452        4748.00     20710.74
  313.99        2972.00           2456        3470.00     15132.89
  314.02        2972.25           2459        2584.00     11267.18
  314.05        2972.50           2463        1442.00      6286.00
  314.08        2972.75           2466         757.00      3298.98
  314.11        2973.00           2470         267.00      1162.64
  314.14        2973.25           2473         163.00       709.26
  314.17        2973.50           2477         143.00       622.07
  314.20        2973.75           2481         121.00       526.16
  314.23        2974.00           2484         134.00       582.84
  314.27        2974.25           2488         148.00       643.87
  314.30        2974.50           2491         171.00       744.13
  314.33        2974.75           2495         114.00       495.65
  314.36        2975.00           2498         117.00       508.73
  314.39        2975.25           2502         140.00       608.99
  314.42        2975.50           2505         119.00       517.45
  314.45        2975.75           2509         133.00       578.48
  314.48        2976.00           2512         115.00       500.01
  314.51        2976.25           2516         135.00       587.20
  314.54        2976.50           2520         111.00       482.57
  314.57        2976.75           2523         145.00       630.79
  314.60        2977.00           2527         123.00       534.88
  314.63        2977.25           2530         122.00       530.52
  314.66        2977.50           2534         107.00       465.13
  314.69        2977.75           2537         120.00       521.81
  314.72        2978.00           2541         126.00       547.96
  314.75        2978.25           2544         108.00       469.49
  314.79        2978.50           2548         101.00       438.98
  314.82        2978.75           2552          91.00       395.38
  314.85        2979.00           2555         102.00       443.34
  314.88        2979.25           2559         103.00       447.70
  314.91        2979.50           2562         112.00       486.93
  314.94        2979.75           2566         103.00       447.70
  314.97        2980.00           2569          92.00       399.74
  315.00        2980.25           2573         118.00       513.09
  315.03        2980.50           2577         120.00       521.81
  315.06        2980.75           2580         110.00       478.21
  315.09        2981.00           2584         103.00       447.70
  315.12        2981.25           2587         116.00       504.37
  315.15        2981.50           2591          96.00       417.18
  315.18        2981.75           2594          94.00       408.46
  315.21        2982.00           2598         118.00       513.09
  315.24        2982.25           2601          96.00       417.18
  315.27        2982.50           2605          95.00       412.82
  315.31        2982.75           2609          98.00       425.90
  315.34        2983.00           2612          92.00       399.74
  315.37        2983.25           2616          93.00       404.10
  315.40        2983.50           2619          86.00       373.59
  315.43        2983.75           2623          94.00       408.46
  315.46        2984.00           2626          83.00       360.51
HS scan finished at 05:15:41
end
************************************************************
  HS Scan of (1) Internal mercury lamp
************************************************************
Integration time is 0.2294 seconds per sample
dh121217Reading 51.44 .94 2.74pr1000
************************************************************
Dead Time -------------------------  3.4E-08 
Number of Cycles Used -------------  4 
Starting Wavelength (Angstroms) ---  2950 
Final Wavelength (Angstoms) -------  2984 
Wavelength Increment (Angstroms) --  .25 
Filter Wheel #1 Position ---------- (1) Ground quartz diffuser (ND=2.32)
Filter Wheel #2 Position ---------- (1) Neutral Density 0.494



************************************************************
HS scan start time = 16:37:22
Dark Count =  .5 


Time (GMT)  Wavelength (Ang)  Step Number  Raw Counts  Counts/Second

  998.27        2950.00           2144          77.00       333.48
  998.46        2950.25           2147          84.00       364.00
  998.49        2950.50           2151          81.00       350.92
  998.52        2950.75           2155          87.00       377.08
  998.55        2951.00           2158          87.00       377.08
  998.58        2951.25           2162         107.00       464.26
  998.61        2951.50           2165          90.00       390.15
  998.65        2951.75           2169          84.00       364.00
  998.68        2952.00           2172          83.00       359.64
  998.71        2952.25           2176          91.00       394.51
  998.74        2952.50           2179          88.00       381.43
  998.77        2952.75           2183          82.00       355.28
  998.80        2953.00           2186          90.00       390.15
  998.83        2953.25           2190          85.00       368.36
  998.86        2953.50           2193          82.00       355.28
  998.89        2953.75           2197          88.00       381.43
  998.92        2954.00           2200          86.00       372.72
  998.95        2954.25           2204          89.00       385.79
  998.98        2954.50           2208         132.00       573.25
  999.01        2954.75           2211         109.00       472.98
  999.04        2955.00           2215          87.00       377.08
  999.07        2955.25           2218          89.00       385.79
  999.10        2955.50           2222          88.00       381.43
  999.13        2955.75           2225          89.00       385.79
  999.16        2956.00           2229          90.00       390.15
  999.20        2956.25           2232          87.00       377.08
  999.23        2956.50           2236          86.00       372.72
  999.26        2956.75           2239          96.00       416.31
  999.29        2957.00           2243         101.00       438.11
  999.32        2957.25           2246          98.00       425.03
  999.35        2957.50           2250          90.00       390.15
  999.38        2957.75           2254         102.00       442.47
  999.41        2958.00           2257         109.00       472.98
  999.44        2958.25           2261         125.00       542.73
  999.47        2958.50           2264          98.00       425.03
  999.50        2958.75           2268          93.00       403.23
  999.53        2959.00           2271         107.00       464.26
  999.56        2959.25           2275         123.00       534.01
  999.59        2959.50           2278         102.00       442.47
  999.62        2959.75           2282         104.00       451.18
  999.65        2960.00           2285         113.00       490.42
  999.69        2960.25           2289         108.00       468.62
  999.72        2960.50           2293         132.00       573.25
  999.75        2960.75           2296         136.00       590.68
  999.78        2961.00           2300         136.00       590.68
  999.81        2961.25           2303         283.00      1231.52
  999.84        2961.50           2307         927.00      4039.35
  999.87        2961.75           2310        1679.00      7318.74
  999.90        2962.00           2314        2930.00     12775.82
  999.93        2962.25           2317        3930.00     17139.45
  999.96        2962.50           2321        5191.00     22643.85
  999.99        2962.75           2324        6250.00     27268.08
 1000.02        2963.00           2328        7765.00     33886.01
 1000.05        2963.25           2331        8784.00     38338.96
 1000.08        2963.50           2335        9874.00     43103.67
 1000.11        2963.75           2339       11408.00     49811.84
 1000.14        2964.00           2342       12471.00     54462.14
 1000.17        2964.25           2346       13973.00     61035.42
 1000.21        2964.50           2349       14902.00     65102.54
 1000.24        2964.75           2353       16271.00     71098.00
 1000.27        2965.00           2356       17414.00     76105.57
 1000.30        2965.25           2360       18577.00     81202.53
 1000.33        2965.50           2363       19863.00     86840.60
 1000.36        2965.75           2367       21135.00     92419.42
 1000.39        2966.00           2370       22016.00     96284.62
 1000.42        2966.25           2374       22918.00    100243.00
 1000.45        2966.50           2378       23641.00    103416.60
 1000.48        2966.75           2381       24150.00    105651.30
 1000.51        2967.00           2385       23967.00    104847.80
 1000.54        2967.25           2388       23871.00    104426.30
 1000.57        2967.50           2392       23591.00    103197.10
 1000.60        2967.75           2395       23639.00    103407.80
 1000.63        2968.00           2399       22591.00     98807.85
 1000.66        2968.25           2402       21699.00     94893.72
 1000.69        2968.50           2406       20552.00     89862.19
 1000.72        2968.75           2409       19541.00     85428.68
 1000.76        2969.00           2413       18674.00     81627.72
 1000.79        2969.25           2417       17085.00     74664.02
 1000.82        2969.50           2420       15719.00     68680.25
 1000.85        2969.75           2424       14402.00     62913.43
 1000.88        2970.00           2427       14064.00     61433.77
 1000.91        2970.25           2431       12663.00     55302.23
 1000.94        2970.50           2434       11514.00     50275.49
 1000.97        2970.75           2438       10195.00     44507.15
 1001.00        2971.00           2441        9090.00     39676.42
 1001.03        2971.25           2445        7477.00     32627.72
 1001.06        2971.50           2449        5913.00     25796.38
 1001.09        2971.75           2452        4850.00     21155.14
 1001.12        2972.00           2456        3487.00     15206.20
 1001.15        2972.25           2459        2491.00     10860.59
 1001.18        2972.50           2463        1347.00      5870.83
 1001.21        2972.75           2466         677.00      2949.29
 1001.24        2973.00           2470         224.00       974.31
 1001.28        2973.25           2473         156.00       677.87
 1001.31        2973.50           2477         116.00       503.50
 1001.34        2973.75           2481         112.00       486.06
 1001.37        2974.00           2484         158.00       686.59
 1001.40        2974.25           2488         111.00       481.70
 1001.43        2974.50           2491         126.00       547.09
 1001.46        2974.75           2495         133.00       577.61
 1001.49        2975.00           2498         104.00       451.18
 1001.52        2975.25           2502         124.00       538.37
 1001.55        2975.50           2505         116.00       503.50
 1001.58        2975.75           2509         103.00       446.82
 1001.61        2976.00           2512          99.00       429.39
 1001.64        2976.25           2516         122.00       529.65
 1001.67        2976.50           2520          89.00       385.79
 1001.70        2976.75           2523          92.00       398.87
 1001.73        2977.00           2527          93.00       403.23
 1001.76        2977.25           2530         110.00       477.34
 1001.80        2977.50           2534          97.00       420.67
 1001.83        2977.75           2537          88.00       381.43
 1001.86        2978.00           2541          92.00       398.87
 1001.89        2978.25           2544          84.00       364.00
 1001.92        2978.50           2548          87.00       377.08
 1001.95        2978.75           2552          90.00       390.15
 1001.98        2979.00           2555          87.00       377.08
 1002.01        2979.25           2559          93.00       403.23
 1002.04        2979.50           2562          89.00       385.79
 1002.07        2979.75           2566          82.00       355.28
 1002.10        2980.00           2569          89.00       385.79
 1002.13        2980.25           2573          92.00       398.87
 1002.16        2980.50           2577          83.00       359.64
 1002.19        2980.75           2580          81.00       350.92
 1002.22        2981.00           2584          76.00       329.12
 1002.25        2981.25           2587          83.00       359.64
 1002.28        2981.50           2591          84.00       364.00
 1002.32        2981.75           2594          83.00       359.64
 1002.35        2982.00           2598          79.00       342.20
 1002.38        2982.25           2601          81.00       350.92
 1002.41        2982.50           2605          76.00       329.12
 1002.44        2982.75           2609          86.00       372.72
 1002.47        2983.00           2612          79.00       342.20
 1002.50        2983.25           2616          79.00       342.20
 1002.53        2983.50           2619          87.00       377.08
 1002.56        2983.75           2623          78.00       337.84
 1002.59        2984.00           2626          79.00       342.20
HS scan finished at 16:42:49
end
