************************************************************
  HS Scan of (1) Internal mercury lamp
************************************************************
Integration time is 0.2294 seconds per sample
dh111217Reading 51.44 .94 2.49pr1000
************************************************************
Dead Time -------------------------  3.4E-08 
Number of Cycles Used -------------  4 
Starting Wavelength (Angstroms) ---  2950 
Final Wavelength (Angstoms) -------  2984 
Wavelength Increment (Angstroms) --  .25 
Filter Wheel #1 Position ---------- (1) Ground quartz diffuser (ND=2.32)
Filter Wheel #2 Position ---------- (1) Neutral Density 0.494



************************************************************
HS scan start time = 05:09:18
Dark Count =  .4 


Time (GMT)  Wavelength (Ang)  Step Number  Raw Counts  Counts/Second

  310.20        2950.00           2144          81.00       351.36
  310.40        2950.25           2147          89.00       386.23
  310.43        2950.50           2151          91.00       394.95
  310.46        2950.75           2155          85.00       368.79
  310.49        2951.00           2158          81.00       351.36
  310.52        2951.25           2162          81.00       351.36
  310.55        2951.50           2165          87.00       377.51
  310.58        2951.75           2169          82.00       355.71
  310.61        2952.00           2172          79.00       342.64
  310.64        2952.25           2176          80.00       347.00
  310.67        2952.50           2179          84.00       364.43
  310.70        2952.75           2183          95.00       412.39
  310.73        2953.00           2186          84.00       364.43
  310.76        2953.25           2190          83.00       360.07
  310.79        2953.50           2193          90.00       390.59
  310.83        2953.75           2197          92.00       399.31
  310.86        2954.00           2200          89.00       386.23
  310.89        2954.25           2204          96.00       416.75
  310.92        2954.50           2208          98.00       425.46
  310.95        2954.75           2211         115.00       499.57
  310.98        2955.00           2215          94.00       408.03
  311.01        2955.25           2218          96.00       416.75
  311.04        2955.50           2222          89.00       386.23
  311.07        2955.75           2225          96.00       416.75
  311.10        2956.00           2229         102.00       442.90
  311.13        2956.25           2232          93.00       403.67
  311.16        2956.50           2236          93.00       403.67
  311.19        2956.75           2239          93.00       403.67
  311.22        2957.00           2243          98.00       425.46
  311.25        2957.25           2246         116.00       503.93
  311.28        2957.50           2250         101.00       438.54
  311.31        2957.75           2254         102.00       442.90
  311.35        2958.00           2257         129.00       560.60
  311.38        2958.25           2261         114.00       495.21
  311.41        2958.50           2264         102.00       442.90
  311.44        2958.75           2268         122.00       530.09
  311.47        2959.00           2271         103.00       447.26
  311.50        2959.25           2275         107.00       464.70
  311.53        2959.50           2278         132.00       573.68
  311.56        2959.75           2282         130.00       564.96
  311.59        2960.00           2285         115.00       499.57
  311.62        2960.25           2289         109.00       473.42
  311.65        2960.50           2293         134.00       582.40
  311.68        2960.75           2296         138.00       599.84
  311.71        2961.00           2300         155.00       673.95
  311.74        2961.25           2303         246.00      1070.66
  311.77        2961.50           2307         856.00      3730.20
  311.80        2961.75           2310        1615.00      7040.05
  311.83        2962.00           2314        2883.00     12571.20
  311.87        2962.25           2317        3790.00     16528.90
  311.90        2962.50           2321        5100.00     22246.99
  311.93        2962.75           2324        5982.00     26098.13
  311.96        2963.00           2328        7283.00     31780.62
  311.99        2963.25           2331        8280.00     36136.79
  312.02        2963.50           2335        9820.00     42868.01
  312.05        2963.75           2339       11352.00     49567.34
  312.08        2964.00           2342       12354.00     53950.66
  312.11        2964.25           2346       13855.00     60519.35
  312.14        2964.50           2349       14855.00     64897.18
  312.17        2964.75           2353       16363.00     71501.43
  312.20        2965.00           2356       17173.00     75050.03
  312.23        2965.25           2360       18902.00     82627.62
  312.26        2965.50           2363       19525.00     85358.97
  312.29        2965.75           2367       20829.00     91077.59
  312.32        2966.00           2370       21705.00     94920.49
  312.35        2966.25           2374       23109.00    101081.80
  312.39        2966.50           2378       23881.00    104470.70
  312.42        2966.75           2381       24134.00    105581.50
  312.45        2967.00           2385       23946.00    104756.10
  312.48        2967.25           2388       24150.00    105651.70
  312.51        2967.50           2392       24278.00    106213.70
  312.54        2967.75           2395       24173.00    105752.70
  312.57        2968.00           2399       23616.00    103307.30
  312.60        2968.25           2402       22697.00     99273.49
  312.63        2968.50           2406       21404.00     93599.92
  312.66        2968.75           2409       20404.00     89213.52
  312.69        2969.00           2413       18877.00     82518.03
  312.72        2969.25           2417       17357.00     75856.25
  312.75        2969.50           2420       16253.00     71019.58
  312.78        2969.75           2424       14871.00     64967.24
  312.81        2970.00           2427       13924.00     60821.37
  312.84        2970.25           2431       12147.00     53045.02
  312.87        2970.50           2434       11206.00     48928.76
  312.91        2970.75           2438        9580.00     41818.79
  312.94        2971.00           2441        8686.00     37911.09
  312.97        2971.25           2445        7554.00     32964.56
  313.00        2971.50           2449        6118.00     26692.04
  313.03        2971.75           2452        5071.00     22120.38
  313.06        2972.00           2456        3694.00     16109.96
  313.09        2972.25           2459        2647.00     11541.58
  313.12        2972.50           2463        1315.00      5731.72
  313.15        2972.75           2466         622.00      2709.93
  313.18        2973.00           2470         222.00       966.03
  313.21        2973.25           2473         150.00       652.15
  313.24        2973.50           2477         128.00       556.24
  313.27        2973.75           2481         133.00       578.04
  313.30        2974.00           2484         120.00       521.37
  313.33        2974.25           2488         113.00       490.85
  313.36        2974.50           2491         110.00       477.78
  313.39        2974.75           2495         103.00       447.26
  313.42        2975.00           2498         108.00       469.06
  313.46        2975.25           2502         105.00       455.98
  313.49        2975.50           2505         109.00       473.42
  313.52        2975.75           2509         124.00       538.81
  313.55        2976.00           2512          98.00       425.46
  313.58        2976.25           2516         124.00       538.81
  313.61        2976.50           2520         109.00       473.42
  313.64        2976.75           2523         107.00       464.70
  313.67        2977.00           2527         117.00       508.29
  313.70        2977.25           2530         101.00       438.54
  313.73        2977.50           2534         101.00       438.54
  313.76        2977.75           2537          95.00       412.39
  313.79        2978.00           2541          96.00       416.75
  313.82        2978.25           2544          98.00       425.46
  313.85        2978.50           2548         102.00       442.90
  313.88        2978.75           2552          93.00       403.67
  313.91        2979.00           2555          87.00       377.51
  313.94        2979.25           2559          86.00       373.15
  313.98        2979.50           2562          87.00       377.51
  314.01        2979.75           2566         100.00       434.18
  314.04        2980.00           2569          95.00       412.39
  314.07        2980.25           2573          83.00       360.07
  314.10        2980.50           2577          92.00       399.31
  314.14        2980.75           2580          93.00       403.67
  314.17        2981.00           2584          89.00       386.23
  314.20        2981.25           2587          88.00       381.87
  314.24        2981.50           2591          87.00       377.51
  314.27        2981.75           2594          89.00       386.23
  314.30        2982.00           2598          90.00       390.59
  314.33        2982.25           2601          85.00       368.79
  314.36        2982.50           2605          93.00       403.67
  314.39        2982.75           2609          96.00       416.75
  314.42        2983.00           2612          90.00       390.59
  314.45        2983.25           2616          81.00       351.36
  314.48        2983.50           2619          89.00       386.23
  314.51        2983.75           2623          83.00       360.07
  314.54        2984.00           2626         102.00       442.90
HS scan finished at 05:14:46
end
************************************************************
  HS Scan of (1) Internal mercury lamp
************************************************************
Integration time is 0.2294 seconds per sample
dh111217Reading 51.44 .94 2.5pr1000
************************************************************
Dead Time -------------------------  3.4E-08 
Number of Cycles Used -------------  4 
Starting Wavelength (Angstroms) ---  2950 
Final Wavelength (Angstoms) -------  2984 
Wavelength Increment (Angstroms) --  .25 
Filter Wheel #1 Position ---------- (1) Ground quartz diffuser (ND=2.32)
Filter Wheel #2 Position ---------- (1) Neutral Density 0.494



************************************************************
HS scan start time = 16:37:21
Dark Count =  .3 


Time (GMT)  Wavelength (Ang)  Step Number  Raw Counts  Counts/Second

  998.24        2950.00           2144          85.00       369.23
  998.44        2950.25           2147          89.00       386.67
  998.47        2950.50           2151          86.00       373.59
  998.50        2950.75           2155         110.00       478.21
  998.53        2951.00           2158          92.00       399.74
  998.56        2951.25           2162          96.00       417.18
  998.59        2951.50           2165          87.00       377.95
  998.62        2951.75           2169          87.00       377.95
  998.65        2952.00           2172          84.00       364.87
  998.68        2952.25           2176          91.00       395.38
  998.71        2952.50           2179          92.00       399.74
  998.74        2952.75           2183          87.00       377.95
  998.77        2953.00           2186          96.00       417.18
  998.80        2953.25           2190          82.00       356.15
  998.83        2953.50           2193          95.00       412.82
  998.86        2953.75           2197          89.00       386.67
  998.89        2954.00           2200          87.00       377.95
  998.92        2954.25           2204          93.00       404.10
  998.96        2954.50           2208          94.00       408.46
  998.99        2954.75           2211          91.00       395.38
  999.02        2955.00           2215          90.00       391.03
  999.05        2955.25           2218          97.00       421.54
  999.08        2955.50           2222          95.00       412.82
  999.11        2955.75           2225          87.00       377.95
  999.14        2956.00           2229          92.00       399.74
  999.17        2956.25           2232          99.00       430.26
  999.20        2956.50           2236         119.00       517.45
  999.23        2956.75           2239          92.00       399.74
  999.26        2957.00           2243          95.00       412.82
  999.29        2957.25           2246         110.00       478.21
  999.32        2957.50           2250         117.00       508.73
  999.35        2957.75           2254         120.00       521.81
  999.38        2958.00           2257         148.00       643.87
  999.41        2958.25           2261          95.00       412.82
  999.44        2958.50           2264         126.00       547.96
  999.48        2958.75           2268         111.00       482.57
  999.51        2959.00           2271         126.00       547.96
  999.54        2959.25           2275         107.00       465.13
  999.57        2959.50           2278         108.00       469.49
  999.60        2959.75           2282         131.00       569.76
  999.63        2960.00           2285         130.00       565.40
  999.66        2960.25           2289         115.00       500.01
  999.69        2960.50           2293         152.00       661.31
  999.72        2960.75           2296         113.00       491.29
  999.75        2961.00           2300         141.00       613.35
  999.78        2961.25           2303         289.00      1258.55
  999.81        2961.50           2307         908.00      3957.38
  999.84        2961.75           2310        1745.00      7607.46
  999.87        2962.00           2314        2915.00     12711.25
  999.90        2962.25           2317        3927.00     17127.23
  999.93        2962.50           2321        5430.00     23688.21
  999.96        2962.75           2324        6610.00     28841.26
 1000.00        2963.00           2328        8121.00     35442.42
 1000.03        2963.25           2331        9226.00     40271.76
 1000.06        2963.50           2335       10693.00     46685.65
 1000.09        2963.75           2339       12189.00     53229.21
 1000.12        2964.00           2342       13468.00     58825.92
 1000.15        2964.25           2346       14884.00     65024.60
 1000.18        2964.50           2349       15929.00     69600.88
 1000.21        2964.75           2353       17149.00     74945.31
 1000.24        2965.00           2356       18208.00     79586.03
 1000.27        2965.25           2360       19756.00     86372.28
 1000.30        2965.50           2363       20739.00     90683.26
 1000.33        2965.75           2367       22137.00     96816.43
 1000.36        2966.00           2370       23293.00    101889.90
 1000.39        2966.25           2374       24313.00    106367.90
 1000.42        2966.50           2378       24978.00    109288.10
 1000.45        2966.75           2381       24936.00    109103.60
 1000.48        2967.00           2385       25144.00    110017.10
 1000.51        2967.25           2388       25115.00    109889.80
 1000.55        2967.50           2392       24968.00    109244.20
 1000.58        2967.75           2395       24842.00    108690.80
 1000.61        2968.00           2399       24109.00    105472.10
 1000.64        2968.25           2402       23395.00    102337.60
 1000.67        2968.50           2406       21826.00     95451.81
 1000.70        2968.75           2409       20965.00     91674.58
 1000.73        2969.00           2413       19519.00     85333.09
 1000.76        2969.25           2417       18121.00     79204.73
 1000.79        2969.50           2420       16832.00     73556.44
 1000.82        2969.75           2424       15409.00     67323.51
 1000.85        2970.00           2427       14332.00     62607.85
 1000.88        2970.25           2431       12838.00     56068.87
 1000.91        2970.50           2434       11579.00     50560.69
 1000.94        2970.75           2438       10325.00     45076.45
 1000.97        2971.00           2441        9208.00     40193.08
 1001.00        2971.25           2445        7576.00     33061.12
 1001.03        2971.50           2449        6013.00     26233.94
 1001.07        2971.75           2452        4957.00     21623.13
 1001.10        2972.00           2456        3601.00     15704.55
 1001.13        2972.25           2459        2694.00     11747.06
 1001.16        2972.50           2463        1469.00      6403.75
 1001.19        2972.75           2466         733.00      3194.33
 1001.22        2973.00           2470         241.00      1049.30
 1001.25        2973.25           2473         162.00       704.90
 1001.28        2973.50           2477         129.00       561.04
 1001.31        2973.75           2481         140.00       608.99
 1001.34        2974.00           2484         140.00       608.99
 1001.37        2974.25           2488         125.00       543.60
 1001.40        2974.50           2491         136.00       591.56
 1001.43        2974.75           2495         131.00       569.76
 1001.46        2975.00           2498         124.00       539.24
 1001.49        2975.25           2502         115.00       500.01
 1001.52        2975.50           2505         115.00       500.01
 1001.55        2975.75           2509         107.00       465.13
 1001.59        2976.00           2512         101.00       438.98
 1001.62        2976.25           2516         100.00       434.62
 1001.66        2976.50           2520         102.00       443.34
 1001.69        2976.75           2523         105.00       456.42
 1001.72        2977.00           2527         114.00       495.65
 1001.75        2977.25           2530          97.00       421.54
 1001.78        2977.50           2534         120.00       521.81
 1001.81        2977.75           2537          97.00       421.54
 1001.85        2978.00           2541         108.00       469.49
 1001.88        2978.25           2544          98.00       425.90
 1001.91        2978.50           2548          94.00       408.46
 1001.94        2978.75           2552          89.00       386.67
 1001.97        2979.00           2555          95.00       412.82
 1002.00        2979.25           2559          94.00       408.46
 1002.03        2979.50           2562          89.00       386.67
 1002.06        2979.75           2566          97.00       421.54
 1002.09        2980.00           2569         111.00       482.57
 1002.12        2980.25           2573         102.00       443.34
 1002.15        2980.50           2577          93.00       404.10
 1002.18        2980.75           2580          93.00       404.10
 1002.21        2981.00           2584          80.00       347.43
 1002.24        2981.25           2587          85.00       369.23
 1002.27        2981.50           2591          85.00       369.23
 1002.30        2981.75           2594          89.00       386.67
 1002.33        2982.00           2598          85.00       369.23
 1002.37        2982.25           2601          79.00       343.07
 1002.40        2982.50           2605          93.00       404.10
 1002.43        2982.75           2609          84.00       364.87
 1002.46        2983.00           2612          93.00       404.10
 1002.49        2983.25           2616          81.00       351.79
 1002.52        2983.50           2619          85.00       369.23
 1002.55        2983.75           2623          91.00       395.38
 1002.58        2984.00           2626          89.00       386.67
HS scan finished at 16:42:48
end
