************************************************************
  HS Scan of (1) Internal mercury lamp
************************************************************
Integration time is 0.2294 seconds per sample
dh251218Reading 51.44 .94 2.66pr1000
************************************************************
Dead Time -------------------------  3.4E-08 
Number of Cycles Used -------------  4 
Starting Wavelength (Angstroms) ---  2950 
Final Wavelength (Angstoms) -------  2984 
Wavelength Increment (Angstroms) --  .25 
Filter Wheel #1 Position ---------- (1) Ground quartz diffuser (ND=2.32)
Filter Wheel #2 Position ---------- (1) Neutral Density 0.494



************************************************************
HS scan start time = 05:14:52
Dark Count =  .2 


Time (GMT)  Wavelength (Ang)  Step Number  Raw Counts  Counts/Second

  315.77        2950.00           2144        1605.00      6997.31
  315.96        2950.25           2147        1585.00      6910.08
  315.99        2950.50           2151        1603.00      6988.58
  316.02        2950.75           2155        1636.00      7132.51
  316.05        2951.00           2158        1580.00      6888.27
  316.09        2951.25           2162        1615.00      7040.92
  316.12        2951.50           2165        1578.00      6879.55
  316.15        2951.75           2169        1665.00      7258.98
  316.18        2952.00           2172        1583.00      6901.36
  316.21        2952.25           2176        1603.00      6988.58
  316.24        2952.50           2179        1614.00      7036.56
  316.27        2952.75           2183        1636.00      7132.51
  316.31        2953.00           2186        1635.00      7128.14
  316.34        2953.25           2190        1653.00      7206.65
  316.37        2953.50           2193        1661.00      7241.54
  316.40        2953.75           2197        1632.00      7115.06
  316.43        2954.00           2200        1665.00      7258.98
  316.46        2954.25           2204        1635.00      7128.14
  316.49        2954.50           2208        1691.00      7372.38
  316.52        2954.75           2211        1648.00      7184.84
  316.55        2955.00           2215        1658.00      7228.46
  316.58        2955.25           2218        1656.00      7219.73
  316.61        2955.50           2222        1725.00      7520.67
  316.64        2955.75           2225        1709.00      7450.89
  316.67        2956.00           2229        1680.00      7324.40
  316.70        2956.25           2232        1675.00      7302.60
  316.73        2956.50           2236        1704.00      7429.08
  316.76        2956.75           2239        1690.00      7368.02
  316.80        2957.00           2243        1715.00      7477.05
  316.83        2957.25           2246        1733.00      7555.56
  316.86        2957.50           2250        1758.00      7664.60
  316.89        2957.75           2254        1772.00      7725.66
  316.92        2958.00           2257        1776.00      7743.10
  316.95        2958.25           2261        1775.00      7738.74
  316.98        2958.50           2264        1810.00      7891.39
  317.01        2958.75           2268        1850.00      8065.86
  317.04        2959.00           2271        1845.00      8044.05
  317.07        2959.25           2275        1859.00      8105.11
  317.10        2959.50           2278        1883.00      8209.79
  317.13        2959.75           2282        1917.00      8358.09
  317.16        2960.00           2285        1901.00      8288.30
  317.19        2960.25           2289        1930.00      8414.79
  317.22        2960.50           2293        1993.00      8689.58
  317.25        2960.75           2296        2049.00      8933.84
  317.28        2961.00           2300        2133.00      9300.24
  317.32        2961.25           2303        2434.00     10613.25
  317.35        2961.50           2307        7015.00     30610.75
  317.38        2961.75           2310       16414.00     71725.71
  317.41        2962.00           2314       31683.00    138764.80
  317.44        2962.25           2317       43942.00    192810.90
  317.47        2962.50           2321       63249.00    278335.70
  317.50        2962.75           2324       79565.00    351002.70
  317.53        2963.00           2328      104563.00    463042.80
  317.56        2963.25           2331      121159.00    537903.30
  317.59        2963.50           2335      141769.00    631408.80
  317.62        2963.75           2339      163519.00    730742.60
  317.65        2964.00           2342      181105.00    811559.00
  317.68        2964.25           2346      202553.00    910736.60
  317.71        2964.50           2349      218476.00    984808.10
  317.74        2964.75           2353      240759.00   1089107.00
  317.77        2965.00           2356      256860.00   1164942.00
  317.80        2965.25           2360      276524.00   1258103.00
  317.84        2965.50           2363      291565.00   1329772.00
  317.87        2965.75           2367      310550.00   1420747.00
  317.90        2966.00           2370      323512.00   1483193.00
  317.93        2966.25           2374      342191.00   1573663.00
  317.96        2966.50           2378      356336.00   1642556.00
  317.99        2966.75           2381      360068.00   1660788.00
  318.02        2967.00           2385      361886.00   1669678.00
  318.05        2967.25           2388      361652.00   1668533.00
  318.08        2967.50           2392      361946.00   1669971.00
  318.11        2967.75           2395      360772.00   1664230.00
  318.14        2968.00           2399      354776.00   1634941.00
  318.17        2968.25           2402      344180.00   1583330.00
  318.20        2968.50           2406      327653.00   1503200.00
  318.23        2968.75           2409      313554.00   1435195.00
  318.26        2969.00           2413      293413.00   1338602.00
  318.29        2969.25           2417      273753.00   1244939.00
  318.32        2969.50           2420      258479.00   1172590.00
  318.35        2969.75           2424      238977.00   1080738.00
  318.39        2970.00           2427      222931.00   1005600.00
  318.42        2970.25           2431      200148.00    899581.80
  318.45        2970.50           2434      184311.00    826340.70
  318.48        2970.75           2438      163177.00    729175.40
  318.51        2971.00           2441      148898.00    663892.80
  318.54        2971.25           2445      129580.00    576036.00
  318.57        2971.50           2449      107938.00    478235.50
  318.60        2971.75           2452       90134.00    398267.70
  318.63        2972.00           2456       67049.00    295227.60
  318.66        2972.25           2459       50767.00    222986.70
  318.69        2972.50           2463       31680.00    138751.60
  318.72        2972.75           2466       18437.00     80590.19
  318.75        2973.00           2470        6416.00     27994.38
  318.78        2973.25           2473        3183.00     13881.01
  318.82        2973.50           2477        2143.00      9343.86
  318.85        2973.75           2481        2075.00      9047.25
  318.88        2974.00           2484        1996.00      8702.66
  318.91        2974.25           2488        1918.00      8362.45
  318.94        2974.50           2491        1876.00      8179.26
  318.97        2974.75           2495        1913.00      8340.64
  319.00        2975.00           2498        1842.00      8030.96
  319.03        2975.25           2502        1867.00      8140.00
  319.06        2975.50           2505        1853.00      8078.94
  319.10        2975.75           2509        1828.00      7969.90
  319.13        2976.00           2512        1761.00      7677.68
  319.16        2976.25           2516        1755.00      7651.51
  319.19        2976.50           2520        1748.00      7620.98
  319.22        2976.75           2523        1711.00      7459.61
  319.25        2977.00           2527        1690.00      7368.02
  319.28        2977.25           2530        1688.00      7359.30
  319.31        2977.50           2534        1705.00      7433.44
  319.34        2977.75           2537        1641.00      7154.31
  319.37        2978.00           2541        1641.00      7154.31
  319.40        2978.25           2544        1654.00      7211.01
  319.43        2978.50           2548        1628.00      7097.62
  319.46        2978.75           2552        1628.00      7097.62
  319.49        2979.00           2555        1604.00      6992.95
  319.52        2979.25           2559        1605.00      6997.31
  319.55        2979.50           2562        1587.00      6918.80
  319.58        2979.75           2566        1594.00      6949.33
  319.62        2980.00           2569        1598.00      6966.78
  319.65        2980.25           2573        1540.00      6713.83
  319.68        2980.50           2577        1531.00      6674.58
  319.71        2980.75           2580        1579.00      6883.91
  319.74        2981.00           2584        1555.00      6779.24
  319.77        2981.25           2587        1503.00      6552.46
  319.80        2981.50           2591        1574.00      6862.11
  319.83        2981.75           2594        1503.00      6552.46
  319.86        2982.00           2598        1536.00      6696.38
  319.89        2982.25           2601        1504.00      6556.82
  319.92        2982.50           2605        1503.00      6552.46
  319.95        2982.75           2609        1520.00      6626.60
  319.98        2983.00           2612        1491.00      6500.13
  320.01        2983.25           2616        1508.00      6574.27
  320.04        2983.50           2619        1486.00      6478.32
  320.07        2983.75           2623        1460.00      6364.94
  320.10        2984.00           2626        1480.00      6452.16
HS scan finished at 05:20:20
end
************************************************************
  HS Scan of (1) Internal mercury lamp
************************************************************
Integration time is 0.2294 seconds per sample
dh251218Reading 51.44 .94 3.01pr1000
************************************************************
Dead Time -------------------------  3.4E-08 
Number of Cycles Used -------------  4 
Starting Wavelength (Angstroms) ---  2950 
Final Wavelength (Angstoms) -------  2984 
Wavelength Increment (Angstroms) --  .25 
Filter Wheel #1 Position ---------- (1) Ground quartz diffuser (ND=2.32)
Filter Wheel #2 Position ---------- (1) Neutral Density 0.494



************************************************************
HS scan start time = 17:07:27
Dark Count =  .7 


Time (GMT)  Wavelength (Ang)  Step Number  Raw Counts  Counts/Second

 1028.34        2950.00           2144        1388.00      6048.76
 1028.53        2950.25           2147        1341.00      5843.79
 1028.57        2950.50           2151        1361.00      5931.01
 1028.60        2950.75           2155        1410.00      6144.70
 1028.63        2951.00           2158        1363.00      5939.74
 1028.66        2951.25           2162        1449.00      6314.78
 1028.69        2951.50           2165        1405.00      6122.90
 1028.72        2951.75           2169        1404.00      6118.54
 1028.75        2952.00           2172        1442.00      6284.26
 1028.78        2952.25           2176        1392.00      6066.20
 1028.81        2952.50           2179        1384.00      6031.32
 1028.84        2952.75           2183        1399.00      6096.73
 1028.87        2953.00           2186        1405.00      6122.90
 1028.90        2953.25           2190        1392.00      6066.20
 1028.93        2953.50           2193        1453.00      6332.23
 1028.96        2953.75           2197        1419.00      6183.95
 1028.99        2954.00           2200        1430.00      6231.92
 1029.02        2954.25           2204        1449.00      6314.78
 1029.05        2954.50           2208        1456.00      6345.31
 1029.09        2954.75           2211        1463.00      6375.84
 1029.12        2955.00           2215        1446.00      6301.70
 1029.15        2955.25           2218        1479.00      6445.62
 1029.18        2955.50           2222        1480.00      6449.98
 1029.21        2955.75           2225        1471.00      6410.73
 1029.24        2956.00           2229        1484.00      6467.42
 1029.27        2956.25           2232        1491.00      6497.95
 1029.30        2956.50           2236        1499.00      6532.84
 1029.33        2956.75           2239        1526.00      6650.59
 1029.36        2957.00           2243        1514.00      6598.25
 1029.39        2957.25           2246        1514.00      6598.25
 1029.42        2957.50           2250        1561.00      6803.23
 1029.45        2957.75           2254        1563.00      6811.95
 1029.48        2958.00           2257        1593.00      6942.79
 1029.51        2958.25           2261        1547.00      6742.17
 1029.54        2958.50           2264        1592.00      6938.43
 1029.57        2958.75           2268        1600.00      6973.32
 1029.61        2959.00           2271        1636.00      7130.33
 1029.64        2959.25           2275        1628.00      7095.43
 1029.67        2959.50           2278        1665.00      7256.80
 1029.70        2959.75           2282        1666.00      7261.16
 1029.73        2960.00           2285        1707.00      7439.98
 1029.76        2960.25           2289        1715.00      7474.87
 1029.79        2960.50           2293        1738.00      7575.19
 1029.82        2960.75           2296        1805.00      7867.41
 1029.85        2961.00           2300        1862.00      8116.01
 1029.88        2961.25           2303        2151.00      9376.57
 1029.91        2961.50           2307        5302.00     23127.60
 1029.94        2961.75           2310       12931.00     56474.08
 1029.97        2962.00           2314       28203.00    123456.50
 1030.00        2962.25           2317       41090.00    180217.30
 1030.03        2962.50           2321       60136.00    264509.90
 1030.06        2962.75           2324       76218.00    336064.40
 1030.09        2963.00           2328       98206.00    434467.10
 1030.13        2963.25           2331      114101.00    506017.20
 1030.16        2963.50           2335      134277.00    597346.60
 1030.19        2963.75           2339      156238.00    697411.80
 1030.22        2964.00           2342      173958.00    778658.30
 1030.25        2964.25           2346      196929.00    884662.60
 1030.28        2964.50           2349      213113.00    959815.40
 1030.31        2964.75           2353      233723.00   1056090.00
 1030.34        2965.00           2356      247489.00   1120754.00
 1030.37        2965.25           2360      267050.00   1213141.00
 1030.40        2965.50           2363      281344.00   1281029.00
 1030.43        2965.75           2367      300331.00   1371704.00
 1030.46        2966.00           2370      313847.00   1436602.00
 1030.49        2966.25           2374      330858.00   1518702.00
 1030.52        2966.50           2378      345997.00   1592165.00
 1030.55        2966.75           2381      351056.00   1616798.00
 1030.58        2967.00           2385      352862.00   1625602.00
 1030.61        2967.25           2388      352495.00   1623813.00
 1030.64        2967.50           2392      352388.00   1623291.00
 1030.68        2967.75           2395      351630.00   1619596.00
 1030.71        2968.00           2399      346727.00   1595717.00
 1030.74        2968.25           2402      337350.00   1550158.00
 1030.77        2968.50           2406      321805.00   1474951.00
 1030.80        2968.75           2409      308458.00   1410691.00
 1030.83        2969.00           2413      289402.00   1319441.00
 1030.86        2969.25           2417      267903.00   1217183.00
 1030.89        2969.50           2420      252296.00   1143403.00
 1030.92        2969.75           2424      232394.00   1049863.00
 1030.95        2970.00           2427      216750.00    976758.30
 1030.98        2970.25           2431      197278.00    886279.10
 1031.01        2970.50           2434      181116.00    811607.30
 1031.04        2970.75           2438      159123.00    710608.70
 1031.07        2971.00           2441      142922.00    636655.40
 1031.10        2971.25           2445      122889.00    545726.90
 1031.13        2971.50           2449      103168.00    456765.50
 1031.16        2971.75           2452       87597.00    386905.90
 1031.20        2972.00           2456       64311.00    283052.30
 1031.23        2972.25           2459       48630.00    213529.40
 1031.26        2972.50           2463       30712.00    134490.20
 1031.29        2972.75           2466       19521.00     85340.12
 1031.32        2973.00           2470        7094.00     30953.66
 1031.35        2973.25           2473        3253.00     14184.26
 1031.38        2973.50           2477        1984.00      8648.14
 1031.41        2973.75           2481        1890.00      8238.14
 1031.44        2974.00           2484        1797.00      7832.51
 1031.47        2974.25           2488        1801.00      7849.96
 1031.50        2974.50           2491        1742.00      7592.63
 1031.53        2974.75           2495        1737.00      7570.82
 1031.56        2975.00           2498        1670.00      7278.61
 1031.59        2975.25           2502        1625.00      7082.35
 1031.62        2975.50           2505        1641.00      7152.13
 1031.65        2975.75           2509        1603.00      6986.40
 1031.69        2976.00           2512        1572.00      6851.20
 1031.72        2976.25           2516        1557.00      6785.79
 1031.75        2976.50           2520        1544.00      6729.09
 1031.78        2976.75           2523        1568.00      6833.76
 1031.81        2977.00           2527        1524.00      6641.87
 1031.84        2977.25           2530        1543.00      6724.73
 1031.87        2977.50           2534        1502.00      6545.92
 1031.90        2977.75           2537        1520.00      6624.42
 1031.93        2978.00           2541        1517.00      6611.34
 1031.96        2978.25           2544        1478.00      6441.25
 1031.99        2978.50           2548        1480.00      6449.98
 1032.02        2978.75           2552        1460.00      6362.75
 1032.05        2979.00           2555        1377.00      6000.79
 1032.08        2979.25           2559        1412.00      6153.42
 1032.11        2979.50           2562        1362.00      5935.37
 1032.14        2979.75           2566        1428.00      6223.20
 1032.17        2980.00           2569        1356.00      5909.21
 1032.21        2980.25           2573        1385.00      6035.68
 1032.24        2980.50           2577        1391.00      6061.84
 1032.27        2980.75           2580        1357.00      5913.57
 1032.30        2981.00           2584        1337.00      5826.35
 1032.33        2981.25           2587        1340.00      5839.43
 1032.36        2981.50           2591        1364.00      5944.10
 1032.39        2981.75           2594        1311.00      5712.97
 1032.42        2982.00           2598        1327.00      5782.74
 1032.45        2982.25           2601        1325.00      5774.02
 1032.48        2982.50           2605        1317.00      5739.13
 1032.51        2982.75           2609        1322.00      5760.94
 1032.54        2983.00           2612        1310.00      5708.61
 1032.57        2983.25           2616        1326.00      5778.38
 1032.60        2983.50           2619        1320.00      5752.22
 1032.63        2983.75           2623        1312.00      5717.33
 1032.66        2984.00           2626        1290.00      5621.39
HS scan finished at 17:12:53
end
