************************************************************
  HS Scan of (1) Internal mercury lamp
************************************************************
Integration time is 0.2294 seconds per sample
dh211218Reading 51.44 .94 3.03pr1000
************************************************************
Dead Time -------------------------  3.4E-08 
Number of Cycles Used -------------  4 
Starting Wavelength (Angstroms) ---  2950 
Final Wavelength (Angstoms) -------  2984 
Wavelength Increment (Angstroms) --  .25 
Filter Wheel #1 Position ---------- (1) Ground quartz diffuser (ND=2.32)
Filter Wheel #2 Position ---------- (1) Neutral Density 0.494



************************************************************
HS scan start time = 05:13:03
Dark Count =  .8 


Time (GMT)  Wavelength (Ang)  Step Number  Raw Counts  Counts/Second

  313.96        2950.00           2144        1523.00      6637.07
  314.15        2950.25           2147        1536.00      6693.76
  314.18        2950.50           2151        1555.00      6776.63
  314.21        2950.75           2155        1548.00      6746.10
  314.24        2951.00           2158        1545.00      6733.01
  314.27        2951.25           2162        1557.00      6785.35
  314.30        2951.50           2165        1600.00      6972.88
  314.33        2951.75           2169        1581.00      6890.02
  314.36        2952.00           2172        1603.00      6985.97
  314.40        2952.25           2176        1573.00      6855.13
  314.43        2952.50           2179        1581.00      6890.02
  314.46        2952.75           2183        1571.00      6846.41
  314.49        2953.00           2186        1620.00      7060.11
  314.52        2953.25           2190        1615.00      7038.30
  314.55        2953.50           2193        1618.00      7051.39
  314.58        2953.75           2197        1631.00      7108.08
  314.61        2954.00           2200        1601.00      6977.24
  314.64        2954.25           2204        1634.00      7121.17
  314.67        2954.50           2208        1643.00      7160.42
  314.70        2954.75           2211        1652.00      7199.67
  314.73        2955.00           2215        1683.00      7334.87
  314.76        2955.25           2218        1649.00      7186.59
  314.79        2955.50           2222        1685.00      7343.59
  314.82        2955.75           2225        1698.00      7400.29
  314.85        2956.00           2229        1710.00      7452.63
  314.89        2956.25           2232        1694.00      7382.85
  314.92        2956.50           2236        1722.00      7504.97
  314.95        2956.75           2239        1708.00      7443.91
  314.98        2957.00           2243        1729.00      7535.50
  315.01        2957.25           2246        1777.00      7744.85
  315.04        2957.50           2250        1756.00      7653.26
  315.07        2957.75           2254        1721.00      7500.61
  315.10        2958.00           2257        1813.00      7901.86
  315.13        2958.25           2261        1822.00      7941.11
  315.16        2958.50           2264        1802.00      7853.88
  315.19        2958.75           2268        1862.00      8115.58
  315.22        2959.00           2271        1892.00      8246.43
  315.25        2959.25           2275        1862.00      8115.58
  315.28        2959.50           2278        1910.00      8324.94
  315.31        2959.75           2282        1938.00      8447.06
  315.34        2960.00           2285        1953.00      8512.49
  315.37        2960.25           2289        1998.00      8708.77
  315.40        2960.50           2293        2018.00      8796.00
  315.44        2960.75           2296        2105.00      9175.49
  315.47        2961.00           2300        2399.00     10457.95
  315.50        2961.25           2303        3994.00     17417.46
  315.53        2961.50           2307       13705.00     59861.04
  315.56        2961.75           2310       26524.00    116077.10
  315.59        2962.00           2314       46975.00    206210.60
  315.62        2962.25           2317       63788.00    280727.80
  315.65        2962.50           2321       85219.00    376266.00
  315.68        2962.75           2324      101112.00    447521.60
  315.71        2963.00           2328      125779.00    558809.00
  315.74        2963.25           2331      146043.00    650872.30
  315.77        2963.50           2335      171254.00    766230.60
  315.80        2963.75           2339      194322.00    872592.60
  315.83        2964.00           2342      210947.00    949734.20
  315.86        2964.25           2346      235724.00   1065471.00
  315.89        2964.50           2349      253495.00   1149057.00
  315.92        2964.75           2353      279929.00   1274294.00
  315.96        2965.00           2356      296584.00   1353764.00
  315.99        2965.25           2360      316033.00   1447126.00
  316.02        2965.50           2363      329871.00   1513925.00
  316.05        2965.75           2367      352203.00   1622389.00
  316.08        2966.00           2370      367131.00   1695354.00
  316.11        2966.25           2374      387930.00   1797641.00
  316.14        2966.50           2378      400319.00   1858920.00
  316.17        2966.75           2381      402899.00   1871715.00
  316.20        2967.00           2385      404355.00   1878941.00
  316.23        2967.25           2388      404913.00   1881711.00
  316.26        2967.50           2392      404693.00   1880618.00
  316.29        2967.75           2395      402584.00   1870152.00
  316.32        2968.00           2399      394907.00   1832119.00
  316.35        2968.25           2402      381925.00   1768034.00
  316.38        2968.50           2406      360734.00   1664041.00
  316.41        2968.75           2409      343314.00   1579117.00
  316.44        2969.00           2413      322778.00   1479646.00
  316.48        2969.25           2417      302736.00   1383230.00
  316.51        2969.50           2420      286485.00   1305523.00
  316.54        2969.75           2424      261722.00   1187918.00
  316.57        2970.00           2427      241560.00   1092867.00
  316.60        2970.25           2431      215215.00    969604.60
  316.63        2970.50           2434      197323.00    886487.10
  316.66        2970.75           2438      171664.00    768114.20
  316.69        2971.00           2441      151727.00    676800.80
  316.72        2971.25           2445      128726.00    572161.60
  316.75        2971.50           2449      105493.00    467225.00
  316.78        2971.75           2452       86111.00    380256.00
  316.81        2972.00           2456       61723.00    271555.00
  316.84        2972.25           2459       44118.00    193585.60
  316.87        2972.50           2463       22908.00    100197.80
  316.90        2972.75           2466       11101.00     48467.78
  316.93        2973.00           2470        4194.00     18290.36
  316.96        2973.25           2473        2584.00     11264.99
  317.00        2973.50           2477        2158.00      9406.67
  317.03        2973.75           2481        2043.00      8905.05
  317.06        2974.00           2484        2018.00      8796.00
  317.09        2974.25           2488        1949.00      8495.04
  317.12        2974.50           2491        1960.00      8543.02
  317.15        2974.75           2495        1895.00      8259.51
  317.18        2975.00           2498        1888.00      8228.98
  317.21        2975.25           2502        1855.00      8085.05
  317.24        2975.50           2505        1855.00      8085.05
  317.27        2975.75           2509        1827.00      7962.92
  317.30        2976.00           2512        1777.00      7744.85
  317.33        2976.25           2516        1781.00      7762.29
  317.36        2976.50           2520        1779.00      7753.57
  317.39        2976.75           2523        1737.00      7570.39
  317.42        2977.00           2527        1727.00      7526.77
  317.45        2977.25           2530        1722.00      7504.97
  317.48        2977.50           2534        1650.00      7190.95
  317.52        2977.75           2537        1690.00      7365.40
  317.55        2978.00           2541        1674.00      7295.62
  317.58        2978.25           2544        1645.00      7169.14
  317.61        2978.50           2548        1656.00      7217.12
  317.64        2978.75           2552        1605.00      6994.69
  317.67        2979.00           2555        1602.00      6981.60
  317.70        2979.25           2559        1600.00      6972.88
  317.73        2979.50           2562        1609.00      7012.13
  317.76        2979.75           2566        1587.00      6916.19
  317.79        2980.00           2569        1544.00      6728.65
  317.82        2980.25           2573        1555.00      6776.63
  317.85        2980.50           2577        1581.00      6890.02
  317.88        2980.75           2580        1598.00      6964.16
  317.91        2981.00           2584        1533.00      6680.68
  317.94        2981.25           2587        1539.00      6706.85
  317.97        2981.50           2591        1534.00      6685.04
  318.00        2981.75           2594        1491.00      6497.51
  318.04        2982.00           2598        1535.00      6689.40
  318.07        2982.25           2601        1533.00      6680.68
  318.10        2982.50           2605        1484.00      6466.98
  318.13        2982.75           2609        1478.00      6440.82
  318.16        2983.00           2612        1476.00      6432.10
  318.19        2983.25           2616        1507.00      6567.29
  318.22        2983.50           2619        1472.00      6414.65
  318.25        2983.75           2623        1451.00      6323.07
  318.28        2984.00           2626        1465.00      6384.12
HS scan finished at 05:18:30
end
************************************************************
  HS Scan of (1) Internal mercury lamp
************************************************************
Integration time is 0.2294 seconds per sample
dh211218Reading 51.44 .94 3.11pr1000
************************************************************
Dead Time -------------------------  3.4E-08 
Number of Cycles Used -------------  4 
Starting Wavelength (Angstroms) ---  2950 
Final Wavelength (Angstoms) -------  2984 
Wavelength Increment (Angstroms) --  .25 
Filter Wheel #1 Position ---------- (1) Ground quartz diffuser (ND=2.32)
Filter Wheel #2 Position ---------- (1) Neutral Density 0.494



************************************************************
HS scan start time = 16:37:24
Dark Count =  .9 


Time (GMT)  Wavelength (Ang)  Step Number  Raw Counts  Counts/Second

  998.30        2950.00           2144        1210.00      5271.65
  998.50        2950.25           2147        1256.00      5472.25
  998.53        2950.50           2151        1228.00      5350.15
  998.56        2950.75           2155        1229.00      5354.51
  998.59        2951.00           2158        1257.00      5476.61
  998.62        2951.25           2162        1250.00      5446.08
  998.65        2951.50           2165        1222.00      5323.98
  998.68        2951.75           2169        1251.00      5450.44
  998.71        2952.00           2172        1310.00      5707.73
  998.74        2952.25           2176        1262.00      5498.41
  998.77        2952.50           2179        1250.00      5446.08
  998.80        2952.75           2183        1271.00      5537.66
  998.83        2953.00           2186        1251.00      5450.44
  998.86        2953.25           2190        1286.00      5603.07
  998.89        2953.50           2193        1300.00      5664.13
  998.92        2953.75           2197        1291.00      5624.88
  998.96        2954.00           2200        1276.00      5559.46
  998.99        2954.25           2204        1334.00      5812.40
  999.02        2954.50           2208        1275.00      5555.10
  999.05        2954.75           2211        1348.00      5873.45
  999.08        2955.00           2215        1365.00      5947.58
  999.11        2955.25           2218        1323.00      5764.43
  999.14        2955.50           2222        1340.00      5838.56
  999.17        2955.75           2225        1349.00      5877.81
  999.20        2956.00           2229        1342.00      5847.28
  999.23        2956.25           2232        1308.00      5699.01
  999.26        2956.50           2236        1379.00      6008.64
  999.30        2956.75           2239        1336.00      5821.12
  999.33        2957.00           2243        1394.00      6074.05
  999.36        2957.25           2246        1382.00      6021.72
  999.39        2957.50           2250        1412.00      6152.55
  999.42        2957.75           2254        1391.00      6060.97
  999.45        2958.00           2257        1447.00      6305.19
  999.48        2958.25           2261        1506.00      6562.49
  999.51        2958.50           2264        1477.00      6436.02
  999.54        2958.75           2268        1516.00      6606.10
  999.57        2959.00           2271        1492.00      6501.44
  999.60        2959.25           2275        1476.00      6431.66
  999.64        2959.50           2278        1519.00      6619.19
  999.67        2959.75           2282        1554.00      6771.83
  999.70        2960.00           2285        1530.00      6667.16
  999.73        2960.25           2289        1573.00      6854.69
  999.76        2960.50           2293        1597.00      6959.36
  999.79        2960.75           2296        1635.00      7125.09
  999.82        2961.00           2300        1744.00      7600.48
  999.85        2961.25           2303        1891.00      8241.63
  999.88        2961.50           2307        4096.00     17862.20
  999.91        2961.75           2310       10254.00     44763.37
  999.94        2962.00           2314       24740.00    108240.20
  999.97        2962.25           2317       38059.00    166846.60
 1000.00        2962.50           2321       56738.00    249434.70
 1000.03        2962.75           2324       72017.00    317338.00
 1000.06        2963.00           2328       91213.00    403098.50
 1000.09        2963.25           2331      106062.00    469785.50
 1000.12        2963.50           2335      125683.00    558373.80
 1000.16        2963.75           2339      147102.00    655699.10
 1000.19        2964.00           2342      163603.00    731124.30
 1000.22        2964.25           2346      184193.00    825793.10
 1000.25        2964.50           2349      197546.00    887519.70
 1000.28        2964.75           2353      216227.00    974319.80
 1000.31        2965.00           2356      229891.00   1038140.00
 1000.34        2965.25           2360      249104.00   1128359.00
 1000.37        2965.50           2363      263719.00   1197366.00
 1000.40        2965.75           2367      282617.00   1287089.00
 1000.43        2966.00           2370      295446.00   1348319.00
 1000.46        2966.25           2374      312392.00   1429601.00
 1000.49        2966.50           2378      325827.00   1494371.00
 1000.52        2966.75           2381      330518.00   1517055.00
 1000.55        2967.00           2385      332289.00   1525629.00
 1000.58        2967.25           2388      332908.00   1528627.00
 1000.61        2967.50           2392      333288.00   1530467.00
 1000.64        2967.75           2395      332439.00   1526355.00
 1000.67        2968.00           2399      330135.00   1515202.00
 1000.71        2968.25           2402      322461.00   1478116.00
 1000.74        2968.50           2406      308088.00   1408913.00
 1000.77        2968.75           2409      296720.00   1354414.00
 1000.80        2969.00           2413      278449.00   1267252.00
 1000.83        2969.25           2417      259190.00   1175946.00
 1000.86        2969.50           2420      245544.00   1111599.00
 1000.89        2969.75           2424      227100.00   1025081.00
 1000.92        2970.00           2427      213151.00    959991.40
 1000.95        2970.25           2431      194646.00    874091.40
 1000.98        2970.50           2434      181551.00    813611.10
 1001.01        2970.75           2438      160198.00    715528.10
 1001.04        2971.00           2441      142731.00    635784.80
 1001.07        2971.25           2445      121432.00    539134.80
 1001.10        2971.50           2449      101199.00    447912.20
 1001.13        2971.75           2452       87832.00    387956.90
 1001.16        2972.00           2456       68768.00    302872.30
 1001.19        2972.25           2459       54968.00    241588.80
 1001.23        2972.50           2463       37049.00    162394.20
 1001.26        2972.75           2466       23075.00    100930.30
 1001.29        2973.00           2470        7855.00     34277.51
 1001.32        2973.25           2473        3336.00     14545.55
 1001.35        2973.50           2477        1851.00      8067.16
 1001.38        2973.75           2481        1674.00      7295.18
 1001.41        2974.00           2484        1654.00      7207.96
 1001.44        2974.25           2488        1574.00      6859.05
 1001.47        2974.50           2491        1586.00      6911.39
 1001.50        2974.75           2495        1568.00      6832.89
 1001.53        2975.00           2498        1517.00      6610.47
 1001.56        2975.25           2502        1530.00      6667.16
 1001.59        2975.50           2505        1532.00      6675.88
 1001.62        2975.75           2509        1490.00      6492.72
 1001.65        2976.00           2512        1467.00      6392.41
 1001.68        2976.25           2516        1446.00      6300.83
 1001.72        2976.50           2520        1454.00      6335.72
 1001.75        2976.75           2523        1431.00      6235.41
 1001.78        2977.00           2527        1410.00      6143.83
 1001.81        2977.25           2530        1423.00      6200.52
 1001.84        2977.50           2534        1366.00      5951.95
 1001.87        2977.75           2537        1354.00      5899.61
 1001.90        2978.00           2541        1342.00      5847.28
 1001.93        2978.25           2544        1329.00      5790.59
 1001.96        2978.50           2548        1326.00      5777.51
 1001.99        2978.75           2552        1333.00      5808.03
 1002.02        2979.00           2555        1285.00      5598.71
 1002.05        2979.25           2559        1283.00      5589.99
 1002.08        2979.50           2562        1285.00      5598.71
 1002.11        2979.75           2566        1307.00      5694.65
 1002.14        2980.00           2569        1273.00      5546.38
 1002.17        2980.25           2573        1260.00      5489.69
 1002.20        2980.50           2577        1245.00      5424.28
 1002.23        2980.75           2580        1231.00      5363.23
 1002.27        2981.00           2584        1266.00      5515.86
 1002.30        2981.25           2587        1273.00      5546.38
 1002.33        2981.50           2591        1241.00      5406.84
 1002.36        2981.75           2594        1223.00      5328.34
 1002.39        2982.00           2598        1213.00      5284.73
 1002.42        2982.25           2601        1196.00      5210.60
 1002.45        2982.50           2605        1190.00      5184.44
 1002.48        2982.75           2609        1222.00      5323.98
 1002.51        2983.00           2612        1165.00      5075.42
 1002.54        2983.25           2616        1201.00      5232.40
 1002.57        2983.50           2619        1250.00      5446.08
 1002.60        2983.75           2623        1172.00      5105.94
 1002.63        2984.00           2626        1180.00      5140.83
HS scan finished at 16:42:51
end
