************************************************************
  HS Scan of (1) Internal mercury lamp
************************************************************
Integration time is 0.2294 seconds per sample
dh211217Reading 51.44 .94 3.09pr1000
************************************************************
Dead Time -------------------------  3.4E-08 
Number of Cycles Used -------------  4 
Starting Wavelength (Angstroms) ---  2950 
Final Wavelength (Angstoms) -------  2984 
Wavelength Increment (Angstroms) --  .25 
Filter Wheel #1 Position ---------- (1) Ground quartz diffuser (ND=2.32)
Filter Wheel #2 Position ---------- (1) Neutral Density 0.494



************************************************************
HS scan start time = 05:13:15
Dark Count =  1 


Time (GMT)  Wavelength (Ang)  Step Number  Raw Counts  Counts/Second

  314.14        2950.00           2144          69.00       296.43
  314.34        2950.25           2147          78.00       335.66
  314.37        2950.50           2151          70.00       300.79
  314.40        2950.75           2155          77.00       331.30
  314.43        2951.00           2158          71.00       305.15
  314.46        2951.25           2162          74.00       318.22
  314.49        2951.50           2165          69.00       296.43
  314.52        2951.75           2169          65.00       278.99
  314.55        2952.00           2172          69.00       296.43
  314.58        2952.25           2176          70.00       300.79
  314.61        2952.50           2179          74.00       318.22
  314.64        2952.75           2183          77.00       331.30
  314.67        2953.00           2186          70.00       300.79
  314.70        2953.25           2190          70.00       300.79
  314.73        2953.50           2193          78.00       335.66
  314.77        2953.75           2197          74.00       318.22
  314.80        2954.00           2200          80.00       344.38
  314.83        2954.25           2204          78.00       335.66
  314.86        2954.50           2208          82.00       353.10
  314.89        2954.75           2211          74.00       318.22
  314.92        2955.00           2215          85.00       366.18
  314.95        2955.25           2218          78.00       335.66
  314.98        2955.50           2222          86.00       370.54
  315.01        2955.75           2225          79.00       340.02
  315.04        2956.00           2229          75.00       322.58
  315.07        2956.25           2232          81.00       348.74
  315.10        2956.50           2236          85.00       366.18
  315.13        2956.75           2239          82.00       353.10
  315.16        2957.00           2243          89.00       383.61
  315.19        2957.25           2246          86.00       370.54
  315.22        2957.50           2250          88.00       379.26
  315.25        2957.75           2254          92.00       396.69
  315.29        2958.00           2257          88.00       379.26
  315.32        2958.25           2261          93.00       401.05
  315.35        2958.50           2264          81.00       348.74
  315.38        2958.75           2268          91.00       392.33
  315.41        2959.00           2271          88.00       379.26
  315.44        2959.25           2275          84.00       361.82
  315.47        2959.50           2278          93.00       401.05
  315.50        2959.75           2282          96.00       414.13
  315.53        2960.00           2285          88.00       379.26
  315.56        2960.25           2289          96.00       414.13
  315.59        2960.50           2293         101.00       435.93
  315.62        2960.75           2296         113.00       488.24
  315.65        2961.00           2300         153.00       662.61
  315.68        2961.25           2303         368.00      1599.91
  315.71        2961.50           2307        1162.00      5061.90
  315.74        2961.75           2310        1968.00      8577.04
  315.77        2962.00           2314        3240.00     14126.23
  315.81        2962.25           2317        4333.00     18896.18
  315.84        2962.50           2321        5742.00     25047.48
  315.87        2962.75           2324        6712.00     29283.72
  315.90        2963.00           2328        8126.00     35461.21
  315.93        2963.25           2331        9369.00     40893.79
  315.96        2963.50           2335       10726.00     46826.89
  315.99        2963.75           2339       12136.00     52994.27
  316.02        2964.00           2342       13246.00     57851.26
  316.05        2964.25           2346       14758.00     64469.85
  316.08        2964.50           2349       15770.00     68901.43
  316.11        2964.75           2353       17214.00     75227.04
  316.14        2965.00           2356       18133.00     79254.25
  316.17        2965.25           2360       19511.00     85294.96
  316.20        2965.50           2363       20622.00     90167.02
  316.23        2965.75           2367       22020.00     96299.97
  316.26        2966.00           2370       22930.00    100293.50
  316.29        2966.25           2374       23876.00    104446.10
  316.33        2966.50           2378       24208.00    105903.80
  316.36        2966.75           2381       24207.00    105899.40
  316.39        2967.00           2385       24250.00    106088.20
  316.42        2967.25           2388       24337.00    106470.20
  316.45        2967.50           2392       24214.00    105930.10
  316.48        2967.75           2395       24023.00    105091.50
  316.51        2968.00           2399       22801.00     99727.30
  316.54        2968.25           2402       22101.00     96655.39
  316.57        2968.50           2406       20883.00     91311.82
  316.60        2968.75           2409       19860.00     86825.24
  316.63        2969.00           2413       18583.00     81226.63
  316.66        2969.25           2417       17004.00     74306.94
  316.69        2969.50           2420       16094.00     70320.50
  316.72        2969.75           2424       14802.00     64662.50
  316.75        2970.00           2427       13729.00     59965.21
  316.78        2970.25           2431       12265.00     53558.65
  316.81        2970.50           2434       11154.00     48698.71
  316.85        2970.75           2438        9707.00     42371.38
  316.88        2971.00           2441        8502.00     37104.32
  316.91        2971.25           2445        7120.00     31065.93
  316.94        2971.50           2449        5688.00     24811.68
  316.97        2971.75           2452        4658.00     20314.81
  317.00        2972.00           2456        3482.00     15182.20
  317.03        2972.25           2459        2473.00     10779.89
  317.06        2972.50           2463        1331.00      5798.88
  317.09        2972.75           2466         565.00      2458.79
  317.12        2973.00           2470         181.00       784.68
  317.15        2973.25           2473         125.00       540.55
  317.18        2973.50           2477         121.00       523.11
  317.21        2973.75           2481         152.00       658.25
  317.24        2974.00           2484         110.00       475.16
  317.27        2974.25           2488         117.00       505.68
  317.30        2974.50           2491          99.00       427.21
  317.33        2974.75           2495         101.00       435.93
  317.37        2975.00           2498          90.00       387.97
  317.40        2975.25           2502          98.00       422.85
  317.43        2975.50           2505          94.00       405.41
  317.46        2975.75           2509          98.00       422.85
  317.49        2976.00           2512          88.00       379.26
  317.52        2976.25           2516          88.00       379.26
  317.55        2976.50           2520          85.00       366.18
  317.58        2976.75           2523          92.00       396.69
  317.61        2977.00           2527          85.00       366.18
  317.64        2977.25           2530          86.00       370.54
  317.67        2977.50           2534          79.00       340.02
  317.70        2977.75           2537          72.00       309.51
  317.73        2978.00           2541          88.00       379.26
  317.76        2978.25           2544          85.00       366.18
  317.79        2978.50           2548          88.00       379.26
  317.82        2978.75           2552          80.00       344.38
  317.85        2979.00           2555          78.00       335.66
  317.88        2979.25           2559          79.00       340.02
  317.92        2979.50           2562          73.00       313.87
  317.95        2979.75           2566          77.00       331.30
  317.98        2980.00           2569          81.00       348.74
  318.01        2980.25           2573          86.00       370.54
  318.04        2980.50           2577          74.00       318.22
  318.07        2980.75           2580          76.00       326.94
  318.10        2981.00           2584          75.00       322.58
  318.13        2981.25           2587          83.00       357.46
  318.16        2981.50           2591          75.00       322.58
  318.19        2981.75           2594          72.00       309.51
  318.22        2982.00           2598          75.00       322.58
  318.25        2982.25           2601          77.00       331.30
  318.28        2982.50           2605          78.00       335.66
  318.31        2982.75           2609          74.00       318.22
  318.34        2983.00           2612          74.00       318.22
  318.37        2983.25           2616          66.00       283.35
  318.40        2983.50           2619          78.00       335.66
  318.44        2983.75           2623          70.00       300.79
  318.47        2984.00           2626          68.00       292.07
HS scan finished at 05:18:41
end
************************************************************
  HS Scan of (1) Internal mercury lamp
************************************************************
Integration time is 0.2294 seconds per sample
dh211217Reading 51.44 .94 3.23pr1000
************************************************************
Dead Time -------------------------  3.4E-08 
Number of Cycles Used -------------  4 
Starting Wavelength (Angstroms) ---  2950 
Final Wavelength (Angstoms) -------  2984 
Wavelength Increment (Angstroms) --  .25 
Filter Wheel #1 Position ---------- (1) Ground quartz diffuser (ND=2.32)
Filter Wheel #2 Position ---------- (1) Neutral Density 0.494



************************************************************
HS scan start time = 16:37:24
Dark Count =  1.6 


Time (GMT)  Wavelength (Ang)  Step Number  Raw Counts  Counts/Second

  998.30        2950.00           2144          80.00       341.77
  998.49        2950.25           2147          85.00       363.56
  998.52        2950.50           2151          81.00       346.12
  998.56        2950.75           2155          82.00       350.48
  998.59        2951.00           2158          77.00       328.69
  998.62        2951.25           2162          85.00       363.56
  998.65        2951.50           2165          77.00       328.69
  998.68        2951.75           2169          89.00       381.00
  998.71        2952.00           2172          76.00       324.33
  998.74        2952.25           2176          79.00       337.41
  998.77        2952.50           2179          79.00       337.41
  998.80        2952.75           2183          85.00       363.56
  998.83        2953.00           2186          90.00       385.36
  998.86        2953.25           2190          77.00       328.69
  998.89        2953.50           2193          86.00       367.92
  998.92        2953.75           2197          82.00       350.48
  998.95        2954.00           2200          86.00       367.92
  998.98        2954.25           2204          85.00       363.56
  999.01        2954.50           2208          78.00       333.05
  999.04        2954.75           2211         107.00       459.47
  999.07        2955.00           2215          89.00       381.00
  999.11        2955.25           2218          87.00       372.28
  999.14        2955.50           2222         107.00       459.47
  999.17        2955.75           2225          89.00       381.00
  999.20        2956.00           2229          89.00       381.00
  999.23        2956.25           2232         104.00       446.39
  999.26        2956.50           2236          85.00       363.56
  999.29        2956.75           2239          89.00       381.00
  999.32        2957.00           2243          85.00       363.56
  999.35        2957.25           2246          93.00       398.44
  999.38        2957.50           2250          92.00       394.08
  999.41        2957.75           2254          97.00       415.87
  999.44        2958.00           2257         100.00       428.95
  999.47        2958.25           2261          92.00       394.08
  999.50        2958.50           2264          98.00       420.23
  999.53        2958.75           2268         114.00       489.98
  999.56        2959.00           2271         104.00       446.39
  999.59        2959.25           2275         101.00       433.31
  999.63        2959.50           2278         107.00       459.47
  999.66        2959.75           2282         102.00       437.67
  999.69        2960.00           2285         102.00       437.67
  999.72        2960.25           2289         126.00       542.29
  999.75        2960.50           2293         123.00       529.22
  999.78        2960.75           2296         130.00       559.73
  999.81        2961.00           2300         129.00       555.37
  999.84        2961.25           2303         249.00      1078.51
  999.87        2961.50           2307         797.00      3467.71
  999.90        2961.75           2310        1579.00      6877.81
  999.93        2962.00           2314        2997.00     13063.34
  999.96        2962.25           2317        4119.00     17959.52
  999.99        2962.50           2321        5578.00     24328.75
 1000.02        2962.75           2324        6605.00     28813.74
 1000.05        2963.00           2328        8507.00     37123.55
 1000.08        2963.25           2331        9801.00     42779.71
 1000.11        2963.50           2335       11574.00     50533.14
 1000.15        2963.75           2339       13269.00     57949.29
 1000.18        2964.00           2342       14346.00     62663.45
 1000.21        2964.25           2346       15969.00     69770.38
 1000.24        2964.50           2349       17350.00     75820.31
 1000.27        2964.75           2353       18910.00     82657.43
 1000.30        2965.00           2356       20236.00     88471.49
 1000.33        2965.25           2360       21678.00     94796.77
 1000.36        2965.50           2363       22978.00    100501.50
 1000.39        2965.75           2367       24930.00    109071.60
 1000.42        2966.00           2370       25696.00    112436.00
 1000.45        2966.25           2374       27200.00    119044.10
 1000.48        2966.50           2378       27776.00    121575.60
 1000.51        2966.75           2381       28101.00    123004.20
 1000.54        2967.00           2385       28173.00    123320.70
 1000.57        2967.25           2388       28105.00    123021.80
 1000.60        2967.50           2392       28097.00    122986.60
 1000.64        2967.75           2395       27894.00    122094.30
 1000.67        2968.00           2399       27029.00    118292.60
 1000.70        2968.25           2402       26154.00    114448.00
 1000.73        2968.50           2406       24493.00    107152.50
 1000.76        2968.75           2409       23235.00    101629.60
 1000.79        2969.00           2413       21742.00     95077.56
 1000.82        2969.25           2417       20018.00     87515.48
 1000.85        2969.50           2420       18802.00     82184.00
 1000.88        2969.75           2424       17286.00     75539.90
 1000.91        2970.00           2427       15846.00     69231.65
 1000.94        2970.25           2431       14268.00     62321.98
 1000.97        2970.50           2434       13051.00     56995.27
 1001.00        2970.75           2438       11391.00     49732.67
 1001.03        2971.00           2441        9956.00     43457.37
 1001.06        2971.25           2445        8392.00     36620.99
 1001.09        2971.50           2449        6712.00     29281.10
 1001.12        2971.75           2452        5660.00     24686.80
 1001.16        2972.00           2456        4046.00     17640.92
 1001.19        2972.25           2459        2814.00     12264.92
 1001.22        2972.50           2463        1452.00      6323.94
 1001.25        2972.75           2466         736.00      3201.74
 1001.28        2973.00           2470         236.00      1021.83
 1001.31        2973.25           2473         150.00       646.92
 1001.34        2973.50           2477         148.00       638.20
 1001.37        2973.75           2481         129.00       555.37
 1001.40        2974.00           2484         123.00       529.22
 1001.43        2974.25           2488         132.00       568.45
 1001.46        2974.50           2491         110.00       472.54
 1001.49        2974.75           2495         105.00       450.75
 1001.52        2975.00           2498         124.00       533.58
 1001.55        2975.25           2502         106.00       455.11
 1001.58        2975.50           2505         119.00       511.78
 1001.61        2975.75           2509         115.00       494.34
 1001.64        2976.00           2512         139.00       598.97
 1001.67        2976.25           2516          94.00       402.80
 1001.71        2976.50           2520         113.00       485.62
 1001.74        2976.75           2523         100.00       428.95
 1001.77        2977.00           2527          92.00       394.08
 1001.80        2977.25           2530          98.00       420.23
 1001.83        2977.50           2534          91.00       389.72
 1001.86        2977.75           2537          95.00       407.15
 1001.89        2978.00           2541          94.00       402.80
 1001.92        2978.25           2544          80.00       341.77
 1001.95        2978.50           2548          77.00       328.69
 1001.98        2978.75           2552          88.00       376.64
 1002.01        2979.00           2555          82.00       350.48
 1002.04        2979.25           2559          94.00       402.80
 1002.07        2979.50           2562          84.00       359.20
 1002.10        2979.75           2566          86.00       367.92
 1002.13        2980.00           2569          87.00       372.28
 1002.16        2980.25           2573          88.00       376.64
 1002.19        2980.50           2577          85.00       363.56
 1002.23        2980.75           2580          84.00       359.20
 1002.26        2981.00           2584          91.00       389.72
 1002.29        2981.25           2587          86.00       367.92
 1002.32        2981.50           2591          88.00       376.64
 1002.35        2981.75           2594          84.00       359.20
 1002.38        2982.00           2598          82.00       350.48
 1002.41        2982.25           2601          82.00       350.48
 1002.44        2982.50           2605          82.00       350.48
 1002.47        2982.75           2609          75.00       319.97
 1002.50        2983.00           2612          87.00       372.28
 1002.53        2983.25           2616          85.00       363.56
 1002.56        2983.50           2619          79.00       337.41
 1002.59        2983.75           2623          86.00       367.92
 1002.62        2984.00           2626          72.00       306.89
HS scan finished at 16:42:51
end
