************************************************************
  HS Scan of (1) Internal mercury lamp
************************************************************
Integration time is 0.2294 seconds per sample
dh251217Reading 51.44 .94 2.92pr1000
************************************************************
Dead Time -------------------------  3.4E-08 
Number of Cycles Used -------------  4 
Starting Wavelength (Angstroms) ---  2950 
Final Wavelength (Angstoms) -------  2984 
Wavelength Increment (Angstroms) --  .25 
Filter Wheel #1 Position ---------- (1) Ground quartz diffuser (ND=2.32)
Filter Wheel #2 Position ---------- (1) Neutral Density 0.494



************************************************************
HS scan start time = 05:14:57
Dark Count =  .6 


Time (GMT)  Wavelength (Ang)  Step Number  Raw Counts  Counts/Second

  315.85        2950.00           2144          86.00       372.28
  316.04        2950.25           2147          83.00       359.20
  316.07        2950.50           2151          84.00       363.56
  316.10        2950.75           2155          85.00       367.92
  316.13        2951.00           2158          85.00       367.92
  316.16        2951.25           2162          85.00       367.92
  316.19        2951.50           2165          83.00       359.20
  316.22        2951.75           2169          76.00       328.69
  316.25        2952.00           2172          84.00       363.56
  316.29        2952.25           2176         114.00       494.34
  316.32        2952.50           2179          83.00       359.20
  316.35        2952.75           2183          85.00       367.92
  316.38        2953.00           2186          84.00       363.56
  316.41        2953.25           2190          91.00       394.08
  316.44        2953.50           2193          83.00       359.20
  316.47        2953.75           2197          85.00       367.92
  316.50        2954.00           2200          83.00       359.20
  316.53        2954.25           2204          89.00       385.36
  316.56        2954.50           2208         115.00       498.70
  316.59        2954.75           2211          88.00       381.00
  316.62        2955.00           2215          95.00       411.51
  316.65        2955.25           2218          85.00       367.92
  316.68        2955.50           2222         101.00       437.67
  316.71        2955.75           2225          95.00       411.51
  316.74        2956.00           2229          96.00       415.87
  316.77        2956.25           2232          92.00       398.44
  316.81        2956.50           2236          94.00       407.15
  316.84        2956.75           2239          88.00       381.00
  316.87        2957.00           2243          96.00       415.87
  316.90        2957.25           2246         101.00       437.67
  316.93        2957.50           2250          97.00       420.23
  316.96        2957.75           2254         103.00       446.39
  316.99        2958.00           2257         123.00       533.58
  317.02        2958.25           2261         102.00       442.03
  317.05        2958.50           2264         133.00       577.17
  317.08        2958.75           2268          99.00       428.95
  317.11        2959.00           2271         101.00       437.67
  317.14        2959.25           2275         107.00       463.83
  317.17        2959.50           2278         104.00       450.75
  317.20        2959.75           2282         114.00       494.34
  317.23        2960.00           2285         106.00       459.47
  317.26        2960.25           2289         114.00       494.34
  317.29        2960.50           2293         136.00       590.25
  317.33        2960.75           2296         127.00       551.01
  317.36        2961.00           2300         162.00       703.59
  317.39        2961.25           2303         352.00      1531.90
  317.42        2961.50           2307        1285.00      5600.02
  317.45        2961.75           2310        2327.00     10144.74
  317.48        2962.00           2314        3703.00     16148.36
  317.51        2962.25           2317        4769.00     20801.11
  317.54        2962.50           2321        6505.00     28381.34
  317.57        2962.75           2324        7809.00     34077.83
  317.60        2963.00           2328        9498.00     41459.45
  317.63        2963.25           2331       10644.00     46470.06
  317.66        2963.50           2335       12360.00     53976.04
  317.69        2963.75           2339       13821.00     60369.65
  317.72        2964.00           2342       15213.00     66463.90
  317.75        2964.25           2346       16872.00     73730.37
  317.78        2964.50           2349       17934.00     78383.86
  317.81        2964.75           2353       19748.00     86335.88
  317.85        2965.00           2356       21146.00     92467.24
  317.88        2965.25           2360       22676.00     99180.44
  317.91        2965.50           2363       23936.00    104711.30
  317.94        2965.75           2367       25504.00    111597.00
  317.97        2966.00           2370       26498.00    115963.70
  318.00        2966.25           2374       27860.00    121949.20
  318.03        2966.50           2378       28297.00    123870.20
  318.06        2966.75           2381       28733.00    125787.00
  318.09        2967.00           2385       28785.00    126015.70
  318.12        2967.25           2388       28907.00    126552.10
  318.15        2967.50           2392       28573.00    125083.60
  318.18        2967.75           2395       28873.00    126402.60
  318.21        2968.00           2399       27992.00    122529.50
  318.24        2968.25           2402       26634.00    116561.30
  318.27        2968.50           2406       25167.00    110116.80
  318.30        2968.75           2409       23851.00    104338.10
  318.33        2969.00           2413       22211.00     97139.83
  318.37        2969.25           2417       20571.00     89945.09
  318.40        2969.50           2420       19301.00     84375.98
  318.43        2969.75           2424       17652.00     77148.05
  318.46        2970.00           2427       16607.00     72569.41
  318.49        2970.25           2431       14936.00     65250.97
  318.52        2970.50           2434       13714.00     59901.31
  318.55        2970.75           2438       11926.00     52077.31
  318.58        2971.00           2441       10622.00     46373.85
  318.61        2971.25           2445        8831.00     38543.94
  318.64        2971.50           2449        6968.00     30403.69
  318.67        2971.75           2452        5695.00     24844.00
  318.70        2972.00           2456        4019.00     17527.44
  318.73        2972.25           2459        2938.00     12810.29
  318.76        2972.50           2463        1509.00      6576.89
  318.79        2972.75           2466         690.00      3005.54
  318.82        2973.00           2470         212.00       921.56
  318.85        2973.25           2473         157.00       681.79
  318.89        2973.50           2477         153.00       664.36
  318.92        2973.75           2481         126.00       546.65
  318.95        2974.00           2484         126.00       546.65
  318.98        2974.25           2488         115.00       498.70
  319.01        2974.50           2491         128.00       555.37
  319.04        2974.75           2495         111.00       481.26
  319.07        2975.00           2498         112.00       485.62
  319.10        2975.25           2502         123.00       533.58
  319.13        2975.50           2505         147.00       638.20
  319.16        2975.75           2509         139.00       603.33
  319.19        2976.00           2512         108.00       468.19
  319.22        2976.25           2516         139.00       603.33
  319.25        2976.50           2520          93.00       402.80
  319.28        2976.75           2523         105.00       455.11
  319.31        2977.00           2527         115.00       498.70
  319.34        2977.25           2530          93.00       402.80
  319.37        2977.50           2534          97.00       420.23
  319.40        2977.75           2537         141.00       612.04
  319.44        2978.00           2541          99.00       428.95
  319.47        2978.25           2544          92.00       398.44
  319.50        2978.50           2548          92.00       398.44
  319.53        2978.75           2552          93.00       402.80
  319.56        2979.00           2555         111.00       481.26
  319.59        2979.25           2559          91.00       394.08
  319.62        2979.50           2562          86.00       372.28
  319.65        2979.75           2566          97.00       420.23
  319.68        2980.00           2569         112.00       485.62
  319.71        2980.25           2573          91.00       394.08
  319.74        2980.50           2577          93.00       402.80
  319.77        2980.75           2580          98.00       424.59
  319.80        2981.00           2584          86.00       372.28
  319.83        2981.25           2587          91.00       394.08
  319.86        2981.50           2591          91.00       394.08
  319.89        2981.75           2594          87.00       376.64
  319.92        2982.00           2598          81.00       350.48
  319.96        2982.25           2601          86.00       372.28
  319.99        2982.50           2605          82.00       354.84
  320.02        2982.75           2609          81.00       350.48
  320.05        2983.00           2612          86.00       372.28
  320.08        2983.25           2616         104.00       450.75
  320.11        2983.50           2619          88.00       381.00
  320.14        2983.75           2623          88.00       381.00
  320.17        2984.00           2626          79.00       341.77
HS scan finished at 05:20:23
end
************************************************************
  HS Scan of (1) Internal mercury lamp
************************************************************
Integration time is 0.2294 seconds per sample
dh251217Reading 51.44 .94 3.03pr1000
************************************************************
Dead Time -------------------------  3.4E-08 
Number of Cycles Used -------------  4 
Starting Wavelength (Angstroms) ---  2950 
Final Wavelength (Angstoms) -------  2984 
Wavelength Increment (Angstroms) --  .25 
Filter Wheel #1 Position ---------- (1) Ground quartz diffuser (ND=2.32)
Filter Wheel #2 Position ---------- (1) Neutral Density 0.494



************************************************************
HS scan start time = 17:07:27
Dark Count =  1 


Time (GMT)  Wavelength (Ang)  Step Number  Raw Counts  Counts/Second

 1028.35        2950.00           2144          92.00       396.69
 1028.54        2950.25           2147          83.00       357.46
 1028.57        2950.50           2151          85.00       366.18
 1028.60        2950.75           2155          82.00       353.10
 1028.63        2951.00           2158          91.00       392.33
 1028.67        2951.25           2162          86.00       370.54
 1028.70        2951.50           2165          87.00       374.90
 1028.73        2951.75           2169          86.00       370.54
 1028.76        2952.00           2172          85.00       366.18
 1028.79        2952.25           2176          90.00       387.97
 1028.82        2952.50           2179          93.00       401.05
 1028.85        2952.75           2183          90.00       387.97
 1028.88        2953.00           2186          82.00       353.10
 1028.91        2953.25           2190          91.00       392.33
 1028.94        2953.50           2193          91.00       392.33
 1028.97        2953.75           2197          86.00       370.54
 1029.00        2954.00           2200         110.00       475.16
 1029.03        2954.25           2204          93.00       401.05
 1029.06        2954.50           2208          89.00       383.61
 1029.09        2954.75           2211          90.00       387.97
 1029.12        2955.00           2215          87.00       374.90
 1029.15        2955.25           2218          88.00       379.26
 1029.19        2955.50           2222          95.00       409.77
 1029.22        2955.75           2225          86.00       370.54
 1029.25        2956.00           2229          91.00       392.33
 1029.28        2956.25           2232          86.00       370.54
 1029.31        2956.50           2236          94.00       405.41
 1029.34        2956.75           2239          95.00       409.77
 1029.37        2957.00           2243          95.00       409.77
 1029.40        2957.25           2246          95.00       409.77
 1029.43        2957.50           2250         101.00       435.93
 1029.46        2957.75           2254         105.00       453.36
 1029.49        2958.00           2257          95.00       409.77
 1029.52        2958.25           2261          93.00       401.05
 1029.55        2958.50           2264         103.00       444.64
 1029.58        2958.75           2268          95.00       409.77
 1029.61        2959.00           2271         107.00       462.08
 1029.64        2959.25           2275         146.00       632.10
 1029.67        2959.50           2278         114.00       492.60
 1029.71        2959.75           2282         108.00       466.44
 1029.74        2960.00           2285         138.00       597.22
 1029.77        2960.25           2289         112.00       483.88
 1029.80        2960.50           2293         126.00       544.91
 1029.83        2960.75           2296         131.00       566.71
 1029.86        2961.00           2300         155.00       671.33
 1029.89        2961.25           2303         325.00      1412.45
 1029.92        2961.50           2307        1042.00      4538.63
 1029.95        2961.75           2310        2039.00      8886.73
 1029.98        2962.00           2314        3412.00     14876.75
 1030.01        2962.25           2317        4381.00     19105.69
 1030.04        2962.50           2321        5968.00     26034.37
 1030.07        2962.75           2324        7041.00     30720.83
 1030.10        2963.00           2328        8674.00     37856.02
 1030.13        2963.25           2331        9936.00     43372.55
 1030.16        2963.50           2335       11183.00     48825.54
 1030.19        2963.75           2339       12737.00     55623.85
 1030.23        2964.00           2342       13725.00     59947.69
 1030.26        2964.25           2346       15609.00     68196.30
 1030.29        2964.50           2349       16508.00     72133.98
 1030.32        2964.75           2353       17975.00     78561.80
 1030.35        2965.00           2356       19227.00     84049.78
 1030.38        2965.25           2360       20640.00     90245.97
 1030.41        2965.50           2363       21824.00     95439.98
 1030.44        2965.75           2367       22857.00     99973.06
 1030.47        2966.00           2370       23642.00    103418.80
 1030.50        2966.25           2374       25414.00    111199.90
 1030.53        2966.50           2378       26245.00    114850.40
 1030.56        2966.75           2381       27533.00    120510.20
 1030.59        2967.00           2385       27863.00    121960.70
 1030.62        2967.25           2388       27713.00    121301.30
 1030.65        2967.50           2392       27571.00    120677.20
 1030.68        2967.75           2395       27175.00    118936.80
 1030.71        2968.00           2399       26140.00    114389.10
 1030.75        2968.25           2402       24793.00    108472.60
 1030.78        2968.50           2406       23688.00    103620.70
 1030.81        2968.75           2409       22622.00     98941.71
 1030.84        2969.00           2413       21358.00     93395.49
 1030.87        2969.25           2417       19672.00     86000.88
 1030.90        2969.50           2420       18630.00     81432.66
 1030.93        2969.75           2424       16947.00     74057.21
 1030.96        2970.00           2427       15650.00     68375.86
 1030.99        2970.25           2431       14377.00     62801.79
 1031.02        2970.50           2434       12946.00     56538.40
 1031.05        2970.75           2438       11282.00     49258.55
 1031.08        2971.00           2441       10128.00     44212.01
 1031.11        2971.25           2445        8551.00     37318.46
 1031.14        2971.50           2449        6687.00     29174.52
 1031.17        2971.75           2452        5389.00     23506.14
 1031.20        2972.00           2456        3699.00     16129.16
 1031.23        2972.25           2459        2714.00     11831.26
 1031.27        2972.50           2463        1367.00      5955.87
 1031.30        2972.75           2466         697.00      3034.31
 1031.33        2973.00           2470         216.00       937.26
 1031.36        2973.25           2473         158.00       684.41
 1031.39        2973.50           2477         150.00       649.53
 1031.42        2973.75           2481         129.00       557.99
 1031.45        2974.00           2484         130.00       562.35
 1031.48        2974.25           2488         116.00       501.32
 1031.51        2974.50           2491         108.00       466.44
 1031.54        2974.75           2495         128.00       553.63
 1031.57        2975.00           2498         110.00       475.16
 1031.60        2975.25           2502         103.00       444.64
 1031.63        2975.50           2505         122.00       527.47
 1031.66        2975.75           2509          94.00       405.41
 1031.69        2976.00           2512         101.00       435.93
 1031.72        2976.25           2516         106.00       457.72
 1031.75        2976.50           2520          91.00       392.33
 1031.78        2976.75           2523         108.00       466.44
 1031.82        2977.00           2527         102.00       440.29
 1031.85        2977.25           2530         120.00       518.75
 1031.88        2977.50           2534          98.00       422.85
 1031.91        2977.75           2537         105.00       453.36
 1031.94        2978.00           2541          89.00       383.61
 1031.97        2978.25           2544          96.00       414.13
 1032.00        2978.50           2548          95.00       409.77
 1032.03        2978.75           2552          89.00       383.61
 1032.06        2979.00           2555          93.00       401.05
 1032.09        2979.25           2559          83.00       357.46
 1032.12        2979.50           2562          90.00       387.97
 1032.15        2979.75           2566          92.00       396.69
 1032.18        2980.00           2569         100.00       431.57
 1032.21        2980.25           2573          79.00       340.02
 1032.24        2980.50           2577          94.00       405.41
 1032.27        2980.75           2580         110.00       475.16
 1032.30        2981.00           2584          83.00       357.46
 1032.34        2981.25           2587          92.00       396.69
 1032.37        2981.50           2591          86.00       370.54
 1032.40        2981.75           2594          82.00       353.10
 1032.43        2982.00           2598          79.00       340.02
 1032.46        2982.25           2601          88.00       379.26
 1032.49        2982.50           2605          87.00       374.90
 1032.52        2982.75           2609          82.00       353.10
 1032.55        2983.00           2612          82.00       353.10
 1032.58        2983.25           2616          80.00       344.38
 1032.61        2983.50           2619          81.00       348.74
 1032.64        2983.75           2623          81.00       348.74
 1032.68        2984.00           2626          85.00       366.18
HS scan finished at 17:12:54
end
