************************************************************
  HS Scan of (1) Internal mercury lamp
************************************************************
Integration time is 0.2294 seconds per sample
dh181217Reading 51.44 .94 2.5pr1000
************************************************************
Dead Time -------------------------  3.4E-08 
Number of Cycles Used -------------  4 
Starting Wavelength (Angstroms) ---  2950 
Final Wavelength (Angstoms) -------  2984 
Wavelength Increment (Angstroms) --  .25 
Filter Wheel #1 Position ---------- (1) Ground quartz diffuser (ND=2.32)
Filter Wheel #2 Position ---------- (1) Neutral Density 0.494



************************************************************
HS scan start time = 05:14:29
Dark Count =  .1 


Time (GMT)  Wavelength (Ang)  Step Number  Raw Counts  Counts/Second

  315.38        2950.00           2144          88.00       383.18
  315.58        2950.25           2147          89.00       387.54
  315.61        2950.50           2151          86.00       374.46
  315.64        2950.75           2155          88.00       383.18
  315.67        2951.00           2158          92.00       400.62
  315.70        2951.25           2162          92.00       400.62
  315.73        2951.50           2165         103.00       448.57
  315.76        2951.75           2169          85.00       370.10
  315.79        2952.00           2172         108.00       470.37
  315.82        2952.25           2176          87.00       378.82
  315.85        2952.50           2179          90.00       391.90
  315.88        2952.75           2183          95.00       413.69
  315.91        2953.00           2186          93.00       404.98
  315.94        2953.25           2190          95.00       413.69
  315.97        2953.50           2193          93.00       404.98
  316.00        2953.75           2197          87.00       378.82
  316.03        2954.00           2200          84.00       365.74
  316.07        2954.25           2204          94.00       409.33
  316.10        2954.50           2208          85.00       370.10
  316.13        2954.75           2211          95.00       413.69
  316.16        2955.00           2215          83.00       361.38
  316.19        2955.25           2218          89.00       387.54
  316.22        2955.50           2222          89.00       387.54
  316.25        2955.75           2225          98.00       426.77
  316.28        2956.00           2229          85.00       370.10
  316.31        2956.25           2232          88.00       383.18
  316.34        2956.50           2236          81.00       352.66
  316.37        2956.75           2239          77.00       335.23
  316.40        2957.00           2243          95.00       413.69
  316.43        2957.25           2246          92.00       400.62
  316.46        2957.50           2250          99.00       431.13
  316.49        2957.75           2254          94.00       409.33
  316.52        2958.00           2257          90.00       391.90
  316.55        2958.25           2261          94.00       409.33
  316.59        2958.50           2264          93.00       404.98
  316.62        2958.75           2268          93.00       404.98
  316.65        2959.00           2271         101.00       439.85
  316.68        2959.25           2275         115.00       500.88
  316.71        2959.50           2278         100.00       435.49
  316.74        2959.75           2282         123.00       535.76
  316.77        2960.00           2285          95.00       413.69
  316.80        2960.25           2289         126.00       548.83
  316.83        2960.50           2293         114.00       496.52
  316.86        2960.75           2296         151.00       657.82
  316.89        2961.00           2300         144.00       627.30
  316.92        2961.25           2303         277.00      1207.11
  316.95        2961.50           2307         905.00      3945.17
  316.98        2961.75           2310        1664.00      7255.06
  317.01        2962.00           2314        2812.00     12262.74
  317.04        2962.25           2317        3789.00     16525.85
  317.07        2962.50           2321        4971.00     21685.12
  317.11        2962.75           2324        5792.00     25269.74
  317.14        2963.00           2328        7142.00     31165.96
  317.17        2963.25           2331        8149.00     35565.65
  317.20        2963.50           2335        9411.00     41081.32
  317.23        2963.75           2339       10771.00     47027.63
  317.26        2964.00           2342       11538.00     50382.23
  317.29        2964.25           2346       12755.00     55706.55
  317.32        2964.50           2349       13689.00     59794.07
  317.35        2964.75           2353       15173.00     66290.93
  317.38        2965.00           2356       16039.00     70083.55
  317.41        2965.25           2360       17287.00     75550.85
  317.44        2965.50           2363       17931.00     78372.91
  317.47        2965.75           2367       19299.00     84369.40
  317.50        2966.00           2370       20262.00     88592.09
  317.53        2966.25           2374       21238.00     92873.01
  317.56        2966.50           2378       21856.00     95584.33
  317.59        2966.75           2381       22039.00     96387.29
  317.63        2967.00           2385       22586.00     98787.66
  317.66        2967.25           2388       22629.00     98976.38
  317.69        2967.50           2392       23307.00    101952.20
  317.72        2967.75           2395       23063.00    100881.20
  317.75        2968.00           2399       22684.00     99217.76
  317.78        2968.25           2402       21903.00     95790.55
  317.81        2968.50           2406       20609.00     90113.96
  317.84        2968.75           2409       19379.00     84720.14
  317.87        2969.00           2413       18211.00     79600.06
  317.90        2969.25           2417       17010.00     74337.18
  317.93        2969.50           2420       15927.00     69592.99
  317.96        2969.75           2424       14355.00     62709.42
  317.99        2970.00           2427       13072.00     57093.73
  318.02        2970.25           2431       11729.00     51217.71
  318.05        2970.50           2434       10765.00     47001.39
  318.08        2970.75           2438        9479.00     41378.58
  318.12        2971.00           2441        8498.00     37090.77
  318.15        2971.25           2445        7077.00     30882.02
  318.18        2971.50           2449        5599.00     24426.99
  318.21        2971.75           2452        4537.00     19790.56
  318.24        2972.00           2456        3276.00     14287.24
  318.27        2972.25           2459        2373.00     10347.58
  318.30        2972.50           2463        1267.00      5523.71
  318.33        2972.75           2466         634.00      2763.56
  318.36        2973.00           2470         219.00       954.26
  318.39        2973.25           2473         148.00       644.74
  318.42        2973.50           2477         126.00       548.83
  318.45        2973.75           2481         118.00       513.96
  318.48        2974.00           2484         134.00       583.71
  318.51        2974.25           2488         125.00       544.47
  318.54        2974.50           2491         108.00       470.37
  318.57        2974.75           2495         127.00       553.19
  318.60        2975.00           2498         127.00       553.19
  318.64        2975.25           2502         106.00       461.65
  318.67        2975.50           2505         121.00       527.04
  318.70        2975.75           2509         119.00       518.32
  318.73        2976.00           2512         114.00       496.52
  318.76        2976.25           2516          93.00       404.98
  318.79        2976.50           2520         103.00       448.57
  318.82        2976.75           2523         117.00       509.60
  318.85        2977.00           2527          95.00       413.69
  318.88        2977.25           2530          99.00       431.13
  318.91        2977.50           2534          90.00       391.90
  318.94        2977.75           2537          91.00       396.26
  318.97        2978.00           2541         104.00       452.93
  319.00        2978.25           2544         103.00       448.57
  319.03        2978.50           2548          90.00       391.90
  319.06        2978.75           2552          93.00       404.98
  319.09        2979.00           2555          89.00       387.54
  319.12        2979.25           2559          92.00       400.62
  319.15        2979.50           2562          92.00       400.62
  319.19        2979.75           2566         104.00       452.93
  319.22        2980.00           2569          90.00       391.90
  319.25        2980.25           2573          85.00       370.10
  319.28        2980.50           2577          85.00       370.10
  319.31        2980.75           2580          80.00       348.30
  319.34        2981.00           2584          88.00       383.18
  319.37        2981.25           2587          92.00       400.62
  319.40        2981.50           2591          84.00       365.74
  319.43        2981.75           2594          91.00       396.26
  319.46        2982.00           2598          90.00       391.90
  319.49        2982.25           2601          81.00       352.66
  319.52        2982.50           2605          83.00       361.38
  319.55        2982.75           2609          77.00       335.23
  319.58        2983.00           2612          88.00       383.18
  319.61        2983.25           2616          84.00       365.74
  319.64        2983.50           2619          80.00       348.30
  319.67        2983.75           2623         100.00       435.49
  319.71        2984.00           2626          88.00       383.18
HS scan finished at 05:19:56
end
************************************************************
  HS Scan of (1) Internal mercury lamp
************************************************************
Integration time is 0.2294 seconds per sample
dh181217Reading 51.44 .94 2.84pr1000
************************************************************
Dead Time -------------------------  3.4E-08 
Number of Cycles Used -------------  4 
Starting Wavelength (Angstroms) ---  2950 
Final Wavelength (Angstoms) -------  2984 
Wavelength Increment (Angstroms) --  .25 
Filter Wheel #1 Position ---------- (1) Ground quartz diffuser (ND=2.32)
Filter Wheel #2 Position ---------- (1) Neutral Density 0.494



************************************************************
HS scan start time = 16:37:24
Dark Count =  .4 


Time (GMT)  Wavelength (Ang)  Step Number  Raw Counts  Counts/Second

  998.30        2950.00           2144          85.00       368.79
  998.49        2950.25           2147          80.00       347.00
  998.52        2950.50           2151          84.00       364.43
  998.55        2950.75           2155          85.00       368.79
  998.58        2951.00           2158          83.00       360.07
  998.61        2951.25           2162          86.00       373.15
  998.64        2951.50           2165          87.00       377.51
  998.67        2951.75           2169         104.00       451.62
  998.70        2952.00           2172          82.00       355.71
  998.73        2952.25           2176          87.00       377.51
  998.77        2952.50           2179          85.00       368.79
  998.80        2952.75           2183          81.00       351.36
  998.83        2953.00           2186          84.00       364.43
  998.86        2953.25           2190          91.00       394.95
  998.89        2953.50           2193          99.00       429.82
  998.92        2953.75           2197          79.00       342.64
  998.95        2954.00           2200          85.00       368.79
  998.98        2954.25           2204          82.00       355.71
  999.01        2954.50           2208          84.00       364.43
  999.04        2954.75           2211          89.00       386.23
  999.07        2955.00           2215          91.00       394.95
  999.10        2955.25           2218          77.00       333.92
  999.13        2955.50           2222          80.00       347.00
  999.16        2955.75           2225          83.00       360.07
  999.19        2956.00           2229          84.00       364.43
  999.22        2956.25           2232         105.00       455.98
  999.25        2956.50           2236          89.00       386.23
  999.29        2956.75           2239          89.00       386.23
  999.32        2957.00           2243         116.00       503.93
  999.35        2957.25           2246          90.00       390.59
  999.38        2957.50           2250         108.00       469.06
  999.41        2957.75           2254          89.00       386.23
  999.44        2958.00           2257          92.00       399.31
  999.47        2958.25           2261         102.00       442.90
  999.50        2958.50           2264          94.00       408.03
  999.53        2958.75           2268         105.00       455.98
  999.56        2959.00           2271         138.00       599.84
  999.59        2959.25           2275         101.00       438.54
  999.62        2959.50           2278          98.00       425.46
  999.65        2959.75           2282         110.00       477.78
  999.68        2960.00           2285         122.00       530.09
  999.71        2960.25           2289         109.00       473.42
  999.74        2960.50           2293         124.00       538.81
  999.77        2960.75           2296         155.00       673.95
  999.81        2961.00           2300         127.00       551.88
  999.84        2961.25           2303         198.00       861.40
  999.87        2961.50           2307         683.00      2975.89
  999.90        2961.75           2310        1389.00      6054.43
  999.93        2962.00           2314        2643.00     11524.13
  999.96        2962.25           2317        3676.00     16031.41
  999.99        2962.50           2321        4992.00     21775.49
 1000.02        2962.75           2324        5868.00     25600.31
 1000.05        2963.00           2328        7546.00     32929.61
 1000.08        2963.25           2331        8715.00     38037.83
 1000.11        2963.50           2335       10062.00     43926.06
 1000.14        2963.75           2339       11474.00     50100.97
 1000.17        2964.00           2342       12457.00     54401.32
 1000.20        2964.25           2346       13978.00     61057.75
 1000.23        2964.50           2349       15140.00     66145.11
 1000.26        2964.75           2353       16664.00     72820.00
 1000.29        2965.00           2356       17632.00     77061.28
 1000.33        2965.25           2360       19041.00     83236.98
 1000.36        2965.50           2363       19849.00     86779.64
 1000.39        2965.75           2367       21191.00     92665.52
 1000.42        2966.00           2370       22646.00     99049.66
 1000.45        2966.25           2374       23547.00    103004.40
 1000.48        2966.50           2378       24081.00    105348.80
 1000.51        2966.75           2381       24294.00    106284.00
 1000.54        2967.00           2385       24829.00    108633.30
 1000.57        2967.25           2388       24670.00    107935.10
 1000.60        2967.50           2392       24247.00    106077.60
 1000.63        2967.75           2395       24595.00    107605.70
 1000.66        2968.00           2399       23731.00    103812.20
 1000.69        2968.25           2402       22783.00     99650.92
 1000.72        2968.50           2406       21238.00     92871.69
 1000.75        2968.75           2409       20369.00     89060.03
 1000.78        2969.00           2413       19080.00     83407.96
 1000.81        2969.25           2417       17602.00     76929.81
 1000.84        2969.50           2420       16437.00     71825.59
 1000.88        2969.75           2424       14938.00     65260.60
 1000.91        2970.00           2427       13807.00     60309.24
 1000.94        2970.25           2431       12486.00     54528.21
 1000.97        2970.50           2434       11510.00     50258.44
 1001.00        2970.75           2438        9892.00     43182.80
 1001.03        2971.00           2441        8757.00     38221.39
 1001.06        2971.25           2445        7317.00     31929.15
 1001.09        2971.50           2449        6015.00     26242.24
 1001.12        2971.75           2452        4964.00     21653.25
 1001.15        2972.00           2456        3673.00     16018.31
 1001.18        2972.25           2459        2737.00     11934.22
 1001.21        2972.50           2463        1428.00      6224.51
 1001.24        2972.75           2466         704.00      3067.45
 1001.27        2973.00           2470         244.00      1061.94
 1001.30        2973.25           2473         146.00       634.71
 1001.33        2973.50           2477         141.00       612.92
 1001.36        2973.75           2481         119.00       517.01
 1001.40        2974.00           2484         116.00       503.93
 1001.43        2974.25           2488         132.00       573.68
 1001.46        2974.50           2491         137.00       595.48
 1001.49        2974.75           2495          98.00       425.46
 1001.52        2975.00           2498         100.00       434.18
 1001.55        2975.25           2502         121.00       525.73
 1001.58        2975.50           2505          99.00       429.82
 1001.61        2975.75           2509          88.00       381.87
 1001.64        2976.00           2512         103.00       447.26
 1001.67        2976.25           2516          97.00       421.10
 1001.70        2976.50           2520          92.00       399.31
 1001.73        2976.75           2523         122.00       530.09
 1001.76        2977.00           2527          94.00       408.03
 1001.79        2977.25           2530          93.00       403.67
 1001.82        2977.50           2534          97.00       421.10
 1001.85        2977.75           2537          91.00       394.95
 1001.88        2978.00           2541          89.00       386.23
 1001.92        2978.25           2544          89.00       386.23
 1001.95        2978.50           2548          95.00       412.39
 1001.98        2978.75           2552          94.00       408.03
 1002.01        2979.00           2555          99.00       429.82
 1002.04        2979.25           2559          88.00       381.87
 1002.07        2979.50           2562          85.00       368.79
 1002.10        2979.75           2566          87.00       377.51
 1002.13        2980.00           2569          79.00       342.64
 1002.16        2980.25           2573          85.00       368.79
 1002.19        2980.50           2577          83.00       360.07
 1002.22        2980.75           2580          86.00       373.15
 1002.25        2981.00           2584          90.00       390.59
 1002.28        2981.25           2587          86.00       373.15
 1002.31        2981.50           2591          80.00       347.00
 1002.34        2981.75           2594          75.00       325.20
 1002.37        2982.00           2598          87.00       377.51
 1002.40        2982.25           2601          88.00       381.87
 1002.44        2982.50           2605         106.00       460.34
 1002.47        2982.75           2609          70.00       303.40
 1002.50        2983.00           2612          86.00       373.15
 1002.53        2983.25           2616          78.00       338.28
 1002.56        2983.50           2619          79.00       342.64
 1002.59        2983.75           2623          88.00       381.87
 1002.62        2984.00           2626          77.00       333.92
HS scan finished at 16:42:50
end
