************************************************************
  HS Scan of (1) Internal mercury lamp
************************************************************
Integration time is 0.2294 seconds per sample
dh231218Reading 51.44 .94 2.84pr1000
************************************************************
Dead Time -------------------------  3.4E-08 
Number of Cycles Used -------------  4 
Starting Wavelength (Angstroms) ---  2950 
Final Wavelength (Angstoms) -------  2984 
Wavelength Increment (Angstroms) --  .25 
Filter Wheel #1 Position ---------- (1) Ground quartz diffuser (ND=2.32)
Filter Wheel #2 Position ---------- (1) Neutral Density 0.494



************************************************************
HS scan start time = 05:14:05
Dark Count =  .5 


Time (GMT)  Wavelength (Ang)  Step Number  Raw Counts  Counts/Second

  314.98        2950.00           2144        1594.00      6948.02
  315.18        2950.25           2147        1574.00      6860.80
  315.21        2950.50           2151        1573.00      6856.44
  315.24        2950.75           2155        1584.00      6904.41
  315.27        2951.00           2158        1608.00      7009.08
  315.30        2951.25           2162        1588.00      6921.86
  315.33        2951.50           2165        1586.00      6913.13
  315.36        2951.75           2169        1610.00      7017.80
  315.39        2952.00           2172        1649.00      7187.89
  315.42        2952.25           2176        1606.00      7000.36
  315.45        2952.50           2179        1616.00      7043.97
  315.48        2952.75           2183        1611.00      7022.16
  315.51        2953.00           2186        1611.00      7022.16
  315.55        2953.25           2190        1681.00      7327.46
  315.58        2953.50           2193        1634.00      7122.47
  315.61        2953.75           2197        1689.00      7362.35
  315.64        2954.00           2200        1669.00      7275.12
  315.67        2954.25           2204        1619.00      7057.05
  315.70        2954.50           2208        1654.00      7209.70
  315.73        2954.75           2211        1667.00      7266.40
  315.76        2955.00           2215        1697.00      7397.24
  315.79        2955.25           2218        1673.00      7292.57
  315.82        2955.50           2222        1672.00      7288.21
  315.85        2955.75           2225        1739.00      7580.42
  315.88        2956.00           2229        1711.00      7458.30
  315.91        2956.25           2232        1753.00      7641.48
  315.94        2956.50           2236        1761.00      7676.37
  315.97        2956.75           2239        1730.00      7541.17
  316.00        2957.00           2243        1768.00      7706.90
  316.03        2957.25           2246        1802.00      7855.19
  316.07        2957.50           2250        1768.00      7706.90
  316.10        2957.75           2254        1745.00      7606.59
  316.13        2958.00           2257        1823.00      7946.79
  316.16        2958.25           2261        1802.00      7855.19
  316.19        2958.50           2264        1815.00      7911.89
  316.22        2958.75           2268        1843.00      8034.02
  316.25        2959.00           2271        1862.00      8116.89
  316.28        2959.25           2275        1878.00      8186.67
  316.31        2959.50           2278        1902.00      8291.35
  316.34        2959.75           2282        1912.00      8334.97
  316.37        2960.00           2285        1961.00      8548.69
  316.40        2960.25           2289        1975.00      8609.76
  316.43        2960.50           2293        2018.00      8797.31
  316.46        2960.75           2296        2020.00      8806.04
  316.49        2961.00           2300        2099.00      9150.62
  316.52        2961.25           2303        2525.00     11008.91
  316.55        2961.50           2307        7295.00     31832.60
  316.59        2961.75           2310       16765.00     73262.03
  316.62        2962.00           2314       33541.00    146942.00
  316.65        2962.25           2317       47810.00    209903.80
  316.68        2962.50           2321       67819.00    298651.50
  316.71        2962.75           2324       82936.00    366060.00
  316.74        2963.00           2328      105730.00    468292.90
  316.77        2963.25           2331      123063.00    546515.10
  316.80        2963.50           2335      147645.00    658176.70
  316.83        2963.75           2339      170251.00    761625.00
  316.86        2964.00           2342      187453.00    840840.60
  316.89        2964.25           2346      209350.00    942307.60
  316.92        2964.50           2349      227827.00   1028484.00
  316.95        2964.75           2353      250793.00   1136318.00
  316.98        2965.00           2356      267899.00   1217165.00
  317.01        2965.25           2360      287512.00   1310423.00
  317.04        2965.50           2363      301985.00   1379631.00
  317.07        2965.75           2367      321868.00   1475256.00
  317.11        2966.00           2370      336992.00   1548423.00
  317.14        2966.25           2374      355776.00   1639820.00
  317.17        2966.50           2378      373930.00   1728711.00
  317.20        2966.75           2381      379813.00   1757637.00
  317.23        2967.00           2385      382910.00   1772888.00
  317.26        2967.25           2388      382111.00   1768952.00
  317.29        2967.50           2392      382671.00   1771710.00
  317.32        2967.75           2395      383046.00   1773558.00
  317.35        2968.00           2399      379306.00   1755142.00
  317.38        2968.25           2402      371602.00   1717281.00
  317.41        2968.50           2406      354653.00   1634340.00
  317.44        2968.75           2409      340036.00   1563195.00
  317.47        2969.00           2413      319630.00   1464461.00
  317.50        2969.25           2417      297046.00   1355976.00
  317.53        2969.50           2420      280851.00   1278683.00
  317.56        2969.75           2424      258365.00   1172049.00
  317.59        2970.00           2427      241994.00   1094908.00
  317.62        2970.25           2431      216761.00    976810.60
  317.66        2970.50           2434      198435.00    891640.40
  317.69        2970.75           2438      173950.00    778622.50
  317.72        2971.00           2441      157254.00    702058.80
  317.75        2971.25           2445      135034.00    600785.40
  317.78        2971.50           2449      113858.00    504921.60
  317.81        2971.75           2452       94678.00    418634.50
  317.84        2972.00           2456       70601.00    311033.50
  317.87        2972.25           2459       53259.00    234019.00
  317.90        2972.50           2463       32254.00    141276.40
  317.93        2972.75           2466       17925.00     78344.86
  317.96        2973.00           2470        6408.00     27958.13
  317.99        2973.25           2473        3278.00     14294.22
  318.03        2973.50           2477        2218.00      9669.70
  318.06        2973.75           2481        2112.00      9207.33
  318.09        2974.00           2484        2059.00      8976.15
  318.12        2974.25           2488        2007.00      8749.33
  318.15        2974.50           2491        1928.00      8404.76
  318.18        2974.75           2495        1932.00      8422.20
  318.21        2975.00           2498        1917.00      8356.78
  318.24        2975.25           2502        1877.00      8182.31
  318.27        2975.50           2505        1856.00      8090.72
  318.30        2975.75           2509        1823.00      7946.79
  318.34        2976.00           2512        1784.00      7776.69
  318.37        2976.25           2516        1811.00      7894.45
  318.40        2976.50           2520        1759.00      7667.65
  318.43        2976.75           2523        1777.00      7746.16
  318.46        2977.00           2527        1725.00      7519.36
  318.49        2977.25           2530        1726.00      7523.72
  318.52        2977.50           2534        1690.00      7366.71
  318.55        2977.75           2537        1676.00      7305.65
  318.58        2978.00           2541        1680.00      7323.10
  318.61        2978.25           2544        1660.00      7235.87
  318.64        2978.50           2548        1677.00      7310.01
  318.67        2978.75           2552        1623.00      7074.50
  318.70        2979.00           2555        1619.00      7057.05
  318.73        2979.25           2559        1628.00      7096.31
  318.76        2979.50           2562        1642.00      7157.37
  318.79        2979.75           2566        1611.00      7022.16
  318.82        2980.00           2569        1604.00      6991.64
  318.86        2980.25           2573        1600.00      6974.19
  318.89        2980.50           2577        1598.00      6965.47
  318.92        2980.75           2580        1551.00      6760.49
  318.95        2981.00           2584        1535.00      6690.71
  318.98        2981.25           2587        1541.00      6716.88
  319.01        2981.50           2591        1500.00      6538.07
  319.04        2981.75           2594        1537.00      6699.43
  319.07        2982.00           2598        1516.00      6607.85
  319.10        2982.25           2601        1487.00      6481.38
  319.13        2982.50           2605        1520.00      6625.29
  319.16        2982.75           2609        1545.00      6734.32
  319.19        2983.00           2612        1519.00      6620.93
  319.22        2983.25           2616        1501.00      6542.43
  319.25        2983.50           2619        1490.00      6494.46
  319.28        2983.75           2623        1487.00      6481.38
  319.31        2984.00           2626        1477.00      6437.76
HS scan finished at 05:19:32
end
************************************************************
  HS Scan of (1) Internal mercury lamp
************************************************************
Integration time is 0.2294 seconds per sample
dh231218Reading 51.44 .94 3.13pr1000
************************************************************
Dead Time -------------------------  3.4E-08 
Number of Cycles Used -------------  4 
Starting Wavelength (Angstroms) ---  2950 
Final Wavelength (Angstoms) -------  2984 
Wavelength Increment (Angstroms) --  .25 
Filter Wheel #1 Position ---------- (1) Ground quartz diffuser (ND=2.32)
Filter Wheel #2 Position ---------- (1) Neutral Density 0.494



************************************************************
HS scan start time = 17:07:26
Dark Count =  1.4 


Time (GMT)  Wavelength (Ang)  Step Number  Raw Counts  Counts/Second

 1028.34        2950.00           2144        1163.00      5064.52
 1028.53        2950.25           2147        1201.00      5230.22
 1028.56        2950.50           2151        1194.00      5199.70
 1028.59        2950.75           2155        1193.00      5195.34
 1028.62        2951.00           2158        1182.00      5147.37
 1028.65        2951.25           2162        1172.00      5103.76
 1028.68        2951.50           2165        1176.00      5121.21
 1028.71        2951.75           2169        1204.00      5243.31
 1028.74        2952.00           2172        1196.00      5208.42
 1028.77        2952.25           2176        1184.00      5156.09
 1028.80        2952.50           2179        1224.00      5330.52
 1028.84        2952.75           2183        1214.00      5286.91
 1028.87        2953.00           2186        1227.00      5343.60
 1028.90        2953.25           2190        1221.00      5317.44
 1028.93        2953.50           2193        1246.00      5426.46
 1028.96        2953.75           2197        1235.00      5378.49
 1028.99        2954.00           2200        1253.00      5456.99
 1029.02        2954.25           2204        1233.00      5369.77
 1029.05        2954.50           2208        1284.00      5592.17
 1029.08        2954.75           2211        1257.00      5474.43
 1029.11        2955.00           2215        1270.00      5531.12
 1029.14        2955.25           2218        1236.00      5382.85
 1029.17        2955.50           2222        1274.00      5548.56
 1029.20        2955.75           2225        1318.00      5740.44
 1029.23        2956.00           2229        1262.00      5496.23
 1029.26        2956.25           2232        1308.00      5696.83
 1029.29        2956.50           2236        1312.00      5714.28
 1029.32        2956.75           2239        1312.00      5714.28
 1029.35        2957.00           2243        1313.00      5718.64
 1029.39        2957.25           2246        1346.00      5862.55
 1029.42        2957.50           2250        1337.00      5823.30
 1029.45        2957.75           2254        1342.00      5845.10
 1029.48        2958.00           2257        1319.00      5744.80
 1029.51        2958.25           2261        1381.00      6015.18
 1029.54        2958.50           2264        1372.00      5975.93
 1029.57        2958.75           2268        1419.00      6180.90
 1029.60        2959.00           2271        1403.00      6111.12
 1029.63        2959.25           2275        1438.00      6263.76
 1029.66        2959.50           2278        1461.00      6364.06
 1029.69        2959.75           2282        1485.00      6468.73
 1029.72        2960.00           2285        1476.00      6429.48
 1029.75        2960.25           2289        1510.00      6577.76
 1029.78        2960.50           2293        1542.00      6717.31
 1029.81        2960.75           2296        1562.00      6804.54
 1029.84        2961.00           2300        1672.00      7284.28
 1029.87        2961.25           2303        1845.00      8038.81
 1029.91        2961.50           2307        4441.00     19365.84
 1029.94        2961.75           2310       11301.00     49339.89
 1029.97        2962.00           2314       26122.00    114308.30
 1030.00        2962.25           2317       39036.00    171152.60
 1030.03        2962.50           2321       56057.00    246413.30
 1030.06        2962.75           2324       68578.00    302024.60
 1030.09        2963.00           2328       87127.00    384799.40
 1030.12        2963.25           2331      102703.00    454671.30
 1030.15        2963.50           2335      123797.00    549832.80
 1030.18        2963.75           2339      143518.00    639366.10
 1030.21        2964.00           2342      156481.00    698519.70
 1030.24        2964.25           2346      174440.00    780871.40
 1030.27        2964.50           2349      189779.00    851581.10
 1030.30        2964.75           2353      208823.00    939852.90
 1030.33        2965.00           2356      222902.00   1005459.00
 1030.36        2965.25           2360      240498.00   1087875.00
 1030.39        2965.50           2363      252708.00   1145342.00
 1030.43        2965.75           2367      268532.00   1220161.00
 1030.46        2966.00           2370      282254.00   1285358.00
 1030.49        2966.25           2374      299169.00   1366135.00
 1030.52        2966.50           2378      312329.00   1429295.00
 1030.55        2966.75           2381      317591.00   1454628.00
 1030.58        2967.00           2385      319756.00   1465064.00
 1030.61        2967.25           2388      320571.00   1468994.00
 1030.64        2967.50           2392      320741.00   1469814.00
 1030.67        2967.75           2395      320249.00   1467441.00
 1030.70        2968.00           2399      317431.00   1453857.00
 1030.73        2968.25           2402      311839.00   1426939.00
 1030.77        2968.50           2406      296704.00   1354335.00
 1030.80        2968.75           2409      283530.00   1291436.00
 1030.83        2969.00           2413      265648.00   1206496.00
 1030.86        2969.25           2417      249281.00   1129190.00
 1030.89        2969.50           2420      237035.00   1071618.00
 1030.92        2969.75           2424      219688.00    990456.10
 1030.95        2970.00           2427      203411.00    914712.60
 1030.98        2970.25           2431      182293.00    817029.00
 1031.02        2970.50           2434      166963.00    746528.60
 1031.05        2970.75           2438      147135.00    655847.30
 1031.08        2971.00           2441      132740.00    590365.80
 1031.12        2971.25           2445      112459.00    498606.40
 1031.15        2971.50           2449       93278.00    412352.00
 1031.18        2971.75           2452       79121.00    349015.10
 1031.21        2972.00           2456       60086.00    264284.80
 1031.24        2972.25           2459       46250.00    203003.10
 1031.28        2972.50           2463       28066.00    122851.20
 1031.31        2972.75           2466       16108.00     70380.07
 1031.34        2973.00           2470        5820.00     25386.33
 1031.37        2973.25           2473        2829.00     12331.24
 1031.40        2973.50           2477        1804.00      7859.99
 1031.43        2973.75           2481        1616.00      7040.05
 1031.46        2974.00           2484        1586.00      6909.21
 1031.49        2974.25           2488        1563.00      6808.90
 1031.52        2974.50           2491        1464.00      6377.15
 1031.55        2974.75           2495        1512.00      6586.48
 1031.58        2975.00           2498        1431.00      6233.23
 1031.61        2975.25           2502        1433.00      6241.95
 1031.64        2975.50           2505        1446.00      6298.65
 1031.67        2975.75           2509        1428.00      6220.15
 1031.70        2976.00           2512        1364.00      5941.04
 1031.73        2976.25           2516        1385.00      6032.62
 1031.76        2976.50           2520        1355.00      5901.79
 1031.80        2976.75           2523        1321.00      5753.52
 1031.83        2977.00           2527        1330.00      5792.77
 1031.86        2977.25           2530        1297.00      5648.86
 1031.89        2977.50           2534        1312.00      5714.28
 1031.92        2977.75           2537        1260.00      5487.51
 1031.95        2978.00           2541        1262.00      5496.23
 1031.98        2978.25           2544        1251.00      5448.26
 1032.01        2978.50           2548        1272.00      5539.84
 1032.04        2978.75           2552        1220.00      5313.08
 1032.07        2979.00           2555        1234.00      5374.13
 1032.10        2979.25           2559        1280.00      5574.73
 1032.13        2979.50           2562        1211.00      5273.83
 1032.16        2979.75           2566        1173.00      5108.12
 1032.19        2980.00           2569        1193.00      5195.34
 1032.22        2980.25           2573        1177.00      5125.57
 1032.25        2980.50           2577        1168.00      5086.32
 1032.28        2980.75           2580        1219.00      5308.72
 1032.32        2981.00           2584        1156.00      5033.99
 1032.35        2981.25           2587        1183.00      5151.73
 1032.38        2981.50           2591        1193.00      5195.34
 1032.41        2981.75           2594        1189.00      5177.90
 1032.44        2982.00           2598        1159.00      5047.07
 1032.47        2982.25           2601        1132.00      4929.34
 1032.50        2982.50           2605        1153.00      5020.91
 1032.53        2982.75           2609        1165.00      5073.24
 1032.56        2983.00           2612        1126.00      4903.17
 1032.59        2983.25           2616        1127.00      4907.53
 1032.62        2983.50           2619        1148.00      4999.11
 1032.65        2983.75           2623        1160.00      5051.43
 1032.68        2984.00           2626        1130.00      4920.61
HS scan finished at 17:12:54
end
