************************************************************
  HS Scan of (1) Internal mercury lamp
************************************************************
Integration time is 0.2294 seconds per sample
dh201217Reading 51.44 .94 2.92pr1000
************************************************************
Dead Time -------------------------  3.4E-08 
Number of Cycles Used -------------  4 
Starting Wavelength (Angstroms) ---  2950 
Final Wavelength (Angstoms) -------  2984 
Wavelength Increment (Angstroms) --  .25 
Filter Wheel #1 Position ---------- (1) Ground quartz diffuser (ND=2.32)
Filter Wheel #2 Position ---------- (1) Neutral Density 0.494



************************************************************
HS scan start time = 05:12:42
Dark Count =  .5 


Time (GMT)  Wavelength (Ang)  Step Number  Raw Counts  Counts/Second

  313.59        2950.00           2144          78.00       337.84
  313.78        2950.25           2147          87.00       377.08
  313.81        2950.50           2151          82.00       355.28
  313.84        2950.75           2155          79.00       342.20
  313.87        2951.00           2158          75.00       324.76
  313.91        2951.25           2162          83.00       359.64
  313.94        2951.50           2165          77.00       333.48
  313.97        2951.75           2169          82.00       355.28
  314.00        2952.00           2172          84.00       364.00
  314.03        2952.25           2176          88.00       381.43
  314.06        2952.50           2179          86.00       372.72
  314.09        2952.75           2183          90.00       390.15
  314.12        2953.00           2186          82.00       355.28
  314.15        2953.25           2190          81.00       350.92
  314.18        2953.50           2193          79.00       342.20
  314.21        2953.75           2197          88.00       381.43
  314.24        2954.00           2200          89.00       385.79
  314.27        2954.25           2204          80.00       346.56
  314.30        2954.50           2208          88.00       381.43
  314.33        2954.75           2211          83.00       359.64
  314.36        2955.00           2215          81.00       350.92
  314.39        2955.25           2218          81.00       350.92
  314.43        2955.50           2222          86.00       372.72
  314.46        2955.75           2225          90.00       390.15
  314.49        2956.00           2229          94.00       407.59
  314.52        2956.25           2232          96.00       416.31
  314.55        2956.50           2236          87.00       377.08
  314.58        2956.75           2239          90.00       390.15
  314.61        2957.00           2243          88.00       381.43
  314.64        2957.25           2246          98.00       425.03
  314.67        2957.50           2250          95.00       411.95
  314.70        2957.75           2254          93.00       403.23
  314.73        2958.00           2257          95.00       411.95
  314.76        2958.25           2261          95.00       411.95
  314.79        2958.50           2264          99.00       429.39
  314.82        2958.75           2268         115.00       499.14
  314.85        2959.00           2271         121.00       525.29
  314.88        2959.25           2275          90.00       390.15
  314.91        2959.50           2278         124.00       538.37
  314.95        2959.75           2282         103.00       446.82
  314.98        2960.00           2285         119.00       516.57
  315.01        2960.25           2289         123.00       534.01
  315.04        2960.50           2293         119.00       516.57
  315.07        2960.75           2296         127.00       551.45
  315.10        2961.00           2300         153.00       664.79
  315.13        2961.25           2303         312.00      1357.95
  315.16        2961.50           2307        1136.00      4950.70
  315.19        2961.75           2310        1945.00      8478.91
  315.22        2962.00           2314        3215.00     14019.32
  315.25        2962.25           2317        4170.00     18186.92
  315.28        2962.50           2321        5625.00     24538.77
  315.31        2962.75           2324        6722.00     29329.58
  315.34        2963.00           2328        8113.00     35406.59
  315.37        2963.25           2331        9225.00     40266.51
  315.40        2963.50           2335       10666.00     46566.70
  315.43        2963.75           2339       12019.00     52484.60
  315.47        2964.00           2342       13155.00     57455.20
  315.50        2964.25           2346       14913.00     65150.69
  315.53        2964.50           2349       15852.00     69262.75
  315.56        2964.75           2353       17502.00     76491.18
  315.59        2965.00           2356       18444.00     80619.55
  315.62        2965.25           2360       19965.00     87287.88
  315.65        2965.50           2363       20981.00     91743.88
  315.68        2965.75           2367       22311.00     97579.09
  315.71        2966.00           2370       23338.00    102086.50
  315.74        2966.25           2374       24308.00    106345.00
  315.77        2966.50           2378       24891.00    108905.10
  315.80        2966.75           2381       25058.00    109638.60
  315.83        2967.00           2385       25012.00    109436.50
  315.86        2967.25           2388       24969.00    109247.70
  315.89        2967.50           2392       25088.00    109770.30
  315.92        2967.75           2395       24697.00    108053.20
  315.95        2968.00           2399       23701.00    103680.00
  315.98        2968.25           2402       22543.00     98597.19
  316.02        2968.50           2406       21428.00     93704.78
  316.05        2968.75           2409       20260.00     88581.56
  316.08        2969.00           2413       19157.00     83745.09
  316.11        2969.25           2417       17776.00     77691.88
  316.14        2969.50           2420       16513.00     72158.08
  316.17        2969.75           2424       15109.00     66008.93
  316.20        2970.00           2427       13919.00     60799.05
  316.23        2970.25           2431       12315.00     53779.60
  316.26        2970.50           2434       11226.00     49015.80
  316.29        2970.75           2438        9787.00     42723.31
  316.32        2971.00           2441        8849.00     38623.05
  316.35        2971.25           2445        7559.00     32985.97
  316.38        2971.50           2449        6109.00     26652.30
  316.41        2971.75           2452        5020.00     21897.29
  316.44        2972.00           2456        3562.00     15533.49
  316.47        2972.25           2459        2448.00     10673.01
  316.50        2972.50           2463        1235.00      5382.42
  316.54        2972.75           2466         601.00      2617.93
  316.57        2973.00           2470         229.00       996.11
  316.60        2973.25           2473         137.00       595.04
  316.63        2973.50           2477         139.00       603.76
  316.66        2973.75           2481         153.00       664.79
  316.69        2974.00           2484         114.00       494.78
  316.72        2974.25           2488         105.00       455.54
  316.75        2974.50           2491         122.00       529.65
  316.78        2974.75           2495         107.00       464.26
  316.81        2975.00           2498         102.00       442.47
  316.84        2975.25           2502         107.00       464.26
  316.87        2975.50           2505          96.00       416.31
  316.90        2975.75           2509         114.00       494.78
  316.93        2976.00           2512         103.00       446.82
  316.96        2976.25           2516          94.00       407.59
  316.99        2976.50           2520          90.00       390.15
  317.02        2976.75           2523          92.00       398.87
  317.06        2977.00           2527         103.00       446.82
  317.09        2977.25           2530          91.00       394.51
  317.12        2977.50           2534          92.00       398.87
  317.15        2977.75           2537          94.00       407.59
  317.18        2978.00           2541          88.00       381.43
  317.21        2978.25           2544          93.00       403.23
  317.24        2978.50           2548          95.00       411.95
  317.27        2978.75           2552          96.00       416.31
  317.30        2979.00           2555         109.00       472.98
  317.33        2979.25           2559         115.00       499.14
  317.36        2979.50           2562          87.00       377.08
  317.39        2979.75           2566          84.00       364.00
  317.42        2980.00           2569          85.00       368.36
  317.45        2980.25           2573          74.00       320.40
  317.48        2980.50           2577          85.00       368.36
  317.51        2980.75           2580          83.00       359.64
  317.54        2981.00           2584          82.00       355.28
  317.58        2981.25           2587          77.00       333.48
  317.61        2981.50           2591          82.00       355.28
  317.64        2981.75           2594          87.00       377.08
  317.67        2982.00           2598          82.00       355.28
  317.70        2982.25           2601          81.00       350.92
  317.73        2982.50           2605          80.00       346.56
  317.76        2982.75           2609          79.00       342.20
  317.79        2983.00           2612          81.00       350.92
  317.82        2983.25           2616          81.00       350.92
  317.85        2983.50           2619          75.00       324.76
  317.88        2983.75           2623          83.00       359.64
  317.91        2984.00           2626          86.00       372.72
HS scan finished at 05:18:08
end
************************************************************
  HS Scan of (1) Internal mercury lamp
************************************************************
Integration time is 0.2294 seconds per sample
dh201217Reading 51.44 .94 3.27pr1000
************************************************************
Dead Time -------------------------  3.4E-08 
Number of Cycles Used -------------  4 
Starting Wavelength (Angstroms) ---  2950 
Final Wavelength (Angstoms) -------  2984 
Wavelength Increment (Angstroms) --  .25 
Filter Wheel #1 Position ---------- (1) Ground quartz diffuser (ND=2.32)
Filter Wheel #2 Position ---------- (1) Neutral Density 0.494



************************************************************
HS scan start time = 16:37:27
Dark Count =  1.9 


Time (GMT)  Wavelength (Ang)  Step Number  Raw Counts  Counts/Second

  998.34        2950.00           2144          71.00       301.22
  998.54        2950.25           2147          60.00       253.27
  998.57        2950.50           2151          77.00       327.38
  998.60        2950.75           2155          66.00       279.43
  998.63        2951.00           2158          73.00       309.94
  998.66        2951.25           2162          75.00       318.66
  998.69        2951.50           2165          68.00       288.15
  998.72        2951.75           2169          70.00       296.86
  998.75        2952.00           2172          70.00       296.86
  998.78        2952.25           2176          69.00       292.51
  998.81        2952.50           2179          75.00       318.66
  998.84        2952.75           2183          75.00       318.66
  998.87        2953.00           2186          73.00       309.94
  998.90        2953.25           2190          70.00       296.86
  998.94        2953.50           2193          69.00       292.51
  998.97        2953.75           2197          83.00       353.54
  999.00        2954.00           2200          73.00       309.94
  999.03        2954.25           2204          79.00       336.10
  999.06        2954.50           2208          72.00       305.58
  999.09        2954.75           2211          79.00       336.10
  999.12        2955.00           2215          75.00       318.66
  999.15        2955.25           2218          85.00       362.25
  999.18        2955.50           2222          79.00       336.10
  999.21        2955.75           2225          76.00       323.02
  999.24        2956.00           2229          81.00       344.82
  999.27        2956.25           2232          70.00       296.86
  999.30        2956.50           2236          73.00       309.94
  999.33        2956.75           2239          81.00       344.82
  999.36        2957.00           2243          84.00       357.89
  999.39        2957.25           2246         122.00       523.55
  999.42        2957.50           2250          76.00       323.02
  999.46        2957.75           2254          88.00       375.33
  999.49        2958.00           2257          89.00       379.69
  999.52        2958.25           2261          85.00       362.25
  999.55        2958.50           2264          90.00       384.05
  999.58        2958.75           2268          86.00       366.61
  999.61        2959.00           2271          91.00       388.41
  999.64        2959.25           2275          98.00       418.92
  999.67        2959.50           2278          95.00       405.85
  999.70        2959.75           2282          88.00       375.33
  999.73        2960.00           2285          93.00       397.13
  999.76        2960.25           2289          95.00       405.85
  999.79        2960.50           2293         106.00       453.80
  999.82        2960.75           2296          99.00       423.28
  999.85        2961.00           2300         176.00       758.96
  999.88        2961.25           2303         332.00      1439.04
  999.91        2961.50           2307        1008.00      4386.44
  999.94        2961.75           2310        1728.00      7526.34
  999.98        2962.00           2314        3017.00     13149.30
 1000.01        2962.25           2317        4065.00     17722.53
 1000.04        2962.50           2321        5462.00     23820.94
 1000.07        2962.75           2324        6513.00     28410.60
 1000.10        2963.00           2328        7908.00     34504.72
 1000.13        2963.25           2331        8963.00     39115.20
 1000.16        2963.50           2335       10174.00     44409.20
 1000.19        2963.75           2339       11577.00     50544.94
 1000.22        2964.00           2342       12595.00     54998.57
 1000.25        2964.25           2346       14031.00     61283.19
 1000.28        2964.50           2349       15103.00     65976.51
 1000.31        2964.75           2353       16390.00     71613.13
 1000.34        2965.00           2356       17308.00     75634.97
 1000.37        2965.25           2360       18385.00     80354.81
 1000.40        2965.50           2363       19317.00     84440.42
 1000.43        2965.75           2367       20639.00     90237.63
 1000.46        2966.00           2370       21372.00     93452.96
 1000.50        2966.25           2374       22960.00    100421.20
 1000.53        2966.50           2378       23394.00    102326.20
 1000.56        2966.75           2381       23375.00    102242.80
 1000.59        2967.00           2385       22973.00    100478.30
 1000.62        2967.25           2388       22921.00    100250.00
 1000.65        2967.50           2392       23081.00    100952.30
 1000.68        2967.75           2395       22549.00     98617.38
 1000.71        2968.00           2399       21846.00     95532.55
 1000.74        2968.25           2402       21302.00     93145.87
 1000.77        2968.50           2406       20001.00     87439.61
 1000.80        2968.75           2409       19180.00     83839.78
 1000.83        2969.00           2413       17892.00     78194.10
 1000.86        2969.25           2417       16570.00     72401.63
 1000.89        2969.50           2420       15539.00     67885.81
 1000.92        2969.75           2424       14082.00     61506.43
 1000.96        2970.00           2427       13173.00     57527.85
 1000.99        2970.25           2431       11683.00     51008.62
 1001.02        2970.50           2434       10675.00     46599.93
 1001.05        2970.75           2438        9225.00     40260.39
 1001.08        2971.00           2441        8064.00     35186.36
 1001.11        2971.25           2445        6765.00     29511.29
 1001.14        2971.50           2449        5470.00     23855.87
 1001.17        2971.75           2452        4447.00     19389.85
 1001.20        2972.00           2456        3226.00     14061.21
 1001.24        2972.25           2459        2304.00     10038.74
 1001.27        2972.50           2463        1092.00      4752.73
 1001.30        2972.75           2466         499.00      2167.12
 1001.33        2973.00           2470         171.00       737.16
 1001.36        2973.25           2473         167.00       719.72
 1001.39        2973.50           2477         122.00       523.55
 1001.42        2973.75           2481         137.00       588.94
 1001.45        2974.00           2484          99.00       423.28
 1001.48        2974.25           2488         101.00       432.00
 1001.51        2974.50           2491          93.00       397.13
 1001.54        2974.75           2495          90.00       384.05
 1001.57        2975.00           2498          86.00       366.61
 1001.60        2975.25           2502          84.00       357.89
 1001.63        2975.50           2505          96.00       410.21
 1001.66        2975.75           2509          92.00       392.77
 1001.69        2976.00           2512          89.00       379.69
 1001.73        2976.25           2516          86.00       366.61
 1001.76        2976.50           2520          81.00       344.82
 1001.79        2976.75           2523          81.00       344.82
 1001.82        2977.00           2527          83.00       353.54
 1001.85        2977.25           2530          68.00       288.15
 1001.88        2977.50           2534          74.00       314.30
 1001.91        2977.75           2537          76.00       323.02
 1001.94        2978.00           2541          85.00       362.25
 1001.97        2978.25           2544          73.00       309.94
 1002.00        2978.50           2548          75.00       318.66
 1002.03        2978.75           2552          81.00       344.82
 1002.06        2979.00           2555          68.00       288.15
 1002.09        2979.25           2559          75.00       318.66
 1002.12        2979.50           2562          77.00       327.38
 1002.15        2979.75           2566          73.00       309.94
 1002.18        2980.00           2569          76.00       323.02
 1002.21        2980.25           2573          75.00       318.66
 1002.25        2980.50           2577          75.00       318.66
 1002.28        2980.75           2580          68.00       288.15
 1002.31        2981.00           2584          70.00       296.86
 1002.34        2981.25           2587          77.00       327.38
 1002.37        2981.50           2591          64.00       270.71
 1002.40        2981.75           2594          72.00       305.58
 1002.43        2982.00           2598          68.00       288.15
 1002.46        2982.25           2601          64.00       270.71
 1002.49        2982.50           2605          71.00       301.22
 1002.52        2982.75           2609          75.00       318.66
 1002.55        2983.00           2612          70.00       296.86
 1002.58        2983.25           2616          75.00       318.66
 1002.61        2983.50           2619          65.00       275.07
 1002.64        2983.75           2623          65.00       275.07
 1002.67        2984.00           2626          60.00       253.27
HS scan finished at 16:42:54
end
