************************************************************
  HS Scan of (1) Internal mercury lamp
************************************************************
Integration time is 0.2294 seconds per sample
dh191217Reading 51.44 .94 2.43pr1000
************************************************************
Dead Time -------------------------  3.4E-08 
Number of Cycles Used -------------  4 
Starting Wavelength (Angstroms) ---  2950 
Final Wavelength (Angstoms) -------  2984 
Wavelength Increment (Angstroms) --  .25 
Filter Wheel #1 Position ---------- (1) Ground quartz diffuser (ND=2.32)
Filter Wheel #2 Position ---------- (1) Neutral Density 0.494



************************************************************
HS scan start time = 05:15:10
Dark Count =  .4 


Time (GMT)  Wavelength (Ang)  Step Number  Raw Counts  Counts/Second

  316.07        2950.00           2144          97.00       421.10
  316.27        2950.25           2147          80.00       347.00
  316.30        2950.50           2151          94.00       408.03
  316.33        2950.75           2155          98.00       425.46
  316.36        2951.00           2158          95.00       412.39
  316.39        2951.25           2162          84.00       364.43
  316.42        2951.50           2165          87.00       377.51
  316.45        2951.75           2169          79.00       342.64
  316.48        2952.00           2172          98.00       425.46
  316.51        2952.25           2176         103.00       447.26
  316.54        2952.50           2179         116.00       503.93
  316.57        2952.75           2183         111.00       482.14
  316.60        2953.00           2186          92.00       399.31
  316.63        2953.25           2190          89.00       386.23
  316.66        2953.50           2193          98.00       425.46
  316.69        2953.75           2197          90.00       390.59
  316.73        2954.00           2200          97.00       421.10
  316.76        2954.25           2204          96.00       416.75
  316.79        2954.50           2208         110.00       477.78
  316.82        2954.75           2211         103.00       447.26
  316.85        2955.00           2215         113.00       490.85
  316.88        2955.25           2218          94.00       408.03
  316.91        2955.50           2222         101.00       438.54
  316.94        2955.75           2225          93.00       403.67
  316.97        2956.00           2229         102.00       442.90
  317.00        2956.25           2232         109.00       473.42
  317.03        2956.50           2236         103.00       447.26
  317.06        2956.75           2239         114.00       495.21
  317.09        2957.00           2243          97.00       421.10
  317.12        2957.25           2246         126.00       547.53
  317.15        2957.50           2250         110.00       477.78
  317.18        2957.75           2254         102.00       442.90
  317.21        2958.00           2257         112.00       486.49
  317.25        2958.25           2261         104.00       451.62
  317.28        2958.50           2264         104.00       451.62
  317.31        2958.75           2268         130.00       564.96
  317.34        2959.00           2271         147.00       639.07
  317.37        2959.25           2275         151.00       656.51
  317.40        2959.50           2278         131.00       569.32
  317.43        2959.75           2282         115.00       499.57
  317.46        2960.00           2285         115.00       499.57
  317.49        2960.25           2289         140.00       608.56
  317.52        2960.50           2293         134.00       582.40
  317.55        2960.75           2296         154.00       669.59
  317.58        2961.00           2300         152.00       660.87
  317.61        2961.25           2303         250.00      1088.10
  317.64        2961.50           2307         806.00      3512.19
  317.67        2961.75           2310        1575.00      6865.60
  317.70        2962.00           2314        2713.00     11829.52
  317.73        2962.25           2317        3764.00     16415.44
  317.77        2962.50           2321        5202.00     22692.31
  317.80        2962.75           2324        6336.00     27644.11
  317.83        2963.00           2328        7656.00     33410.21
  317.86        2963.25           2331        8598.00     37526.49
  317.89        2963.50           2335       10239.00     44699.97
  317.92        2963.75           2339       11525.00     50324.04
  317.95        2964.00           2342       12580.00     54939.49
  317.98        2964.25           2346       14161.00     61858.82
  318.01        2964.50           2349       15276.00     66740.65
  318.04        2964.75           2353       16589.00     72491.45
  318.07        2965.00           2356       17812.00     77850.08
  318.10        2965.25           2360       18948.00     82829.27
  318.13        2965.50           2363       19908.00     87038.36
  318.16        2965.75           2367       21317.00     93218.26
  318.19        2966.00           2370       21974.00     96100.77
  318.22        2966.25           2374       23463.00    102635.70
  318.25        2966.50           2378       24005.00    105015.10
  318.28        2966.75           2381       24267.00    106165.40
  318.32        2967.00           2385       24146.00    105634.20
  318.35        2967.25           2388       24540.00    107364.20
  318.38        2967.50           2392       24245.00    106068.90
  318.41        2967.75           2395       23796.00    104097.50
  318.44        2968.00           2399       23010.00    100647.20
  318.47        2968.25           2402       21995.00     96192.90
  318.50        2968.50           2406       20762.00     90783.71
  318.53        2968.75           2409       19748.00     86336.77
  318.56        2969.00           2413       18370.00     80295.63
  318.59        2969.25           2417       17112.00     74782.75
  318.62        2969.50           2420       16025.00     70020.91
  318.65        2969.75           2424       14518.00     63421.70
  318.68        2970.00           2427       13432.00     58667.92
  318.71        2970.25           2431       12047.00     52607.53
  318.74        2970.50           2434       11155.00     48705.70
  318.77        2970.75           2438        9700.00     42343.40
  318.80        2971.00           2441        8715.00     38037.83
  318.84        2971.25           2445        7338.00     32020.90
  318.87        2971.50           2449        5922.00     25836.11
  318.90        2971.75           2452        4851.00     21159.94
  318.93        2972.00           2456        3441.00     15005.91
  318.96        2972.25           2459        2442.00     10647.27
  318.99        2972.50           2463        1329.00      5792.77
  319.02        2972.75           2466         761.00      3315.98
  319.05        2973.00           2470         244.00      1061.94
  319.08        2973.25           2473         152.00       660.87
  319.11        2973.50           2477         143.00       621.63
  319.14        2973.75           2481         138.00       599.84
  319.17        2974.00           2484         148.00       643.43
  319.20        2974.25           2488         116.00       503.93
  319.23        2974.50           2491         133.00       578.04
  319.26        2974.75           2495         138.00       599.84
  319.29        2975.00           2498         136.00       591.12
  319.32        2975.25           2502         113.00       490.85
  319.36        2975.50           2505         126.00       547.53
  319.39        2975.75           2509         110.00       477.78
  319.42        2976.00           2512         126.00       547.53
  319.45        2976.25           2516         105.00       455.98
  319.48        2976.50           2520         102.00       442.90
  319.51        2976.75           2523         121.00       525.73
  319.54        2977.00           2527         111.00       482.14
  319.57        2977.25           2530         101.00       438.54
  319.60        2977.50           2534         104.00       451.62
  319.63        2977.75           2537         115.00       499.57
  319.66        2978.00           2541         105.00       455.98
  319.69        2978.25           2544          98.00       425.46
  319.72        2978.50           2548         107.00       464.70
  319.75        2978.75           2552          93.00       403.67
  319.78        2979.00           2555          99.00       429.82
  319.81        2979.25           2559         105.00       455.98
  319.84        2979.50           2562          90.00       390.59
  319.88        2979.75           2566          96.00       416.75
  319.91        2980.00           2569          99.00       429.82
  319.94        2980.25           2573         107.00       464.70
  319.97        2980.50           2577          92.00       399.31
  320.00        2980.75           2580          97.00       421.10
  320.03        2981.00           2584          90.00       390.59
  320.06        2981.25           2587          96.00       416.75
  320.09        2981.50           2591          87.00       377.51
  320.12        2981.75           2594          93.00       403.67
  320.15        2982.00           2598         113.00       490.85
  320.18        2982.25           2601          95.00       412.39
  320.21        2982.50           2605          82.00       355.71
  320.24        2982.75           2609          83.00       360.07
  320.27        2983.00           2612          93.00       403.67
  320.30        2983.25           2616          89.00       386.23
  320.33        2983.50           2619          98.00       425.46
  320.36        2983.75           2623          84.00       364.43
  320.40        2984.00           2626          79.00       342.64
HS scan finished at 05:20:37
end
************************************************************
  HS Scan of (1) Internal mercury lamp
************************************************************
Integration time is 0.2294 seconds per sample
dh191217Reading 51.44 .94 2.96pr1000
************************************************************
Dead Time -------------------------  3.4E-08 
Number of Cycles Used -------------  4 
Starting Wavelength (Angstroms) ---  2950 
Final Wavelength (Angstoms) -------  2984 
Wavelength Increment (Angstroms) --  .25 
Filter Wheel #1 Position ---------- (1) Ground quartz diffuser (ND=2.32)
Filter Wheel #2 Position ---------- (1) Neutral Density 0.494



************************************************************
HS scan start time = 16:37:21
Dark Count =  1 


Time (GMT)  Wavelength (Ang)  Step Number  Raw Counts  Counts/Second

  998.25        2950.00           2144          82.00       353.10
  998.45        2950.25           2147          84.00       361.82
  998.48        2950.50           2151          76.00       326.94
  998.51        2950.75           2155          78.00       335.66
  998.54        2951.00           2158          83.00       357.46
  998.57        2951.25           2162          73.00       313.87
  998.60        2951.50           2165          83.00       357.46
  998.63        2951.75           2169          76.00       326.94
  998.66        2952.00           2172          76.00       326.94
  998.69        2952.25           2176          73.00       313.87
  998.72        2952.50           2179          78.00       335.66
  998.75        2952.75           2183          78.00       335.66
  998.78        2953.00           2186          80.00       344.38
  998.82        2953.25           2190          81.00       348.74
  998.85        2953.50           2193          83.00       357.46
  998.88        2953.75           2197          90.00       387.97
  998.91        2954.00           2200          87.00       374.90
  998.94        2954.25           2204          87.00       374.90
  998.97        2954.50           2208          83.00       357.46
  999.00        2954.75           2211          84.00       361.82
  999.03        2955.00           2215          78.00       335.66
  999.06        2955.25           2218          81.00       348.74
  999.09        2955.50           2222          97.00       418.49
  999.12        2955.75           2225          86.00       370.54
  999.15        2956.00           2229          80.00       344.38
  999.18        2956.25           2232          85.00       366.18
  999.21        2956.50           2236          91.00       392.33
  999.24        2956.75           2239          86.00       370.54
  999.27        2957.00           2243          85.00       366.18
  999.30        2957.25           2246          85.00       366.18
  999.33        2957.50           2250          84.00       361.82
  999.37        2957.75           2254          91.00       392.33
  999.40        2958.00           2257          93.00       401.05
  999.43        2958.25           2261          99.00       427.21
  999.46        2958.50           2264          93.00       401.05
  999.49        2958.75           2268          94.00       405.41
  999.52        2959.00           2271         100.00       431.57
  999.55        2959.25           2275         125.00       540.55
  999.58        2959.50           2278         110.00       475.16
  999.61        2959.75           2282          95.00       409.77
  999.64        2960.00           2285         104.00       449.00
  999.67        2960.25           2289         144.00       623.38
  999.70        2960.50           2293         104.00       449.00
  999.73        2960.75           2296         144.00       623.38
  999.76        2961.00           2300         166.00       719.29
  999.79        2961.25           2303         283.00      1229.35
  999.82        2961.50           2307         952.00      4146.18
  999.85        2961.75           2310        1848.00      8053.64
  999.89        2962.00           2314        3137.00     13676.80
  999.92        2962.25           2317        4223.00     18416.06
  999.95        2962.50           2321        5497.00     23977.69
  999.98        2962.75           2324        6588.00     28742.11
 1000.01        2963.00           2328        8194.00     35758.36
 1000.04        2963.25           2331        9145.00     39914.64
 1000.07        2963.50           2335       10703.00     46726.32
 1000.10        2963.75           2339       12166.00     53125.52
 1000.13        2964.00           2342       13329.00     58214.50
 1000.16        2964.25           2346       14682.00     64137.10
 1000.19        2964.50           2349       15757.00     68844.48
 1000.22        2964.75           2353       16996.00     74271.90
 1000.25        2965.00           2356       17978.00     78574.95
 1000.28        2965.25           2360       19494.00     85220.41
 1000.31        2965.50           2363       20451.00     89417.03
 1000.34        2965.75           2367       21686.00     94834.50
 1000.37        2966.00           2370       22547.00     98612.56
 1000.41        2966.25           2374       23585.00    103168.60
 1000.44        2966.50           2378       23887.00    104494.40
 1000.47        2966.75           2381       24000.00    104990.50
 1000.50        2967.00           2385       24155.00    105671.10
 1000.53        2967.25           2388       23928.00    104674.40
 1000.56        2967.50           2392       24033.00    105135.40
 1000.59        2967.75           2395       23839.00    104283.70
 1000.62        2968.00           2399       23268.00    101777.00
 1000.65        2968.25           2402       22141.00     96830.91
 1000.68        2968.50           2406       20809.00     90987.24
 1000.71        2968.75           2409       19804.00     86579.69
 1000.74        2969.00           2413       18351.00     80209.73
 1000.77        2969.25           2417       17054.00     74526.01
 1000.80        2969.50           2420       16433.00     71805.44
 1000.83        2969.75           2424       14882.00     65012.78
 1000.86        2970.00           2427       13475.00     58853.49
 1000.89        2970.25           2431       12030.00     52530.53
 1000.93        2970.50           2434       11022.00     48121.39
 1000.96        2970.75           2438        9622.00     41999.78
 1000.99        2971.00           2441        8463.00     36933.89
 1001.02        2971.25           2445        6900.00     30104.91
 1001.05        2971.50           2449        5623.00     24527.86
 1001.08        2971.75           2452        4695.00     20476.33
 1001.11        2972.00           2456        3398.00     14815.66
 1001.14        2972.25           2459        2385.00     10396.00
 1001.17        2972.50           2463        1160.00      5053.18
 1001.20        2972.75           2466         524.00      2280.04
 1001.23        2973.00           2470         210.00       911.10
 1001.26        2973.25           2473         144.00       623.38
 1001.29        2973.50           2477         141.00       610.30
 1001.32        2973.75           2481         116.00       501.32
 1001.35        2974.00           2484         129.00       557.99
 1001.38        2974.25           2488         107.00       462.08
 1001.41        2974.50           2491         129.00       557.99
 1001.45        2974.75           2495         102.00       440.29
 1001.48        2975.00           2498         101.00       435.93
 1001.51        2975.25           2502         114.00       492.60
 1001.54        2975.50           2505         135.00       584.14
 1001.57        2975.75           2509         101.00       435.93
 1001.60        2976.00           2512          97.00       418.49
 1001.63        2976.25           2516          97.00       418.49
 1001.66        2976.50           2520          96.00       414.13
 1001.69        2976.75           2523          92.00       396.69
 1001.72        2977.00           2527          95.00       409.77
 1001.75        2977.25           2530          87.00       374.90
 1001.78        2977.50           2534         107.00       462.08
 1001.81        2977.75           2537         109.00       470.80
 1001.84        2978.00           2541          86.00       370.54
 1001.87        2978.25           2544          82.00       353.10
 1001.90        2978.50           2548          85.00       366.18
 1001.93        2978.75           2552          90.00       387.97
 1001.97        2979.00           2555          83.00       357.46
 1002.00        2979.25           2559          83.00       357.46
 1002.03        2979.50           2562          84.00       361.82
 1002.06        2979.75           2566          92.00       396.69
 1002.09        2980.00           2569          82.00       353.10
 1002.12        2980.25           2573          90.00       387.97
 1002.15        2980.50           2577          82.00       353.10
 1002.18        2980.75           2580          80.00       344.38
 1002.21        2981.00           2584          84.00       361.82
 1002.24        2981.25           2587          84.00       361.82
 1002.27        2981.50           2591          88.00       379.26
 1002.30        2981.75           2594          84.00       361.82
 1002.33        2982.00           2598          78.00       335.66
 1002.36        2982.25           2601          78.00       335.66
 1002.39        2982.50           2605          75.00       322.58
 1002.42        2982.75           2609          87.00       374.90
 1002.45        2983.00           2612          75.00       322.58
 1002.48        2983.25           2616          83.00       357.46
 1002.52        2983.50           2619          81.00       348.74
 1002.55        2983.75           2623          74.00       318.22
 1002.58        2984.00           2626          78.00       335.66
HS scan finished at 16:42:48
end
