************************************************************
  HS Scan of (1) Internal mercury lamp
************************************************************
Integration time is 0.2294 seconds per sample
dh171218Reading 51.44 .94 2.49pr1000
************************************************************
Dead Time -------------------------  3.4E-08 
Number of Cycles Used -------------  4 
Starting Wavelength (Angstroms) ---  2950 
Final Wavelength (Angstoms) -------  2984 
Wavelength Increment (Angstroms) --  .25 
Filter Wheel #1 Position ---------- (1) Ground quartz diffuser (ND=2.32)
Filter Wheel #2 Position ---------- (1) Neutral Density 0.494



************************************************************
HS scan start time = 05:13:41
Dark Count =  .1 


Time (GMT)  Wavelength (Ang)  Step Number  Raw Counts  Counts/Second

  314.58        2950.00           2144        1630.00      7106.77
  314.77        2950.25           2147        1617.00      7050.08
  314.80        2950.50           2151        1678.00      7316.12
  314.84        2950.75           2155        1623.00      7076.24
  314.87        2951.00           2158        1652.00      7202.72
  314.90        2951.25           2162        1683.00      7337.93
  314.93        2951.50           2165        1636.00      7132.94
  314.96        2951.75           2169        1647.00      7180.92
  314.99        2952.00           2172        1635.00      7128.58
  315.02        2952.25           2176        1663.00      7250.70
  315.05        2952.50           2179        1664.00      7255.06
  315.08        2952.75           2183        1650.00      7194.00
  315.11        2953.00           2186        1705.00      7433.88
  315.14        2953.25           2190        1653.00      7207.08
  315.17        2953.50           2193        1656.00      7220.17
  315.20        2953.75           2197        1666.00      7263.78
  315.23        2954.00           2200        1722.00      7508.02
  315.26        2954.25           2204        1696.00      7394.62
  315.29        2954.50           2208        1714.00      7473.13
  315.32        2954.75           2211        1707.00      7442.60
  315.36        2955.00           2215        1754.00      7647.59
  315.39        2955.25           2218        1727.00      7529.83
  315.42        2955.50           2222        1714.00      7473.13
  315.45        2955.75           2225        1756.00      7656.31
  315.48        2956.00           2229        1774.00      7734.82
  315.51        2956.25           2232        1718.00      7490.57
  315.54        2956.50           2236        1746.00      7612.70
  315.57        2956.75           2239        1771.00      7721.73
  315.60        2957.00           2243        1767.00      7704.29
  315.63        2957.25           2246        1786.00      7787.15
  315.66        2957.50           2250        1831.00      7983.42
  315.69        2957.75           2254        1810.00      7891.83
  315.72        2958.00           2257        1798.00      7839.49
  315.76        2958.25           2261        1823.00      7948.53
  315.79        2958.50           2264        1832.00      7987.78
  315.82        2958.75           2268        1855.00      8088.10
  315.85        2959.00           2271        1874.00      8170.97
  315.88        2959.25           2275        1913.00      8341.07
  315.91        2959.50           2278        1909.00      8323.63
  315.94        2959.75           2282        1951.00      8506.82
  315.97        2960.00           2285        1933.00      8428.31
  316.00        2960.25           2289        1993.00      8690.01
  316.03        2960.50           2293        1995.00      8698.74
  316.07        2960.75           2296        2068.00      9017.15
  316.10        2961.00           2300        2122.00      9252.69
  316.13        2961.25           2303        2656.00     11582.15
  316.16        2961.50           2307        7425.00     32402.29
  316.19        2961.75           2310       15923.00     69575.47
  316.22        2962.00           2314       31874.00    139605.70
  316.25        2962.25           2317       45959.00    201722.80
  316.28        2962.50           2321       66273.00    291777.00
  316.31        2962.75           2324       80903.00    356978.30
  316.34        2963.00           2328       99369.00    439693.10
  316.37        2963.25           2331      114254.00    506710.30
  316.40        2963.50           2335      135865.00    604562.00
  316.43        2963.75           2339      156288.00    697643.20
  316.46        2964.00           2342      171600.00    767823.40
  316.49        2964.25           2346      194706.00    874373.00
  316.52        2964.50           2349      210178.00    946160.20
  316.55        2964.75           2353      230997.00   1043322.00
  316.59        2965.00           2356      244733.00   1107788.00
  316.62        2965.25           2360      263590.00   1196759.00
  316.65        2965.50           2363      277695.00   1263671.00
  316.68        2965.75           2367      295380.00   1348007.00
  316.71        2966.00           2370      308427.00   1410545.00
  316.74        2966.25           2374      326909.00   1499604.00
  316.77        2966.50           2378      338517.00   1555823.00
  316.80        2966.75           2381      341232.00   1569004.00
  316.83        2967.00           2385      342096.00   1573202.00
  316.86        2967.25           2388      341711.00   1571331.00
  316.89        2967.50           2392      342145.00   1573440.00
  316.92        2967.75           2395      341220.00   1568946.00
  316.95        2968.00           2399      332921.00   1528693.00
  316.98        2968.25           2402      322968.00   1480567.00
  317.01        2968.50           2406      305674.00   1397327.00
  317.04        2968.75           2409      291805.00   1330919.00
  317.07        2969.00           2413      274597.00   1248948.00
  317.10        2969.25           2417      257219.00   1166638.00
  317.14        2969.50           2420      241558.00   1092861.00
  317.17        2969.75           2424      220293.00    993285.20
  317.20        2970.00           2427      204539.00    919955.00
  317.23        2970.25           2431      183663.00    823352.30
  317.26        2970.50           2434      169734.00    759252.70
  317.29        2970.75           2438      150940.00    673211.20
  317.32        2971.00           2441      136233.00    606234.00
  317.35        2971.25           2445      115466.00    512180.70
  317.38        2971.50           2449       95495.00    422301.40
  317.41        2971.75           2452       80698.00    356062.70
  317.44        2972.00           2456       60963.00    268183.60
  317.47        2972.25           2459       45379.00    199159.70
  317.50        2972.50           2463       25764.00    112741.30
  317.53        2972.75           2466       14784.00     64587.63
  317.56        2973.00           2470        5828.00     25426.94
  317.59        2973.25           2473        3117.00     13593.47
  317.62        2973.50           2477        2173.00      9475.15
  317.66        2973.75           2481        2056.00      8964.81
  317.69        2974.00           2484        1983.00      8646.39
  317.72        2974.25           2488        1978.00      8624.59
  317.75        2974.50           2491        1946.00      8485.01
  317.78        2974.75           2495        1931.00      8419.59
  317.81        2975.00           2498        1861.00      8114.27
  317.84        2975.25           2502        1833.00      7992.15
  317.87        2975.50           2505        1839.00      8018.32
  317.90        2975.75           2509        1832.00      7987.78
  317.93        2976.00           2512        1777.00      7747.90
  317.96        2976.25           2516        1762.00      7682.48
  317.99        2976.50           2520        1770.00      7717.37
  318.02        2976.75           2523        1768.00      7708.65
  318.05        2977.00           2527        1726.00      7525.47
  318.08        2977.25           2530        1725.00      7521.10
  318.11        2977.50           2534        1706.00      7438.24
  318.14        2977.75           2537        1666.00      7263.78
  318.18        2978.00           2541        1683.00      7337.93
  318.21        2978.25           2544        1678.00      7316.12
  318.24        2978.50           2548        1668.00      7272.50
  318.27        2978.75           2552        1643.00      7163.47
  318.30        2979.00           2555        1617.00      7050.08
  318.33        2979.25           2559        1629.00      7102.41
  318.36        2979.50           2562        1560.00      6801.49
  318.39        2979.75           2566        1623.00      7076.24
  318.42        2980.00           2569        1589.00      6927.96
  318.45        2980.25           2573        1597.00      6962.85
  318.48        2980.50           2577        1552.00      6766.60
  318.51        2980.75           2580        1575.00      6866.90
  318.54        2981.00           2584        1593.00      6945.41
  318.57        2981.25           2587        1513.00      6596.51
  318.60        2981.50           2591        1574.00      6862.54
  318.63        2981.75           2594        1553.00      6770.96
  318.66        2982.00           2598        1550.00      6757.87
  318.70        2982.25           2601        1540.00      6714.26
  318.73        2982.50           2605        1515.00      6605.23
  318.76        2982.75           2609        1501.00      6544.18
  318.79        2983.00           2612        1514.00      6600.87
  318.82        2983.25           2616        1566.00      6827.65
  318.85        2983.50           2619        1545.00      6736.07
  318.88        2983.75           2623        1505.00      6561.62
  318.91        2984.00           2626        1521.00      6631.40
HS scan finished at 05:19:08
end
************************************************************
  HS Scan of (1) Internal mercury lamp
************************************************************
Integration time is 0.2294 seconds per sample
dh171218Reading 51.44 .94 3.01pr1000
************************************************************
Dead Time -------------------------  3.4E-08 
Number of Cycles Used -------------  4 
Starting Wavelength (Angstroms) ---  2950 
Final Wavelength (Angstoms) -------  2984 
Wavelength Increment (Angstroms) --  .25 
Filter Wheel #1 Position ---------- (1) Ground quartz diffuser (ND=2.32)
Filter Wheel #2 Position ---------- (1) Neutral Density 0.494



************************************************************
HS scan start time = 16:37:23
Dark Count =  1 


Time (GMT)  Wavelength (Ang)  Step Number  Raw Counts  Counts/Second

  998.28        2950.00           2144        1213.00      5284.30
  998.48        2950.25           2147        1228.00      5349.71
  998.51        2950.50           2151        1218.00      5306.10
  998.54        2950.75           2155        1211.00      5275.58
  998.57        2951.00           2158        1208.00      5262.49
  998.60        2951.25           2162        1239.00      5397.68
  998.63        2951.50           2165        1221.00      5319.18
  998.66        2951.75           2169        1247.00      5432.56
  998.69        2952.00           2172        1252.00      5454.37
  998.72        2952.25           2176        1240.00      5402.04
  998.75        2952.50           2179        1211.00      5275.58
  998.78        2952.75           2183        1241.00      5406.40
  998.81        2953.00           2186        1225.00      5336.63
  998.84        2953.25           2190        1283.00      5589.55
  998.87        2953.50           2193        1259.00      5484.89
  998.90        2953.75           2197        1257.00      5476.17
  998.93        2954.00           2200        1317.00      5737.82
  998.97        2954.25           2204        1250.00      5445.65
  999.00        2954.50           2208        1284.00      5593.92
  999.03        2954.75           2211        1278.00      5567.75
  999.06        2955.00           2215        1318.00      5742.19
  999.09        2955.25           2218        1307.00      5694.22
  999.12        2955.50           2222        1263.00      5502.34
  999.15        2955.75           2225        1308.00      5698.58
  999.18        2956.00           2229        1297.00      5650.61
  999.21        2956.25           2232        1329.00      5790.16
  999.24        2956.50           2236        1318.00      5742.19
  999.27        2956.75           2239        1349.00      5877.37
  999.30        2957.00           2243        1372.00      5977.68
  999.33        2957.25           2246        1364.00      5942.79
  999.36        2957.50           2250        1365.00      5947.15
  999.39        2957.75           2254        1353.00      5894.82
  999.42        2958.00           2257        1400.00      6099.78
  999.45        2958.25           2261        1418.00      6178.28
  999.49        2958.50           2264        1395.00      6077.98
  999.52        2958.75           2268        1411.00      6147.75
  999.55        2959.00           2271        1446.00      6300.39
  999.58        2959.25           2275        1482.00      6457.39
  999.61        2959.50           2278        1440.00      6274.22
  999.64        2959.75           2282        1465.00      6383.25
  999.67        2960.00           2285        1549.00      6749.59
  999.70        2960.25           2289        1548.00      6745.23
  999.73        2960.50           2293        1571.00      6845.53
  999.76        2960.75           2296        1578.00      6876.06
  999.79        2961.00           2300        1659.00      7229.33
  999.82        2961.25           2303        1852.00      8071.09
  999.85        2961.50           2307        3958.00     17259.47
  999.88        2961.75           2310        9257.00     40404.21
  999.91        2962.00           2314       22996.00    100583.20
  999.94        2962.25           2317       36206.00    158678.50
  999.97        2962.50           2321       53152.00    233542.90
 1000.01        2962.75           2324       66102.00    291012.50
 1000.04        2963.00           2328       83332.00    367827.80
 1000.07        2963.25           2331       96274.00    425792.90
 1000.10        2963.50           2335      113697.00    504192.90
 1000.13        2963.75           2339      131352.00    584069.30
 1000.16        2964.00           2342      145906.00    650247.00
 1000.19        2964.25           2346      165172.00    738316.20
 1000.22        2964.50           2349      179450.00    803930.50
 1000.25        2964.75           2353      197310.00    886425.90
 1000.28        2965.00           2356      210908.00    949551.80
 1000.31        2965.25           2360      228840.00   1033221.00
 1000.34        2965.50           2363      242340.00   1096532.00
 1000.37        2965.75           2367      260101.00   1180252.00
 1000.40        2966.00           2370      272638.00   1239641.00
 1000.43        2966.25           2374      287985.00   1312677.00
 1000.46        2966.50           2378      302177.00   1380549.00
 1000.49        2966.75           2381      307143.00   1404374.00
 1000.53        2967.00           2385      309949.00   1417854.00
 1000.56        2967.25           2388      309746.00   1416878.00
 1000.59        2967.50           2392      310513.00   1420565.00
 1000.62        2967.75           2395      309889.00   1417566.00
 1000.65        2968.00           2399      307099.00   1404163.00
 1000.68        2968.25           2402      299889.00   1369585.00
 1000.71        2968.50           2406      286650.00   1306309.00
 1000.74        2968.75           2409      274691.00   1249390.00
 1000.77        2969.00           2413      257923.00   1169959.00
 1000.80        2969.25           2417      239143.00   1081514.00
 1000.83        2969.50           2420      224287.00   1011931.00
 1000.86        2969.75           2424      205969.00    926591.80
 1000.89        2970.00           2427      192977.00    866368.70
 1000.92        2970.25           2431      174858.00    782795.70
 1000.95        2970.50           2434      162142.00    724430.00
 1000.98        2970.75           2438      143509.00    639327.00
 1001.01        2971.00           2441      128369.00    570542.60
 1001.05        2971.25           2445      109688.00    486115.80
 1001.08        2971.50           2449       90397.00    399442.20
 1001.11        2971.75           2452       76982.00    339471.10
 1001.14        2972.00           2456       58702.00    258145.10
 1001.17        2972.25           2459       45621.00    200225.10
 1001.20        2972.50           2463       28157.00    123253.00
 1001.23        2972.75           2466       15999.00     69904.40
 1001.26        2973.00           2470        5187.00     22624.20
 1001.29        2973.25           2473        2543.00     11085.26
 1001.32        2973.50           2477        1715.00      7473.56
 1001.35        2973.75           2481        1601.00      6976.37
 1001.38        2974.00           2484        1632.00      7111.57
 1001.41        2974.25           2488        1562.00      6806.28
 1001.44        2974.50           2491        1513.00      6592.58
 1001.47        2974.75           2495        1489.00      6487.92
 1001.50        2975.00           2498        1526.00      6649.28
 1001.53        2975.25           2502        1478.00      6439.95
 1001.56        2975.50           2505        1473.00      6418.14
 1001.60        2975.75           2509        1413.00      6156.48
 1001.63        2976.00           2512        1412.00      6152.12
 1001.66        2976.25           2516        1410.00      6143.39
 1001.69        2976.50           2520        1351.00      5886.10
 1001.72        2976.75           2523        1392.00      6064.90
 1001.75        2977.00           2527        1360.00      5925.34
 1001.78        2977.25           2530        1332.00      5803.24
 1001.81        2977.50           2534        1343.00      5851.21
 1001.84        2977.75           2537        1295.00      5641.88
 1001.87        2978.00           2541        1294.00      5637.52
 1001.90        2978.25           2544        1309.00      5702.94
 1001.93        2978.50           2548        1317.00      5737.82
 1001.96        2978.75           2552        1311.00      5711.66
 1001.99        2979.00           2555        1292.00      5628.80
 1002.02        2979.25           2559        1254.00      5463.09
 1002.05        2979.50           2562        1270.00      5532.86
 1002.08        2979.75           2566        1199.00      5223.25
 1002.12        2980.00           2569        1260.00      5489.26
 1002.15        2980.25           2573        1246.00      5428.20
 1002.18        2980.50           2577        1204.00      5245.05
 1002.21        2980.75           2580        1186.00      5166.56
 1002.24        2981.00           2584        1210.00      5271.22
 1002.27        2981.25           2587        1224.00      5332.27
 1002.30        2981.50           2591        1192.00      5192.72
 1002.33        2981.75           2594        1200.00      5227.61
 1002.36        2982.00           2598        1166.00      5079.34
 1002.39        2982.25           2601        1179.00      5136.03
 1002.43        2982.50           2605        1170.00      5096.79
 1002.46        2982.75           2609        1169.00      5092.43
 1002.49        2983.00           2612        1169.00      5092.43
 1002.52        2983.25           2616        1184.00      5157.84
 1002.55        2983.50           2619        1197.00      5214.53
 1002.58        2983.75           2623        1157.00      5040.10
 1002.61        2984.00           2626        1161.00      5057.54
HS scan finished at 16:42:50
end
