************************************************************
  HS Scan of (1) Internal mercury lamp
************************************************************
Integration time is 0.2294 seconds per sample
dh221217Reading 51.44 .94 3.03pr1000
************************************************************
Dead Time -------------------------  3.4E-08 
Number of Cycles Used -------------  4 
Starting Wavelength (Angstroms) ---  2950 
Final Wavelength (Angstoms) -------  2984 
Wavelength Increment (Angstroms) --  .25 
Filter Wheel #1 Position ---------- (1) Ground quartz diffuser (ND=2.32)
Filter Wheel #2 Position ---------- (1) Neutral Density 0.494



************************************************************
HS scan start time = 05:13:39
Dark Count =  1.1 


Time (GMT)  Wavelength (Ang)  Step Number  Raw Counts  Counts/Second

  314.54        2950.00           2144          93.00       400.62
  314.74        2950.25           2147          76.00       326.51
  314.77        2950.50           2151          81.00       348.30
  314.80        2950.75           2155          89.00       383.18
  314.83        2951.00           2158          84.00       361.38
  314.86        2951.25           2162          86.00       370.10
  314.89        2951.50           2165          85.00       365.74
  314.92        2951.75           2169          91.00       391.90
  314.95        2952.00           2172          84.00       361.38
  314.98        2952.25           2176          85.00       365.74
  315.01        2952.50           2179          87.00       374.46
  315.04        2952.75           2183          86.00       370.10
  315.07        2953.00           2186          85.00       365.74
  315.10        2953.25           2190          75.00       322.15
  315.13        2953.50           2193          84.00       361.38
  315.16        2953.75           2197          87.00       374.46
  315.19        2954.00           2200          96.00       413.69
  315.23        2954.25           2204          88.00       378.82
  315.26        2954.50           2208          93.00       400.62
  315.29        2954.75           2211          85.00       365.74
  315.32        2955.00           2215          90.00       387.54
  315.35        2955.25           2218          93.00       400.62
  315.38        2955.50           2222          93.00       400.62
  315.41        2955.75           2225          93.00       400.62
  315.44        2956.00           2229          97.00       418.05
  315.47        2956.25           2232         101.00       435.49
  315.50        2956.50           2236          95.00       409.33
  315.53        2956.75           2239          97.00       418.05
  315.56        2957.00           2243         124.00       535.76
  315.59        2957.25           2246          89.00       383.18
  315.62        2957.50           2250         115.00       496.52
  315.65        2957.75           2254          98.00       422.41
  315.68        2958.00           2257         117.00       505.24
  315.71        2958.25           2261          97.00       418.05
  315.75        2958.50           2264          98.00       422.41
  315.78        2958.75           2268          95.00       409.33
  315.81        2959.00           2271          98.00       422.41
  315.84        2959.25           2275         105.00       452.93
  315.87        2959.50           2278         110.00       474.72
  315.90        2959.75           2282         124.00       535.76
  315.93        2960.00           2285         103.00       444.21
  315.96        2960.25           2289         134.00       579.35
  315.99        2960.50           2293         147.00       636.02
  316.02        2960.75           2296         114.00       492.16
  316.05        2961.00           2300         130.00       561.91
  316.08        2961.25           2303         190.00       823.48
  316.11        2961.50           2307         722.00      3142.88
  316.14        2961.75           2310        1522.00      6631.40
  316.17        2962.00           2314        2896.00     12624.86
  316.20        2962.25           2317        3910.00     17049.55
  316.23        2962.50           2321        5366.00     23405.28
  316.27        2962.75           2324        6493.00     28326.75
  316.30        2963.00           2328        8119.00     35430.18
  316.33        2963.25           2331        9384.00     40958.92
  316.36        2963.50           2335       10976.00     47919.78
  316.39        2963.75           2339       12910.00     56380.43
  316.42        2964.00           2342       14124.00     61693.79
  316.45        2964.25           2346       15733.00     68738.93
  316.48        2964.50           2349       16827.00     73531.03
  316.51        2964.75           2353       18838.00     82344.00
  316.54        2965.00           2356       19780.00     86474.02
  316.57        2965.25           2360       21565.00     94303.19
  316.60        2965.50           2363       22788.00     99669.79
  316.63        2965.75           2367       24326.00    106421.40
  316.66        2966.00           2370       25495.00    111555.30
  316.69        2966.25           2374       26350.00    115311.30
  316.72        2966.50           2378       27418.00    120004.30
  316.75        2966.75           2381       27612.00    120857.00
  316.79        2967.00           2385       27658.00    121059.20
  316.82        2967.25           2388       27828.00    121806.40
  316.85        2967.50           2392       27679.00    121151.50
  316.88        2967.75           2395       27690.00    121199.80
  316.91        2968.00           2399       27057.00    118417.90
  316.94        2968.25           2402       25934.00    113483.70
  316.97        2968.50           2406       24219.00    105951.60
  317.00        2968.75           2409       23081.00    100955.80
  317.03        2969.00           2413       21172.00     92579.09
  317.06        2969.25           2417       19837.00     86723.96
  317.09        2969.50           2420       18558.00     81116.61
  317.12        2969.75           2424       17181.00     75082.02
  317.15        2970.00           2427       16075.00     70236.84
  317.18        2970.25           2431       14493.00     63309.19
  317.21        2970.50           2434       13181.00     57566.36
  317.24        2970.75           2438       11370.00     49643.01
  317.27        2971.00           2441       10026.00     43765.61
  317.31        2971.25           2445        8360.00     36483.33
  317.34        2971.50           2449        6771.00     29540.99
  317.37        2971.75           2452        5644.00     24619.12
  317.40        2972.00           2456        4190.00     18271.59
  317.43        2972.25           2459        3108.00     13549.83
  317.46        2972.50           2463        1755.00      7647.59
  317.49        2972.75           2466         914.00      3980.05
  317.52        2973.00           2470         299.00      1298.66
  317.55        2973.25           2473         154.00       666.54
  317.58        2973.50           2477         129.00       557.55
  317.61        2973.75           2481         146.00       631.66
  317.64        2974.00           2484         142.00       614.22
  317.67        2974.25           2488         138.00       596.79
  317.70        2974.50           2491         113.00       487.80
  317.73        2974.75           2495         110.00       474.72
  317.76        2975.00           2498         110.00       474.72
  317.79        2975.25           2502         125.00       540.11
  317.83        2975.50           2505         161.00       697.05
  317.86        2975.75           2509         124.00       535.76
  317.89        2976.00           2512         134.00       579.35
  317.92        2976.25           2516         124.00       535.76
  317.95        2976.50           2520         116.00       500.88
  317.98        2976.75           2523         104.00       448.57
  318.01        2977.00           2527         114.00       492.16
  318.04        2977.25           2530          98.00       422.41
  318.07        2977.50           2534         103.00       444.21
  318.10        2977.75           2537          96.00       413.69
  318.13        2978.00           2541          95.00       409.33
  318.16        2978.25           2544          92.00       396.26
  318.19        2978.50           2548          93.00       400.62
  318.22        2978.75           2552          85.00       365.74
  318.25        2979.00           2555          95.00       409.33
  318.28        2979.25           2559          90.00       387.54
  318.31        2979.50           2562          93.00       400.62
  318.34        2979.75           2566          99.00       426.77
  318.38        2980.00           2569          91.00       391.90
  318.41        2980.25           2573          88.00       378.82
  318.44        2980.50           2577          94.00       404.98
  318.47        2980.75           2580          95.00       409.33
  318.50        2981.00           2584          93.00       400.62
  318.53        2981.25           2587          82.00       352.66
  318.56        2981.50           2591          81.00       348.30
  318.59        2981.75           2594          86.00       370.10
  318.62        2982.00           2598          81.00       348.30
  318.65        2982.25           2601          87.00       374.46
  318.68        2982.50           2605         108.00       466.01
  318.71        2982.75           2609          79.00       339.59
  318.74        2983.00           2612          76.00       326.51
  318.77        2983.25           2616          81.00       348.30
  318.80        2983.50           2619          91.00       391.90
  318.83        2983.75           2623          88.00       378.82
  318.86        2984.00           2626          80.00       343.94
HS scan finished at 05:19:05
end
************************************************************
  HS Scan of (1) Internal mercury lamp
************************************************************
Integration time is 0.2294 seconds per sample
dh221217Reading 51.44 .94 3.29pr1000
************************************************************
Dead Time -------------------------  3.4E-08 
Number of Cycles Used -------------  4 
Starting Wavelength (Angstroms) ---  2950 
Final Wavelength (Angstoms) -------  2984 
Wavelength Increment (Angstroms) --  .25 
Filter Wheel #1 Position ---------- (1) Ground quartz diffuser (ND=2.32)
Filter Wheel #2 Position ---------- (1) Neutral Density 0.494



************************************************************
HS scan start time = 17:07:26
Dark Count =  1.7 


Time (GMT)  Wavelength (Ang)  Step Number  Raw Counts  Counts/Second

 1028.32        2950.00           2144          67.00       284.66
 1028.52        2950.25           2147          76.00       323.89
 1028.55        2950.50           2151          69.00       293.38
 1028.58        2950.75           2155          62.00       262.86
 1028.61        2951.00           2158          65.00       275.94
 1028.64        2951.25           2162          74.00       315.17
 1028.67        2951.50           2165          73.00       310.81
 1028.70        2951.75           2169          68.00       289.02
 1028.73        2952.00           2172          71.00       302.10
 1028.76        2952.25           2176          73.00       310.81
 1028.79        2952.50           2179          70.00       297.74
 1028.82        2952.75           2183          66.00       280.30
 1028.85        2953.00           2186          74.00       315.17
 1028.88        2953.25           2190          71.00       302.10
 1028.92        2953.50           2193          64.00       271.58
 1028.95        2953.75           2197          79.00       336.97
 1028.98        2954.00           2200          73.00       310.81
 1029.01        2954.25           2204          71.00       302.10
 1029.04        2954.50           2208          70.00       297.74
 1029.07        2954.75           2211          75.00       319.53
 1029.10        2955.00           2215          75.00       319.53
 1029.13        2955.25           2218          70.00       297.74
 1029.16        2955.50           2222          79.00       336.97
 1029.19        2955.75           2225          85.00       363.13
 1029.22        2956.00           2229          76.00       323.89
 1029.25        2956.25           2232          80.00       341.33
 1029.28        2956.50           2236          82.00       350.05
 1029.31        2956.75           2239          77.00       328.25
 1029.34        2957.00           2243          82.00       350.05
 1029.37        2957.25           2246          76.00       323.89
 1029.40        2957.50           2250          85.00       363.13
 1029.44        2957.75           2254          82.00       350.05
 1029.47        2958.00           2257          86.00       367.49
 1029.50        2958.25           2261          84.00       358.77
 1029.53        2958.50           2264          78.00       332.61
 1029.56        2958.75           2268          81.00       345.69
 1029.59        2959.00           2271          86.00       367.49
 1029.62        2959.25           2275          89.00       380.56
 1029.65        2959.50           2278          78.00       332.61
 1029.68        2959.75           2282          93.00       398.00
 1029.71        2960.00           2285          84.00       358.77
 1029.74        2960.25           2289          99.00       424.16
 1029.77        2960.50           2293         101.00       432.87
 1029.80        2960.75           2296          97.00       415.44
 1029.83        2961.00           2300         149.00       642.12
 1029.86        2961.25           2303         306.00      1326.56
 1029.89        2961.50           2307        1017.00      4426.56
 1029.92        2961.75           2310        1872.00      8155.27
 1029.96        2962.00           2314        3115.00     13577.76
 1029.99        2962.25           2317        4146.00     18076.93
 1030.02        2962.50           2321        5465.00     23834.92
 1030.05        2962.75           2324        6402.00     27926.68
 1030.08        2963.00           2328        7727.00     33714.74
 1030.11        2963.25           2331        8658.00     37783.03
 1030.14        2963.50           2335       10068.00     43946.61
 1030.17        2963.75           2339       11369.00     49636.01
 1030.20        2964.00           2342       12597.00     55008.19
 1030.23        2964.25           2346       13932.00     60850.70
 1030.26        2964.50           2349       14931.00     65224.26
 1030.29        2964.75           2353       16447.00     71863.69
 1030.32        2965.00           2356       17496.00     76459.65
 1030.35        2965.25           2360       18918.00     82692.06
 1030.38        2965.50           2363       20051.00     87659.75
 1030.41        2965.75           2367       21341.00     93317.84
 1030.44        2966.00           2370       22276.00     97420.24
 1030.48        2966.25           2374       23253.00    101708.10
 1030.51        2966.50           2378       23469.00    102656.30
 1030.54        2966.75           2381       23438.00    102520.20
 1030.57        2967.00           2385       23926.00    104662.60
 1030.60        2967.25           2388       23614.00    103292.80
 1030.63        2967.50           2392       23773.00    103990.80
 1030.66        2967.75           2395       23220.00    101563.30
 1030.69        2968.00           2399       22447.00     98170.63
 1030.72        2968.25           2402       21522.00     94111.91
 1030.75        2968.50           2406       20462.00     89462.21
 1030.78        2968.75           2409       19414.00     84866.59
 1030.81        2969.00           2413       18046.00     78869.90
 1030.84        2969.25           2417       16835.00     73563.46
 1030.87        2969.50           2420       15664.00     68434.11
 1030.90        2969.75           2424       14435.00     63052.64
 1030.93        2970.00           2427       13450.00     58741.00
 1030.96        2970.25           2431       12094.00     52807.46
 1031.00        2970.50           2434       10969.00     47886.54
 1031.03        2970.75           2438        9427.00     41144.27
 1031.06        2971.00           2441        8264.00     36061.18
 1031.09        2971.25           2445        6778.00     29568.95
 1031.12        2971.50           2449        5521.00     24079.43
 1031.15        2971.75           2452        4619.00     20141.51
 1031.18        2972.00           2456        3483.00     15183.51
 1031.21        2972.25           2459        2561.00     11160.73
 1031.24        2972.50           2463        1288.00      5608.31
 1031.27        2972.75           2466         613.00      2665.02
 1031.30        2973.00           2470         194.00       838.30
 1031.33        2973.25           2473         154.00       663.92
 1031.36        2973.50           2477         116.00       498.26
 1031.39        2973.75           2481         100.00       428.52
 1031.42        2974.00           2484          94.00       402.36
 1031.45        2974.25           2488         117.00       502.62
 1031.48        2974.50           2491          97.00       415.44
 1031.52        2974.75           2495          96.00       411.08
 1031.55        2975.00           2498          98.00       419.80
 1031.58        2975.25           2502          93.00       398.00
 1031.61        2975.50           2505          93.00       398.00
 1031.64        2975.75           2509          87.00       371.84
 1031.67        2976.00           2512          93.00       398.00
 1031.70        2976.25           2516          78.00       332.61
 1031.73        2976.50           2520          91.00       389.28
 1031.76        2976.75           2523          83.00       354.41
 1031.79        2977.00           2527          75.00       319.53
 1031.82        2977.25           2530          87.00       371.84
 1031.85        2977.50           2534          72.00       306.45
 1031.88        2977.75           2537          82.00       350.05
 1031.91        2978.00           2541          86.00       367.49
 1031.94        2978.25           2544          78.00       332.61
 1031.97        2978.50           2548          79.00       336.97
 1032.00        2978.75           2552          89.00       380.56
 1032.03        2979.00           2555          75.00       319.53
 1032.07        2979.25           2559          83.00       354.41
 1032.10        2979.50           2562          80.00       341.33
 1032.13        2979.75           2566          80.00       341.33
 1032.16        2980.00           2569          77.00       328.25
 1032.19        2980.25           2573          74.00       315.17
 1032.22        2980.50           2577          70.00       297.74
 1032.25        2980.75           2580          72.00       306.45
 1032.28        2981.00           2584          77.00       328.25
 1032.31        2981.25           2587          70.00       297.74
 1032.34        2981.50           2591          76.00       323.89
 1032.37        2981.75           2594          73.00       310.81
 1032.40        2982.00           2598          74.00       315.17
 1032.43        2982.25           2601          65.00       275.94
 1032.46        2982.50           2605          76.00       323.89
 1032.49        2982.75           2609          62.00       262.86
 1032.52        2983.00           2612          70.00       297.74
 1032.55        2983.25           2616          72.00       306.45
 1032.59        2983.50           2619          63.00       267.22
 1032.62        2983.75           2623          76.00       323.89
 1032.65        2984.00           2626          71.00       302.10
HS scan finished at 17:12:52
end
