************************************************************
  HS Scan of (1) Internal mercury lamp
************************************************************
Integration time is 0.2294 seconds per sample
dh241218Reading 51.44 .94 2.8pr1000
************************************************************
Dead Time -------------------------  3.4E-08 
Number of Cycles Used -------------  4 
Starting Wavelength (Angstroms) ---  2950 
Final Wavelength (Angstoms) -------  2984 
Wavelength Increment (Angstroms) --  .25 
Filter Wheel #1 Position ---------- (1) Ground quartz diffuser (ND=2.32)
Filter Wheel #2 Position ---------- (1) Neutral Density 0.494



************************************************************
HS scan start time = 05:14:28
Dark Count =  .5 


Time (GMT)  Wavelength (Ang)  Step Number  Raw Counts  Counts/Second

  315.36        2950.00           2144        1576.00      6869.52
  315.56        2950.25           2147        1604.00      6991.64
  315.59        2950.50           2151        1574.00      6860.80
  315.62        2950.75           2155        1589.00      6926.22
  315.65        2951.00           2158        1614.00      7035.25
  315.68        2951.25           2162        1599.00      6969.83
  315.71        2951.50           2165        1575.00      6865.16
  315.74        2951.75           2169        1581.00      6891.33
  315.77        2952.00           2172        1600.00      6974.19
  315.80        2952.25           2176        1596.00      6956.75
  315.83        2952.50           2179        1609.00      7013.44
  315.86        2952.75           2183        1590.00      6930.58
  315.89        2953.00           2186        1589.00      6926.22
  315.93        2953.25           2190        1601.00      6978.55
  315.96        2953.50           2193        1635.00      7126.84
  315.99        2953.75           2197        1661.00      7240.23
  316.02        2954.00           2200        1642.00      7157.37
  316.05        2954.25           2204        1616.00      7043.97
  316.08        2954.50           2208        1634.00      7122.47
  316.11        2954.75           2211        1661.00      7240.23
  316.14        2955.00           2215        1706.00      7436.49
  316.17        2955.25           2218        1639.00      7144.28
  316.20        2955.50           2222        1687.00      7353.63
  316.23        2955.75           2225        1673.00      7292.57
  316.26        2956.00           2229        1740.00      7584.78
  316.29        2956.25           2232        1708.00      7445.22
  316.32        2956.50           2236        1720.00      7497.55
  316.35        2956.75           2239        1716.00      7480.11
  316.38        2957.00           2243        1724.00      7515.00
  316.41        2957.25           2246        1723.00      7510.64
  316.45        2957.50           2250        1747.00      7615.31
  316.48        2957.75           2254        1787.00      7789.77
  316.51        2958.00           2257        1762.00      7680.73
  316.54        2958.25           2261        1800.00      7846.47
  316.57        2958.50           2264        1819.00      7929.34
  316.60        2958.75           2268        1875.00      8173.59
  316.63        2959.00           2271        1829.00      7972.95
  316.66        2959.25           2275        1834.00      7994.76
  316.69        2959.50           2278        1892.00      8247.74
  316.72        2959.75           2282        1919.00      8365.50
  316.75        2960.00           2285        1949.00      8496.35
  316.78        2960.25           2289        1924.00      8387.31
  316.81        2960.50           2293        1998.00      8710.08
  316.84        2960.75           2296        2034.00      8867.10
  316.87        2961.00           2300        2123.00      9255.31
  316.90        2961.25           2303        2423.00     10563.95
  316.93        2961.50           2307        5797.00     25289.83
  316.97        2961.75           2310       13496.00     58947.58
  317.00        2962.00           2314       29728.00    130162.80
  317.03        2962.25           2317       43962.00    192897.90
  317.06        2962.50           2321       65930.00    290250.00
  317.09        2962.75           2324       81511.00    359692.50
  317.12        2963.00           2328      104072.00    460832.50
  317.15        2963.25           2331      120149.00    533335.10
  317.18        2963.50           2335      142758.00    635909.60
  317.21        2963.75           2339      164156.00    733660.80
  317.24        2964.00           2342      181076.00    811423.80
  317.27        2964.25           2346      204496.00    919753.50
  317.30        2964.50           2349      222976.00   1005809.00
  317.33        2964.75           2353      245642.00   1112062.00
  317.36        2965.00           2356      261475.00   1186751.00
  317.39        2965.25           2360      282532.00   1286686.00
  317.42        2965.50           2363      297290.00   1357144.00
  317.45        2965.75           2367      318585.00   1459423.00
  317.48        2966.00           2370      335987.00   1543549.00
  317.52        2966.25           2374      354874.00   1635418.00
  317.55        2966.50           2378      369264.00   1705811.00
  317.58        2966.75           2381      374322.00   1730637.00
  317.61        2967.00           2385      376422.00   1740957.00
  317.64        2967.25           2388      376421.00   1740952.00
  317.67        2967.50           2392      376842.00   1743022.00
  317.70        2967.75           2395      375673.00   1737275.00
  317.73        2968.00           2399      369663.00   1707768.00
  317.76        2968.25           2402      358683.00   1654017.00
  317.79        2968.50           2406      341825.00   1571883.00
  317.82        2968.75           2409      327771.00   1503769.00
  317.85        2969.00           2413      308552.00   1411144.00
  317.88        2969.25           2417      287542.00   1310566.00
  317.91        2969.50           2420      270733.00   1230603.00
  317.94        2969.75           2424      247849.00   1122450.00
  317.97        2970.00           2427      231108.00   1043840.00
  318.00        2970.25           2431      205545.00    924624.70
  318.04        2970.50           2434      187814.00    842507.80
  318.07        2970.75           2438      166590.00    744821.60
  318.10        2971.00           2441      151143.00    674136.00
  318.13        2971.25           2445      128556.00    571392.40
  318.16        2971.50           2449      105552.00    467491.80
  318.19        2971.75           2452       87216.00    385201.70
  318.22        2972.00           2456       65486.00    288276.00
  318.25        2972.25           2459       50136.00    220192.90
  318.28        2972.50           2463       30170.00    132106.90
  318.31        2972.75           2466       16135.00     70502.28
  318.34        2973.00           2470        5184.00     22613.28
  318.37        2973.25           2473        2809.00     12247.91
  318.40        2973.50           2477        2119.00      9237.86
  318.43        2973.75           2481        2018.00      8797.31
  318.46        2974.00           2484        2024.00      8823.48
  318.49        2974.25           2488        1987.00      8662.10
  318.53        2974.50           2491        1930.00      8413.48
  318.56        2974.75           2495        1935.00      8435.29
  318.59        2975.00           2498        1884.00      8212.84
  318.62        2975.25           2502        1881.00      8199.76
  318.65        2975.50           2505        1830.00      7977.32
  318.68        2975.75           2509        1788.00      7794.13
  318.71        2976.00           2512        1815.00      7911.89
  318.74        2976.25           2516        1771.00      7719.99
  318.77        2976.50           2520        1803.00      7859.55
  318.80        2976.75           2523        1714.00      7471.38
  318.83        2977.00           2527        1712.00      7462.66
  318.86        2977.25           2530        1721.00      7501.91
  318.89        2977.50           2534        1697.00      7397.24
  318.92        2977.75           2537        1666.00      7262.04
  318.95        2978.00           2541        1660.00      7235.87
  318.98        2978.25           2544        1684.00      7340.54
  319.01        2978.50           2548        1636.00      7131.20
  319.04        2978.75           2552        1600.00      6974.19
  319.08        2979.00           2555        1634.00      7122.47
  319.11        2979.25           2559        1567.00      6830.27
  319.14        2979.50           2562        1576.00      6869.52
  319.17        2979.75           2566        1584.00      6904.41
  319.20        2980.00           2569        1554.00      6773.57
  319.23        2980.25           2573        1598.00      6965.47
  319.26        2980.50           2577        1604.00      6991.64
  319.29        2980.75           2580        1567.00      6830.27
  319.32        2981.00           2584        1569.00      6838.99
  319.35        2981.25           2587        1534.00      6686.35
  319.38        2981.50           2591        1497.00      6524.99
  319.41        2981.75           2594        1525.00      6647.10
  319.44        2982.00           2598        1509.00      6577.32
  319.47        2982.25           2601        1509.00      6577.32
  319.50        2982.50           2605        1507.00      6568.60
  319.53        2982.75           2609        1486.00      6477.02
  319.57        2983.00           2612        1507.00      6568.60
  319.60        2983.25           2616        1469.00      6402.88
  319.63        2983.50           2619        1480.00      6450.85
  319.66        2983.75           2623        1514.00      6599.13
  319.69        2984.00           2626        1458.00      6354.90
HS scan finished at 05:19:54
end
************************************************************
  HS Scan of (1) Internal mercury lamp
************************************************************
Integration time is 0.2294 seconds per sample
dh241218Reading 51.44 .94 2.72pr1000
************************************************************
Dead Time -------------------------  3.4E-08 
Number of Cycles Used -------------  4 
Starting Wavelength (Angstroms) ---  2950 
Final Wavelength (Angstoms) -------  2984 
Wavelength Increment (Angstroms) --  .25 
Filter Wheel #1 Position ---------- (1) Ground quartz diffuser (ND=2.32)
Filter Wheel #2 Position ---------- (1) Neutral Density 0.494



************************************************************
HS scan start time = 17:07:28
Dark Count =  .5 


Time (GMT)  Wavelength (Ang)  Step Number  Raw Counts  Counts/Second

 1028.36        2950.00           2144        1466.00      6389.79
 1028.55        2950.25           2147        1564.00      6817.19
 1028.58        2950.50           2151        1528.00      6660.18
 1028.61        2950.75           2155        1560.00      6799.74
 1028.64        2951.00           2158        1556.00      6782.30
 1028.67        2951.25           2162        1573.00      6856.44
 1028.71        2951.50           2165        1505.00      6559.88
 1028.74        2951.75           2169        1558.00      6791.02
 1028.77        2952.00           2172        1539.00      6708.16
 1028.80        2952.25           2176        1535.00      6690.71
 1028.83        2952.50           2179        1581.00      6891.33
 1028.86        2952.75           2183        1588.00      6921.86
 1028.89        2953.00           2186        1603.00      6987.27
 1028.92        2953.25           2190        1543.00      6725.60
 1028.95        2953.50           2193        1608.00      7009.08
 1028.98        2953.75           2197        1570.00      6843.35
 1029.01        2954.00           2200        1602.00      6982.91
 1029.04        2954.25           2204        1585.00      6908.77
 1029.07        2954.50           2208        1603.00      6987.27
 1029.10        2954.75           2211        1612.00      7026.53
 1029.13        2955.00           2215        1617.00      7048.33
 1029.16        2955.25           2218        1630.00      7105.03
 1029.19        2955.50           2222        1626.00      7087.58
 1029.23        2955.75           2225        1620.00      7061.42
 1029.26        2956.00           2229        1633.00      7118.11
 1029.29        2956.25           2232        1609.00      7013.44
 1029.32        2956.50           2236        1680.00      7323.10
 1029.35        2956.75           2239        1635.00      7126.84
 1029.38        2957.00           2243        1643.00      7161.73
 1029.41        2957.25           2246        1637.00      7135.56
 1029.44        2957.50           2250        1678.00      7314.37
 1029.47        2957.75           2254        1708.00      7445.22
 1029.50        2958.00           2257        1693.00      7379.79
 1029.53        2958.25           2261        1706.00      7436.49
 1029.56        2958.50           2264        1737.00      7571.70
 1029.59        2958.75           2268        1766.00      7698.18
 1029.63        2959.00           2271        1779.00      7754.88
 1029.67        2959.25           2275        1787.00      7789.77
 1029.70        2959.50           2278        1797.00      7833.39
 1029.73        2959.75           2282        1816.00      7916.25
 1029.76        2960.00           2285        1821.00      7938.06
 1029.79        2960.25           2289        1847.00      8051.46
 1029.82        2960.50           2293        1870.00      8151.78
 1029.85        2960.75           2296        1929.00      8409.12
 1029.88        2961.00           2300        1949.00      8496.35
 1029.91        2961.25           2303        2083.00      9080.83
 1029.94        2961.50           2307        2904.00     12662.38
 1029.97        2961.75           2310        6478.00     28263.85
 1030.01        2962.00           2314       19637.00     85849.61
 1030.04        2962.25           2317       33115.00    145066.40
 1030.07        2962.50           2321       52459.00    230476.00
 1030.10        2962.75           2324       68020.00    299545.70
 1030.13        2963.00           2328       87733.00    387515.60
 1030.16        2963.25           2331      103825.00    459721.40
 1030.19        2963.50           2335      126705.00    563004.60
 1030.22        2963.75           2339      148274.00    661045.20
 1030.25        2964.00           2342      164365.00    734618.70
 1030.28        2964.25           2346      184775.00    828479.90
 1030.31        2964.50           2349      200437.00    900920.40
 1030.34        2964.75           2353      220559.00    994524.60
 1030.37        2965.00           2356      233575.00   1055398.00
 1030.40        2965.25           2360      252402.00   1143904.00
 1030.43        2965.50           2363      266807.00   1211991.00
 1030.46        2965.75           2367      286777.00   1306917.00
 1030.49        2966.00           2370      302484.00   1382023.00
 1030.52        2966.25           2374      320594.00   1469110.00
 1030.56        2966.50           2378      334973.00   1538634.00
 1030.59        2966.75           2381      340798.00   1566895.00
 1030.62        2967.00           2385      342560.00   1575454.00
 1030.65        2967.25           2388      343672.00   1580859.00
 1030.68        2967.50           2392      343504.00   1580042.00
 1030.71        2967.75           2395      342965.00   1577422.00
 1030.74        2968.00           2399      340442.00   1565166.00
 1030.77        2968.25           2402      332652.00   1527389.00
 1030.80        2968.50           2406      318165.00   1457398.00
 1030.83        2968.75           2409      305298.00   1395520.00
 1030.86        2969.00           2413      285416.00   1300428.00
 1030.89        2969.25           2417      265669.00   1206600.00
 1030.92        2969.50           2420      250253.00   1133774.00
 1030.95        2969.75           2424      230535.00   1041157.00
 1030.98        2970.00           2427      216046.00    973478.10
 1031.01        2970.25           2431      197229.00    886053.10
 1031.05        2970.50           2434      182178.00    816503.10
 1031.08        2970.75           2438      162047.00    723997.10
 1031.11        2971.00           2441      145067.00    646426.10
 1031.14        2971.25           2445      123272.00    547460.90
 1031.17        2971.50           2449      101299.00    448363.40
 1031.20        2971.75           2452       86591.00    382404.90
 1031.23        2972.00           2456       68597.00    302113.10
 1031.26        2972.25           2459       55742.00    245021.00
 1031.29        2972.50           2463       35307.00    154719.80
 1031.32        2972.75           2466       20884.00     91318.41
 1031.35        2973.00           2470        7308.00     31889.40
 1031.38        2973.25           2473        3427.00     14944.38
 1031.41        2973.50           2477        2177.00      9490.86
 1031.44        2973.75           2481        2013.00      8775.50
 1031.47        2974.00           2484        1908.00      8317.52
 1031.50        2974.25           2488        1880.00      8195.40
 1031.53        2974.50           2491        1863.00      8121.25
 1031.57        2974.75           2495        1852.00      8073.27
 1031.60        2975.00           2498        1824.00      7951.15
 1031.63        2975.25           2502        1812.00      7898.81
 1031.66        2975.50           2505        1777.00      7746.16
 1031.69        2975.75           2509        1730.00      7541.17
 1031.72        2976.00           2512        1794.00      7820.30
 1031.75        2976.25           2516        1701.00      7414.69
 1031.78        2976.50           2520        1658.00      7227.15
 1031.81        2976.75           2523        1677.00      7310.01
 1031.84        2977.00           2527        1681.00      7327.46
 1031.87        2977.25           2530        1669.00      7275.12
 1031.90        2977.50           2534        1633.00      7118.11
 1031.93        2977.75           2537        1638.00      7139.92
 1031.96        2978.00           2541        1561.00      6804.10
 1031.99        2978.25           2544        1627.00      7091.95
 1032.02        2978.50           2548        1561.00      6804.10
 1032.05        2978.75           2552        1566.00      6825.91
 1032.08        2979.00           2555        1543.00      6725.60
 1032.12        2979.25           2559        1536.00      6695.07
 1032.15        2979.50           2562        1525.00      6647.10
 1032.18        2979.75           2566        1512.00      6590.40
 1032.21        2980.00           2569        1516.00      6607.85
 1032.24        2980.25           2573        1498.00      6529.35
 1032.27        2980.50           2577        1504.00      6555.52
 1032.30        2980.75           2580        1508.00      6572.96
 1032.33        2981.00           2584        1490.00      6494.46
 1032.36        2981.25           2587        1473.00      6420.32
 1032.39        2981.50           2591        1492.00      6503.18
 1032.42        2981.75           2594        1475.00      6429.04
 1032.45        2982.00           2598        1442.00      6285.13
 1032.48        2982.25           2601        1449.00      6315.65
 1032.51        2982.50           2605        1455.00      6341.82
 1032.54        2982.75           2609        1453.00      6333.10
 1032.57        2983.00           2612        1458.00      6354.90
 1032.60        2983.25           2616        1404.00      6119.41
 1032.64        2983.50           2619        1423.00      6202.27
 1032.67        2983.75           2623        1416.00      6171.74
 1032.70        2984.00           2626        1446.00      6302.57
HS scan finished at 17:12:55
end
