************************************************************
  HS Scan of (1) Internal mercury lamp
************************************************************
Integration time is 0.2294 seconds per sample
dh231217Reading 51.44 .94 3.03pr1000
************************************************************
Dead Time -------------------------  3.4E-08 
Number of Cycles Used -------------  4 
Starting Wavelength (Angstroms) ---  2950 
Final Wavelength (Angstoms) -------  2984 
Wavelength Increment (Angstroms) --  .25 
Filter Wheel #1 Position ---------- (1) Ground quartz diffuser (ND=2.32)
Filter Wheel #2 Position ---------- (1) Neutral Density 0.494



************************************************************
HS scan start time = 05:14:04
Dark Count =  .7 


Time (GMT)  Wavelength (Ang)  Step Number  Raw Counts  Counts/Second

  314.96        2950.00           2144          76.00       328.25
  315.15        2950.25           2147          79.00       341.33
  315.18        2950.50           2151          79.00       341.33
  315.21        2950.75           2155          81.00       350.05
  315.24        2951.00           2158          75.00       323.89
  315.28        2951.25           2162          73.00       315.17
  315.31        2951.50           2165          78.00       336.97
  315.34        2951.75           2169          86.00       371.84
  315.37        2952.00           2172          80.00       345.69
  315.40        2952.25           2176          83.00       358.77
  315.43        2952.50           2179         101.00       437.23
  315.46        2952.75           2183          80.00       345.69
  315.49        2953.00           2186          89.00       384.92
  315.52        2953.25           2190          79.00       341.33
  315.55        2953.50           2193          88.00       380.56
  315.58        2953.75           2197          85.00       367.49
  315.61        2954.00           2200          84.00       363.13
  315.64        2954.25           2204          88.00       380.56
  315.67        2954.50           2208          92.00       398.00
  315.70        2954.75           2211          81.00       350.05
  315.73        2955.00           2215          87.00       376.20
  315.76        2955.25           2218          93.00       402.36
  315.79        2955.50           2222          91.00       393.64
  315.83        2955.75           2225          84.00       363.13
  315.86        2956.00           2229          88.00       380.56
  315.89        2956.25           2232         105.00       454.67
  315.92        2956.50           2236          88.00       380.56
  315.95        2956.75           2239         101.00       437.23
  315.98        2957.00           2243          91.00       393.64
  316.01        2957.25           2246          89.00       384.92
  316.04        2957.50           2250          90.00       389.28
  316.07        2957.75           2254          93.00       402.36
  316.10        2958.00           2257          92.00       398.00
  316.13        2958.25           2261         116.00       502.62
  316.16        2958.50           2264          98.00       424.16
  316.19        2958.75           2268         116.00       502.62
  316.22        2959.00           2271         102.00       441.59
  316.25        2959.25           2275         116.00       502.62
  316.28        2959.50           2278          99.00       428.52
  316.31        2959.75           2282         103.00       445.95
  316.35        2960.00           2285         101.00       437.23
  316.38        2960.25           2289         125.00       541.86
  316.41        2960.50           2293         115.00       498.26
  316.44        2960.75           2296         127.00       550.58
  316.47        2961.00           2300         150.00       650.84
  316.50        2961.25           2303         275.00      1195.78
  316.53        2961.50           2307         924.00      4025.40
  316.56        2961.75           2310        1771.00      7719.11
  316.59        2962.00           2314        3260.00     14214.80
  316.62        2962.25           2317        4523.00     19726.83
  316.65        2962.50           2321        6040.00     26350.10
  316.68        2962.75           2324        7037.00     30704.66
  316.71        2963.00           2328        8539.00     37267.33
  316.74        2963.25           2331        9830.00     42910.43
  316.77        2963.50           2335       11434.00     49924.69
  316.80        2963.75           2339       13144.00     57406.19
  316.83        2964.00           2342       14350.00     62684.90
  316.87        2964.25           2346       16011.00     69958.28
  316.90        2964.50           2349       17239.00     75337.90
  316.93        2964.75           2353       18676.00     81635.61
  316.96        2965.00           2356       19801.00     86567.85
  316.99        2965.25           2360       21385.00     93515.26
  317.02        2965.50           2363       22673.00     99166.84
  317.05        2965.75           2367       24108.00    105466.00
  317.08        2966.00           2370       25091.00    109782.60
  317.11        2966.25           2374       26123.00    114315.70
  317.14        2966.50           2378       26648.00    116622.40
  317.17        2966.75           2381       26592.00    116376.30
  317.20        2967.00           2385       26755.00    117092.50
  317.23        2967.25           2388       26572.00    116288.50
  317.26        2967.50           2392       26438.00    115699.70
  317.29        2967.75           2395       26320.00    115181.20
  317.32        2968.00           2399       25320.00    110788.40
  317.35        2968.25           2402       24276.00    106203.60
  317.39        2968.50           2406       22936.00    100321.10
  317.42        2968.75           2409       21624.00     94563.80
  317.45        2969.00           2413       20281.00     88672.78
  317.48        2969.25           2417       19198.00     83923.96
  317.51        2969.50           2420       18238.00     79715.78
  317.54        2969.75           2424       16660.00     72801.18
  317.57        2970.00           2427       15501.00     67724.65
  317.60        2970.25           2431       14066.00     61441.64
  317.63        2970.50           2434       12671.00     55336.36
  317.66        2970.75           2438       10973.00     47908.40
  317.69        2971.00           2441        9711.00     42390.17
  317.72        2971.25           2445        8258.00     36039.34
  317.75        2971.50           2449        6679.00     29140.89
  317.78        2971.75           2452        5536.00     24149.29
  317.81        2972.00           2456        4110.00     17924.17
  317.84        2972.25           2459        2932.00     12783.67
  317.87        2972.50           2463        1621.00      7064.91
  317.91        2972.75           2466         829.00      3611.17
  317.94        2973.00           2470         268.00      1165.26
  317.97        2973.25           2473         156.00       677.00
  318.00        2973.50           2477         125.00       541.86
  318.03        2973.75           2481         131.00       568.01
  318.06        2974.00           2484         114.00       493.91
  318.09        2974.25           2488         111.00       480.83
  318.12        2974.50           2491         157.00       681.36
  318.15        2974.75           2495         123.00       533.14
  318.18        2975.00           2498         104.00       450.31
  318.21        2975.25           2502         107.00       463.39
  318.24        2975.50           2505         102.00       441.59
  318.27        2975.75           2509         125.00       541.86
  318.30        2976.00           2512          98.00       424.16
  318.33        2976.25           2516          94.00       406.72
  318.36        2976.50           2520          89.00       384.92
  318.39        2976.75           2523          93.00       402.36
  318.42        2977.00           2527         112.00       485.19
  318.46        2977.25           2530          93.00       402.36
  318.49        2977.50           2534          96.00       415.44
  318.52        2977.75           2537         101.00       437.23
  318.55        2978.00           2541          85.00       367.49
  318.58        2978.25           2544          87.00       376.20
  318.61        2978.50           2548          91.00       393.64
  318.64        2978.75           2552         113.00       489.55
  318.67        2979.00           2555          91.00       393.64
  318.70        2979.25           2559          86.00       371.84
  318.73        2979.50           2562          88.00       380.56
  318.76        2979.75           2566          83.00       358.77
  318.79        2980.00           2569          90.00       389.28
  318.82        2980.25           2573          82.00       354.41
  318.85        2980.50           2577          77.00       332.61
  318.88        2980.75           2580          86.00       371.84
  318.91        2981.00           2584          83.00       358.77
  318.94        2981.25           2587          81.00       350.05
  318.98        2981.50           2591          85.00       367.49
  319.01        2981.75           2594          86.00       371.84
  319.04        2982.00           2598          86.00       371.84
  319.07        2982.25           2601          86.00       371.84
  319.10        2982.50           2605          88.00       380.56
  319.13        2982.75           2609          87.00       376.20
  319.16        2983.00           2612          88.00       380.56
  319.19        2983.25           2616          74.00       319.53
  319.22        2983.50           2619          76.00       328.25
  319.25        2983.75           2623          81.00       350.05
  319.28        2984.00           2626          77.00       332.61
HS scan finished at 05:19:30
end
************************************************************
  HS Scan of (1) Internal mercury lamp
************************************************************
Integration time is 0.2294 seconds per sample
dh231217Reading 51.44 .94 3.03pr1000
************************************************************
Dead Time -------------------------  3.4E-08 
Number of Cycles Used -------------  4 
Starting Wavelength (Angstroms) ---  2950 
Final Wavelength (Angstoms) -------  2984 
Wavelength Increment (Angstroms) --  .25 
Filter Wheel #1 Position ---------- (1) Ground quartz diffuser (ND=2.32)
Filter Wheel #2 Position ---------- (1) Neutral Density 0.494



************************************************************
HS scan start time = 17:07:29
Dark Count =  1 


Time (GMT)  Wavelength (Ang)  Step Number  Raw Counts  Counts/Second

 1028.39        2950.00           2144          84.00       361.82
 1028.58        2950.25           2147          88.00       379.26
 1028.61        2950.50           2151         100.00       431.57
 1028.64        2950.75           2155          92.00       396.69
 1028.67        2951.00           2158          91.00       392.33
 1028.70        2951.25           2162          89.00       383.61
 1028.73        2951.50           2165          82.00       353.10
 1028.76        2951.75           2169          88.00       379.26
 1028.80        2952.00           2172          93.00       401.05
 1028.83        2952.25           2176          93.00       401.05
 1028.86        2952.50           2179          93.00       401.05
 1028.89        2952.75           2183          89.00       383.61
 1028.92        2953.00           2186          96.00       414.13
 1028.95        2953.25           2190          95.00       409.77
 1028.98        2953.50           2193          97.00       418.49
 1029.01        2953.75           2197          99.00       427.21
 1029.04        2954.00           2200          98.00       422.85
 1029.07        2954.25           2204         121.00       523.11
 1029.10        2954.50           2208         142.00       614.66
 1029.13        2954.75           2211          96.00       414.13
 1029.16        2955.00           2215          96.00       414.13
 1029.19        2955.25           2218         120.00       518.75
 1029.22        2955.50           2222         103.00       444.64
 1029.25        2955.75           2225         124.00       536.19
 1029.28        2956.00           2229         114.00       492.60
 1029.32        2956.25           2232         119.00       514.39
 1029.35        2956.50           2236         102.00       440.29
 1029.38        2956.75           2239         101.00       435.93
 1029.41        2957.00           2243         103.00       444.64
 1029.44        2957.25           2246         103.00       444.64
 1029.47        2957.50           2250         123.00       531.83
 1029.50        2957.75           2254         104.00       449.00
 1029.53        2958.00           2257         126.00       544.91
 1029.56        2958.25           2261         143.00       619.02
 1029.60        2958.50           2264         130.00       562.35
 1029.63        2958.75           2268         138.00       597.22
 1029.66        2959.00           2271         116.00       501.32
 1029.69        2959.25           2275         126.00       544.91
 1029.72        2959.50           2278         123.00       531.83
 1029.75        2959.75           2282         160.00       693.13
 1029.78        2960.00           2285         136.00       588.50
 1029.81        2960.25           2289         151.00       653.89
 1029.84        2960.50           2293         135.00       584.14
 1029.87        2960.75           2296         144.00       623.38
 1029.90        2961.00           2300         155.00       671.33
 1029.93        2961.25           2303         349.00      1517.08
 1029.96        2961.50           2307        1315.00      5729.10
 1029.99        2961.75           2310        2423.00     10561.77
 1030.02        2962.00           2314        4029.00     17569.34
 1030.05        2962.25           2317        5139.00     22414.63
 1030.08        2962.50           2321        6847.00     29873.40
 1030.12        2962.75           2324        8139.00     35518.02
 1030.15        2963.00           2328        9988.00     43599.90
 1030.18        2963.25           2331       11467.00     50067.73
 1030.21        2963.50           2335       13222.00     57746.23
 1030.24        2963.75           2339       14937.00     65253.60
 1030.27        2964.00           2342       16664.00     72817.38
 1030.30        2964.25           2346       18624.00     81406.35
 1030.33        2964.50           2349       19938.00     87167.28
 1030.36        2964.75           2353       22151.00     96874.78
 1030.39        2965.00           2356       23229.00    101605.90
 1030.42        2965.25           2360       25268.00    110558.70
 1030.45        2965.50           2363       26515.00    116036.70
 1030.48        2965.75           2367       28231.00    123578.30
 1030.51        2966.00           2370       29151.00    127623.20
 1030.54        2966.25           2374       30909.00    135355.60
 1030.57        2966.50           2378       31727.00    138954.90
 1030.60        2966.75           2381       31821.00    139368.50
 1030.64        2967.00           2385       32007.00    140187.10
 1030.67        2967.25           2388       31815.00    139342.10
 1030.70        2967.50           2392       31600.00    138396.00
 1030.73        2967.75           2395       31432.00    137656.70
 1030.76        2968.00           2399       30086.00    131735.20
 1030.79        2968.25           2402       28831.00    126216.20
 1030.82        2968.50           2406       26852.00    117517.50
 1030.85        2968.75           2409       25353.00    110932.00
 1030.88        2969.00           2413       23778.00    104015.90
 1030.91        2969.25           2417       22064.00     96493.03
 1030.94        2969.50           2420       21326.00     93255.12
 1030.97        2969.75           2424       19453.00     85040.65
 1031.00        2970.00           2427       17894.00     78206.81
 1031.03        2970.25           2431       15788.00     68980.25
 1031.06        2970.50           2434       14607.00     63808.73
 1031.09        2970.75           2438       13021.00     56866.60
 1031.12        2971.00           2441       11408.00     49809.65
 1031.16        2971.25           2445        9598.00     41894.85
 1031.19        2971.50           2449        7805.00     34058.60
 1031.22        2971.75           2452        6439.00     28091.34
 1031.25        2972.00           2456        4522.00     19721.15
 1031.28        2972.25           2459        3195.00     13929.87
 1031.31        2972.50           2463        1665.00      7255.50
 1031.34        2972.75           2466         863.00      3758.11
 1031.37        2973.00           2470         279.00      1211.91
 1031.40        2973.25           2473         155.00       671.33
 1031.43        2973.50           2477         147.00       636.46
 1031.46        2973.75           2481         142.00       614.66
 1031.49        2974.00           2484         129.00       557.99
 1031.52        2974.25           2488         127.00       549.27
 1031.55        2974.50           2491         123.00       531.83
 1031.58        2974.75           2495         127.00       549.27
 1031.61        2975.00           2498         117.00       505.68
 1031.64        2975.25           2502         106.00       457.72
 1031.68        2975.50           2505         115.00       496.96
 1031.71        2975.75           2509         115.00       496.96
 1031.74        2976.00           2512         126.00       544.91
 1031.77        2976.25           2516         133.00       575.43
 1031.80        2976.50           2520         113.00       488.24
 1031.83        2976.75           2523         133.00       575.43
 1031.86        2977.00           2527         105.00       453.36
 1031.89        2977.25           2530         134.00       579.78
 1031.92        2977.50           2534         151.00       653.89
 1031.95        2977.75           2537         115.00       496.96
 1031.98        2978.00           2541         106.00       457.72
 1032.01        2978.25           2544          99.00       427.21
 1032.04        2978.50           2548         110.00       475.16
 1032.07        2978.75           2552          95.00       409.77
 1032.10        2979.00           2555          90.00       387.97
 1032.13        2979.25           2559          94.00       405.41
 1032.16        2979.50           2562          92.00       396.69
 1032.20        2979.75           2566          94.00       405.41
 1032.23        2980.00           2569          95.00       409.77
 1032.26        2980.25           2573          93.00       401.05
 1032.29        2980.50           2577          95.00       409.77
 1032.32        2980.75           2580         107.00       462.08
 1032.35        2981.00           2584          93.00       401.05
 1032.38        2981.25           2587          87.00       374.90
 1032.41        2981.50           2591          94.00       405.41
 1032.44        2981.75           2594          93.00       401.05
 1032.47        2982.00           2598          87.00       374.90
 1032.50        2982.25           2601          87.00       374.90
 1032.53        2982.50           2605          86.00       370.54
 1032.56        2982.75           2609          83.00       357.46
 1032.59        2983.00           2612          91.00       392.33
 1032.62        2983.25           2616          87.00       374.90
 1032.65        2983.50           2619          93.00       401.05
 1032.68        2983.75           2623          81.00       348.74
 1032.72        2984.00           2626          81.00       348.74
HS scan finished at 17:12:56
end
