************************************************************
  HS Scan of (1) Internal mercury lamp
************************************************************
Integration time is 0.2294 seconds per sample
dh201218Reading 51.44 .94 2.7pr1000
************************************************************
Dead Time -------------------------  3.4E-08 
Number of Cycles Used -------------  4 
Starting Wavelength (Angstroms) ---  2950 
Final Wavelength (Angstoms) -------  2984 
Wavelength Increment (Angstroms) --  .25 
Filter Wheel #1 Position ---------- (1) Ground quartz diffuser (ND=2.32)
Filter Wheel #2 Position ---------- (1) Neutral Density 0.494



************************************************************
HS scan start time = 05:12:32
Dark Count =  .5 


Time (GMT)  Wavelength (Ang)  Step Number  Raw Counts  Counts/Second

  313.43        2950.00           2144        1606.00      7000.36
  313.62        2950.25           2147        1642.00      7157.37
  313.65        2950.50           2151        1647.00      7179.17
  313.68        2950.75           2155        1651.00      7196.62
  313.71        2951.00           2158        1651.00      7196.62
  313.74        2951.25           2162        1619.00      7057.05
  313.78        2951.50           2165        1600.00      6974.19
  313.81        2951.75           2169        1665.00      7257.68
  313.84        2952.00           2172        1642.00      7157.37
  313.87        2952.25           2176        1619.00      7057.05
  313.90        2952.50           2179        1668.00      7270.76
  313.93        2952.75           2183        1658.00      7227.15
  313.96        2953.00           2186        1660.00      7235.87
  313.99        2953.25           2190        1679.00      7318.74
  314.02        2953.50           2193        1687.00      7353.63
  314.05        2953.75           2197        1680.00      7323.10
  314.08        2954.00           2200        1722.00      7506.27
  314.11        2954.25           2204        1700.00      7410.32
  314.14        2954.50           2208        1743.00      7597.86
  314.17        2954.75           2211        1793.00      7815.94
  314.20        2955.00           2215        1730.00      7541.17
  314.23        2955.25           2218        1702.00      7419.05
  314.26        2955.50           2222        1756.00      7654.56
  314.30        2955.75           2225        1764.00      7689.46
  314.33        2956.00           2229        1757.00      7658.93
  314.36        2956.25           2232        1795.00      7824.66
  314.39        2956.50           2236        1803.00      7859.55
  314.42        2956.75           2239        1801.00      7850.83
  314.45        2957.00           2243        1810.00      7890.09
  314.48        2957.25           2246        1842.00      8029.66
  314.51        2957.50           2250        1856.00      8090.72
  314.54        2957.75           2254        1840.00      8020.93
  314.57        2958.00           2257        1865.00      8129.97
  314.60        2958.25           2261        1920.00      8369.86
  314.63        2958.50           2264        1909.00      8321.88
  314.66        2958.75           2268        1914.00      8343.69
  314.69        2959.00           2271        1945.00      8478.91
  314.72        2959.25           2275        1945.00      8478.91
  314.75        2959.50           2278        2009.00      8758.06
  314.78        2959.75           2282        2032.00      8858.38
  314.82        2960.00           2285        2047.00      8923.81
  314.85        2960.25           2289        2083.00      9080.83
  314.88        2960.50           2293        2154.00      9390.53
  314.91        2960.75           2296        2178.00      9495.22
  314.94        2961.00           2300        2265.00      9874.72
  314.97        2961.25           2303        2548.00     11109.25
  315.00        2961.50           2307        5368.00     23416.63
  315.03        2961.75           2310       14145.00     61788.35
  315.06        2962.00           2314       34067.00    149258.20
  315.09        2962.25           2317       52297.00    229758.70
  315.12        2962.50           2321       78313.00    345412.50
  315.15        2962.75           2324       96091.00    424973.90
  315.18        2963.00           2328      120018.00    532742.90
  315.21        2963.25           2331      139623.00    621643.20
  315.24        2963.50           2335      168643.00    754242.10
  315.27        2963.75           2339      196058.00    880629.90
  315.30        2964.00           2342      215912.00    972853.70
  315.34        2964.25           2346      241894.00   1094438.00
  315.37        2964.50           2349      261377.00   1186287.00
  315.40        2964.75           2353      287231.00   1309083.00
  315.43        2965.00           2356      306888.00   1403152.00
  315.46        2965.25           2360      332752.00   1527873.00
  315.49        2965.50           2363      352518.00   1623926.00
  315.52        2965.75           2367      376769.00   1742663.00
  315.55        2966.00           2370      393206.00   1823707.00
  315.58        2966.25           2374      415154.00   1932648.00
  315.61        2966.50           2378      433154.00   2022621.00
  315.64        2966.75           2381      438540.00   2049654.00
  315.67        2967.00           2385      442068.00   2067389.00
  315.70        2967.25           2388      441833.00   2066207.00
  315.73        2967.50           2392      442611.00   2070121.00
  315.76        2967.75           2395      441584.00   2064955.00
  315.79        2968.00           2399      436843.00   2041131.00
  315.82        2968.25           2402      425698.00   1985283.00
  315.86        2968.50           2406      407857.00   1896336.00
  315.89        2968.75           2409      391128.00   1813436.00
  315.92        2969.00           2413      367461.00   1696972.00
  315.95        2969.25           2417      343467.00   1579862.00
  315.98        2969.50           2420      324752.00   1489179.00
  316.01        2969.75           2424      298098.00   1361011.00
  316.04        2970.00           2427      282106.00   1284658.00
  316.07        2970.25           2431      257718.00   1168993.00
  316.10        2970.50           2434      237105.00   1071951.00
  316.13        2970.75           2438      207409.00    933284.50
  316.16        2971.00           2441      185867.00    833519.00
  316.19        2971.25           2445      158891.00    709547.90
  316.22        2971.50           2449      133631.00    594414.40
  316.25        2971.75           2452      114156.00    506266.20
  316.28        2972.00           2456       88839.00    392466.90
  316.31        2972.25           2459       70072.00    308678.20
  316.34        2972.50           2463       44411.00    194881.20
  316.38        2972.75           2466       27316.00    119558.70
  316.41        2973.00           2470        9948.00     43427.20
  316.44        2973.25           2473        4232.00     18457.53
  316.47        2973.50           2477        2440.00     10638.11
  316.50        2973.75           2481        2256.00      9835.46
  316.53        2974.00           2484        2252.00      9818.01
  316.56        2974.25           2488        2171.00      9464.68
  316.59        2974.50           2491        2116.00      9224.78
  316.62        2974.75           2495        2052.00      8945.62
  316.65        2975.00           2498        2060.00      8980.51
  316.68        2975.25           2502        2026.00      8832.21
  316.71        2975.50           2505        2039.00      8888.91
  316.74        2975.75           2509        1936.00      8439.65
  316.77        2976.00           2512        1952.00      8509.44
  316.80        2976.25           2516        1902.00      8291.35
  316.83        2976.50           2520        1920.00      8369.86
  316.86        2976.75           2523        1882.00      8204.12
  316.90        2977.00           2527        1847.00      8051.46
  316.93        2977.25           2530        1819.00      7929.34
  316.96        2977.50           2534        1859.00      8103.80
  316.99        2977.75           2537        1774.00      7733.07
  317.02        2978.00           2541        1765.00      7693.82
  317.05        2978.25           2544        1774.00      7733.07
  317.08        2978.50           2548        1789.00      7798.49
  317.11        2978.75           2552        1711.00      7458.30
  317.14        2979.00           2555        1746.00      7610.95
  317.17        2979.25           2559        1709.00      7449.58
  317.20        2979.50           2562        1715.00      7475.74
  317.23        2979.75           2566        1698.00      7401.60
  317.26        2980.00           2569        1690.00      7366.71
  317.29        2980.25           2573        1702.00      7419.05
  317.32        2980.50           2577        1681.00      7327.46
  317.35        2980.75           2580        1643.00      7161.73
  317.38        2981.00           2584        1607.00      7004.72
  317.41        2981.25           2587        1680.00      7323.10
  317.45        2981.50           2591        1614.00      7035.25
  317.48        2981.75           2594        1638.00      7139.92
  317.51        2982.00           2598        1600.00      6974.19
  317.54        2982.25           2601        1592.00      6939.30
  317.57        2982.50           2605        1644.00      7166.09
  317.60        2982.75           2609        1567.00      6830.27
  317.63        2983.00           2612        1590.00      6930.58
  317.66        2983.25           2616        1626.00      7087.58
  317.69        2983.50           2619        1588.00      6921.86
  317.72        2983.75           2623        1529.00      6664.54
  317.75        2984.00           2626        1596.00      6956.75
HS scan finished at 05:17:58
end
************************************************************
  HS Scan of (1) Internal mercury lamp
************************************************************
Integration time is 0.2294 seconds per sample
dh201218Reading 51.44 .94 3.05pr1000
************************************************************
Dead Time -------------------------  3.4E-08 
Number of Cycles Used -------------  4 
Starting Wavelength (Angstroms) ---  2950 
Final Wavelength (Angstoms) -------  2984 
Wavelength Increment (Angstroms) --  .25 
Filter Wheel #1 Position ---------- (1) Ground quartz diffuser (ND=2.32)
Filter Wheel #2 Position ---------- (1) Neutral Density 0.494



************************************************************
HS scan start time = 16:38:40
Dark Count =  1.2 


Time (GMT)  Wavelength (Ang)  Step Number  Raw Counts  Counts/Second

  999.57        2950.00           2144        1152.00      5017.42
  999.77        2950.25           2147        1185.00      5161.32
  999.80        2950.50           2151        1193.00      5196.21
  999.83        2950.75           2155        1165.00      5074.11
  999.86        2951.00           2158        1159.00      5047.95
  999.89        2951.25           2162        1176.00      5122.08
  999.92        2951.50           2165        1184.00      5156.96
  999.95        2951.75           2169        1203.00      5239.82
  999.98        2952.00           2172        1209.00      5265.98
 1000.01        2952.25           2176        1249.00      5440.41
 1000.04        2952.50           2179        1212.00      5279.07
 1000.07        2952.75           2183        1215.00      5292.15
 1000.10        2953.00           2186        1202.00      5235.46
 1000.13        2953.25           2190        1222.00      5322.67
 1000.16        2953.50           2193        1226.00      5340.12
 1000.19        2953.75           2197        1207.00      5257.26
 1000.22        2954.00           2200        1272.00      5540.71
 1000.25        2954.25           2204        1263.00      5501.47
 1000.29        2954.50           2208        1275.00      5553.80
 1000.32        2954.75           2211        1288.00      5610.49
 1000.35        2955.00           2215        1281.00      5579.96
 1000.38        2955.25           2218        1268.00      5523.27
 1000.41        2955.50           2222        1247.00      5431.69
 1000.44        2955.75           2225        1260.00      5488.38
 1000.47        2956.00           2229        1295.00      5641.01
 1000.50        2956.25           2232        1284.00      5593.04
 1000.53        2956.50           2236        1306.00      5688.98
 1000.56        2956.75           2239        1328.00      5784.92
 1000.59        2957.00           2243        1297.00      5649.73
 1000.62        2957.25           2246        1322.00      5758.76
 1000.65        2957.50           2250        1343.00      5850.34
 1000.68        2957.75           2254        1339.00      5832.89
 1000.71        2958.00           2257        1322.00      5758.76
 1000.74        2958.25           2261        1352.00      5889.58
 1000.77        2958.50           2264        1360.00      5924.47
 1000.81        2958.75           2268        1385.00      6033.50
 1000.84        2959.00           2271        1403.00      6111.99
 1000.87        2959.25           2275        1439.00      6268.99
 1000.90        2959.50           2278        1446.00      6299.52
 1000.93        2959.75           2282        1447.00      6303.88
 1000.96        2960.00           2285        1469.00      6399.82
 1000.99        2960.25           2289        1517.00      6609.16
 1001.02        2960.50           2293        1501.00      6539.38
 1001.05        2960.75           2296        1583.00      6897.00
 1001.08        2961.00           2300        1642.00      7154.31
 1001.11        2961.25           2303        1847.00      8048.41
 1001.14        2961.50           2307        3961.00     17271.69
 1001.17        2961.75           2310        9640.00     42077.60
 1001.20        2962.00           2314       22255.00     97330.28
 1001.23        2962.25           2317       34554.00    151399.80
 1001.26        2962.50           2321       53402.00    234649.30
 1001.29        2962.75           2324       68146.00    300103.20
 1001.33        2963.00           2328       86275.00    380987.90
 1001.36        2963.25           2331       98951.00    437810.60
 1001.39        2963.50           2335      116860.00    518470.10
 1001.42        2963.75           2339      136298.00    606524.30
 1001.45        2964.00           2342      151571.00    676086.70
 1001.48        2964.25           2346      171746.00    768489.00
 1001.51        2964.50           2349      185278.00    830797.50
 1001.54        2964.75           2353      203862.00    916806.90
 1001.57        2965.00           2356      217328.00    979450.40
 1001.60        2965.25           2360      234372.00   1059130.00
 1001.63        2965.50           2363      246557.00   1116365.00
 1001.66        2965.75           2367      263157.00   1194705.00
 1001.69        2966.00           2370      276137.00   1256259.00
 1001.72        2966.25           2374      293104.00   1337120.00
 1001.75        2966.50           2378      306189.00   1399793.00
 1001.78        2966.75           2381      310286.00   1419473.00
 1001.82        2967.00           2385      312894.00   1432014.00
 1001.85        2967.25           2388      312680.00   1430985.00
 1001.88        2967.50           2392      312913.00   1432106.00
 1001.91        2967.75           2395      308558.00   1411169.00
 1001.94        2968.00           2399      310730.00   1421607.00
 1001.97        2968.25           2402      304234.00   1390412.00
 1002.00        2968.50           2406      291299.00   1328497.00
 1002.03        2968.75           2409      278191.00   1266024.00
 1002.06        2969.00           2413      261296.00   1185901.00
 1002.09        2969.25           2417      243571.00   1102318.00
 1002.12        2969.50           2420      230809.00   1042437.00
 1002.15        2969.75           2424      213344.00    960888.80
 1002.18        2970.00           2427      200035.00    899053.20
 1002.21        2970.25           2431      181648.00    814056.80
 1002.24        2970.50           2434      167624.00    749562.30
 1002.27        2970.75           2438      150156.00    669627.90
 1002.30        2971.00           2441      135648.00    603571.20
 1002.34        2971.25           2445      115447.00    512090.00
 1002.37        2971.50           2449       95015.00    420143.00
 1002.40        2971.75           2452       81291.00    358706.50
 1002.43        2972.00           2456       63334.00    278708.80
 1002.46        2972.25           2459       50079.00    219937.60
 1002.49        2972.50           2463       32109.00    140635.10
 1002.52        2972.75           2466       19127.00     83610.51
 1002.55        2973.00           2470        6282.00     27404.77
 1002.58        2973.25           2473        2832.00     12345.20
 1002.61        2973.50           2477        1753.00      7638.43
 1002.64        2973.75           2481        1605.00      6992.95
 1002.67        2974.00           2484        1551.00      6757.44
 1002.70        2974.25           2488        1495.00      6513.21
 1002.73        2974.50           2491        1502.00      6543.74
 1002.76        2974.75           2495        1476.00      6430.35
 1002.79        2975.00           2498        1433.00      6242.83
 1002.82        2975.25           2502        1456.00      6343.13
 1002.85        2975.50           2505        1476.00      6430.35
 1002.89        2975.75           2509        1427.00      6216.66
 1002.92        2976.00           2512        1397.00      6085.83
 1002.95        2976.25           2516        1386.00      6037.86
 1002.98        2976.50           2520        1321.00      5754.40
 1003.01        2976.75           2523        1284.00      5593.04
 1003.04        2977.00           2527        1337.00      5824.17
 1003.07        2977.25           2530        1317.00      5736.95
 1003.10        2977.50           2534        1290.00      5619.21
 1003.13        2977.75           2537        1290.00      5619.21
 1003.16        2978.00           2541        1301.00      5667.18
 1003.19        2978.25           2544        1268.00      5523.27
 1003.22        2978.50           2548        1286.00      5601.76
 1003.25        2978.75           2552        1260.00      5488.38
 1003.28        2979.00           2555        1243.00      5414.25
 1003.31        2979.25           2559        1190.00      5183.13
 1003.34        2979.50           2562        1204.00      5244.18
 1003.37        2979.75           2566        1254.00      5462.22
 1003.41        2980.00           2569        1221.00      5318.31
 1003.44        2980.25           2573        1204.00      5244.18
 1003.47        2980.50           2577        1193.00      5196.21
 1003.50        2980.75           2580        1190.00      5183.13
 1003.53        2981.00           2584        1199.00      5222.38
 1003.56        2981.25           2587        1174.00      5113.36
 1003.59        2981.50           2591        1173.00      5109.00
 1003.62        2981.75           2594        1134.00      4938.93
 1003.65        2982.00           2598        1166.00      5078.47
 1003.68        2982.25           2601        1150.00      5008.70
 1003.71        2982.50           2605        1158.00      5043.59
 1003.74        2982.75           2609        1139.00      4960.73
 1003.77        2983.00           2612        1120.00      4877.88
 1003.80        2983.25           2616        1133.00      4934.57
 1003.83        2983.50           2619        1133.00      4934.57
 1003.87        2983.75           2623        1161.00      5056.67
 1003.91        2984.00           2626        1130.00      4921.49
HS scan finished at 16:44:08
end
