************************************************************
  HS Scan of (1) Internal mercury lamp
************************************************************
Integration time is 0.2294 seconds per sample
dh181218Reading 51.44 .94 2.94pr1000
************************************************************
Dead Time -------------------------  3.4E-08 
Number of Cycles Used -------------  4 
Starting Wavelength (Angstroms) ---  2950 
Final Wavelength (Angstoms) -------  2984 
Wavelength Increment (Angstroms) --  .25 
Filter Wheel #1 Position ---------- (1) Ground quartz diffuser (ND=2.32)
Filter Wheel #2 Position ---------- (1) Neutral Density 0.494



************************************************************
HS scan start time = 05:11:19
Dark Count =  1 


Time (GMT)  Wavelength (Ang)  Step Number  Raw Counts  Counts/Second

  312.22        2950.00           2144        1521.00      6627.47
  312.41        2950.25           2147        1580.00      6884.79
  312.44        2950.50           2151        1576.00      6867.34
  312.47        2950.75           2155        1564.00      6815.01
  312.50        2951.00           2158        1557.00      6784.48
  312.54        2951.25           2162        1589.00      6924.04
  312.57        2951.50           2165        1593.00      6941.48
  312.60        2951.75           2169        1556.00      6780.12
  312.63        2952.00           2172        1589.00      6924.04
  312.66        2952.25           2176        1585.00      6906.59
  312.69        2952.50           2179        1603.00      6985.09
  312.72        2952.75           2183        1606.00      6998.18
  312.75        2953.00           2186        1627.00      7089.76
  312.78        2953.25           2190        1638.00      7137.74
  312.81        2953.50           2193        1650.00      7190.07
  312.84        2953.75           2197        1626.00      7085.40
  312.87        2954.00           2200        1665.00      7255.50
  312.90        2954.25           2204        1661.00      7238.05
  312.93        2954.50           2208        1640.00      7146.46
  312.96        2954.75           2211        1665.00      7255.50
  312.99        2955.00           2215        1702.00      7416.87
  313.02        2955.25           2218        1667.00      7264.22
  313.06        2955.50           2222        1695.00      7386.34
  313.09        2955.75           2225        1704.00      7425.59
  313.12        2956.00           2229        1716.00      7477.93
  313.15        2956.25           2232        1711.00      7456.12
  313.18        2956.50           2236        1729.00      7534.62
  313.21        2956.75           2239        1734.00      7556.43
  313.24        2957.00           2243        1747.00      7613.13
  313.27        2957.25           2246        1763.00      7682.91
  313.30        2957.50           2250        1769.00      7709.08
  313.33        2957.75           2254        1817.00      7918.44
  313.36        2958.00           2257        1785.00      7778.87
  313.39        2958.25           2261        1768.00      7704.72
  313.42        2958.50           2264        1794.00      7818.12
  313.45        2958.75           2268        1836.00      8001.30
  313.48        2959.00           2271        1844.00      8036.20
  313.51        2959.25           2275        1834.00      7992.58
  313.54        2959.50           2278        1897.00      8267.36
  313.58        2959.75           2282        1913.00      8337.15
  313.61        2960.00           2285        1969.00      8581.40
  313.64        2960.25           2289        1996.00      8699.17
  313.67        2960.50           2293        1963.00      8555.23
  313.70        2960.75           2296        2061.00      8982.69
  313.73        2961.00           2300        2207.00      9619.54
  313.76        2961.25           2303        2530.00     11028.55
  313.79        2961.50           2307        6137.00     26772.40
  313.82        2961.75           2310       14850.00     64872.66
  313.85        2962.00           2314       31513.00    138013.20
  313.88        2962.25           2317       46153.00    202576.20
  313.91        2962.50           2321       69454.00    305925.00
  313.94        2962.75           2324       87235.00    385284.50
  313.97        2963.00           2328      110501.00    489779.90
  314.00        2963.25           2331      127159.00    565059.20
  314.03        2963.50           2335      151601.00    676224.60
  314.06        2963.75           2339      173830.00    778068.50
  314.10        2964.00           2342      190554.00    855164.60
  314.13        2964.25           2346      213563.00    961909.30
  314.16        2964.50           2349      233350.00   1054341.00
  314.19        2964.75           2353      258577.00   1173049.00
  314.22        2965.00           2356      275979.00   1255509.00
  314.25        2965.25           2360      297130.00   1356375.00
  314.28        2965.50           2363      313622.00   1435518.00
  314.31        2965.75           2367      334028.00   1534052.00
  314.34        2966.00           2370      351516.00   1619039.00
  314.37        2966.25           2374      372751.00   1722919.00
  314.40        2966.50           2378      388066.00   1798312.00
  314.43        2966.75           2381      392283.00   1819141.00
  314.46        2967.00           2385      393805.00   1826667.00
  314.49        2967.25           2388      394356.00   1829392.00
  314.52        2967.50           2392      394016.00   1827710.00
  314.55        2967.75           2395      393490.00   1825109.00
  314.58        2968.00           2399      386708.00   1791610.00
  314.62        2968.25           2402      374942.00   1733681.00
  314.65        2968.50           2406      355564.00   1638783.00
  314.68        2968.75           2409      340711.00   1566470.00
  314.71        2969.00           2413      320831.00   1470250.00
  314.74        2969.25           2417      299892.00   1369599.00
  314.77        2969.50           2420      283383.00   1290737.00
  314.80        2969.75           2424      259772.00   1178696.00
  314.83        2970.00           2427      240316.00   1087022.00
  314.86        2970.25           2431      215200.00    969533.90
  314.89        2970.50           2434      195431.00    877724.70
  314.92        2970.75           2438      170889.00    764553.00
  314.95        2971.00           2441      154340.00    688735.00
  314.98        2971.25           2445      132356.00    588624.80
  315.01        2971.50           2449      111308.00    493417.90
  315.04        2971.75           2452       94102.00    416048.80
  315.07        2972.00           2456       71855.00    316615.90
  315.10        2972.25           2459       55995.00    246140.20
  315.14        2972.50           2463       33656.00    147446.10
  315.17        2972.75           2466       16703.00     72988.24
  315.20        2973.00           2470        5015.00     21873.28
  315.23        2973.25           2473        2754.00     12005.77
  315.26        2973.50           2477        2154.00      9388.35
  315.29        2973.75           2481        2078.00      9056.84
  315.32        2974.00           2484        2030.00      8847.47
  315.35        2974.25           2488        1929.00      8406.94
  315.38        2974.50           2491        1960.00      8542.15
  315.41        2974.75           2495        1938.00      8446.19
  315.44        2975.00           2498        1914.00      8341.51
  315.47        2975.25           2502        1881.00      8197.58
  315.50        2975.50           2505        1874.00      8167.05
  315.53        2975.75           2509        1849.00      8058.01
  315.56        2976.00           2512        1847.00      8049.28
  315.59        2976.25           2516        1844.00      8036.20
  315.62        2976.50           2520        1771.00      7717.81
  315.66        2976.75           2523        1776.00      7739.61
  315.69        2977.00           2527        1737.00      7569.52
  315.72        2977.25           2530        1710.00      7451.76
  315.75        2977.50           2534        1681.00      7325.28
  315.78        2977.75           2537        1720.00      7495.37
  315.81        2978.00           2541        1664.00      7251.13
  315.84        2978.25           2544        1665.00      7255.50
  315.87        2978.50           2548        1640.00      7146.46
  315.90        2978.75           2552        1632.00      7111.57
  315.93        2979.00           2555        1588.00      6919.68
  315.96        2979.25           2559        1615.00      7037.43
  315.99        2979.50           2562        1599.00      6967.65
  316.02        2979.75           2566        1587.00      6915.31
  316.05        2980.00           2569        1557.00      6784.48
  316.08        2980.25           2573        1554.00      6771.39
  316.11        2980.50           2577        1574.00      6858.62
  316.14        2980.75           2580        1586.00      6910.95
  316.17        2981.00           2584        1524.00      6640.56
  316.21        2981.25           2587        1526.00      6649.28
  316.24        2981.50           2591        1544.00      6727.78
  316.27        2981.75           2594        1526.00      6649.28
  316.30        2982.00           2598        1493.00      6505.36
  316.33        2982.25           2601        1544.00      6727.78
  316.36        2982.50           2605        1507.00      6566.42
  316.39        2982.75           2609        1494.00      6509.72
  316.42        2983.00           2612        1479.00      6444.31
  316.45        2983.25           2616        1477.00      6435.58
  316.48        2983.50           2619        1543.00      6723.42
  316.51        2983.75           2623        1499.00      6531.53
  316.54        2984.00           2626        1472.00      6413.78
HS scan finished at 05:16:46
end
************************************************************
  HS Scan of (1) Internal mercury lamp
************************************************************
Integration time is 0.2294 seconds per sample
dh181218Reading 51.44 .94 2.92pr1000
************************************************************
Dead Time -------------------------  3.4E-08 
Number of Cycles Used -------------  4 
Starting Wavelength (Angstroms) ---  2950 
Final Wavelength (Angstoms) -------  2984 
Wavelength Increment (Angstroms) --  .25 
Filter Wheel #1 Position ---------- (1) Ground quartz diffuser (ND=2.32)
Filter Wheel #2 Position ---------- (1) Neutral Density 0.494



************************************************************
HS scan start time = 16:37:24
Dark Count =  .7 


Time (GMT)  Wavelength (Ang)  Step Number  Raw Counts  Counts/Second

  998.30        2950.00           2144        1223.00      5329.21
  998.50        2950.25           2147        1239.00      5398.99
  998.53        2950.50           2151        1237.00      5390.26
  998.56        2950.75           2155        1259.00      5486.20
  998.59        2951.00           2158        1307.00      5695.52
  998.62        2951.25           2162        1264.00      5508.01
  998.65        2951.50           2165        1282.00      5586.50
  998.68        2951.75           2169        1283.00      5590.86
  998.71        2952.00           2172        1270.00      5534.17
  998.74        2952.25           2176        1250.00      5446.96
  998.77        2952.50           2179        1260.00      5490.56
  998.80        2952.75           2183        1251.00      5451.32
  998.83        2953.00           2186        1286.00      5603.95
  998.86        2953.25           2190        1280.00      5577.78
  998.90        2953.50           2193        1292.00      5630.11
  998.93        2953.75           2197        1295.00      5643.19
  998.96        2954.00           2200        1282.00      5586.50
  998.99        2954.25           2204        1313.00      5721.69
  999.02        2954.50           2208        1258.00      5481.84
  999.05        2954.75           2211        1353.00      5896.13
  999.08        2955.00           2215        1354.00      5900.49
  999.11        2955.25           2218        1336.00      5821.99
  999.14        2955.50           2222        1324.00      5769.66
  999.17        2955.75           2225        1329.00      5791.46
  999.20        2956.00           2229        1378.00      6005.15
  999.23        2956.25           2232        1311.00      5712.97
  999.26        2956.50           2236        1374.00      5987.71
  999.29        2956.75           2239        1391.00      6061.84
  999.32        2957.00           2243        1380.00      6013.87
  999.35        2957.25           2246        1403.00      6114.18
  999.38        2957.50           2250        1388.00      6048.76
  999.42        2957.75           2254        1393.00      6070.56
  999.45        2958.00           2257        1454.00      6336.59
  999.48        2958.25           2261        1419.00      6183.95
  999.51        2958.50           2264        1434.00      6249.37
  999.54        2958.75           2268        1474.00      6423.81
  999.57        2959.00           2271        1462.00      6371.48
  999.60        2959.25           2275        1476.00      6432.53
  999.63        2959.50           2278        1535.00      6689.84
  999.66        2959.75           2282        1531.00      6672.39
  999.69        2960.00           2285        1533.00      6681.12
  999.72        2960.25           2289        1529.00      6663.67
  999.75        2960.50           2293        1620.00      7060.54
  999.78        2960.75           2296        1631.00      7108.52
  999.81        2961.00           2300        1657.00      7221.91
  999.84        2961.25           2303        1866.00      8133.46
  999.87        2961.50           2307        4190.00     18273.34
  999.90        2961.75           2310        9779.00     42687.46
  999.94        2962.00           2314       22740.00     99460.90
  999.97        2962.25           2317       35053.00    153600.00
 1000.00        2962.50           2321       53675.00    235860.80
 1000.03        2962.75           2324       67533.00    297378.30
 1000.06        2963.00           2328       85044.00    375483.70
 1000.09        2963.25           2331       98366.00    435185.60
 1000.12        2963.50           2335      116331.00    516083.50
 1000.15        2963.75           2339      135794.00    604236.70
 1000.18        2964.00           2342      150523.00    671305.10
 1000.21        2964.25           2346      168714.00    754567.10
 1000.24        2964.50           2349      182695.00    818885.60
 1000.27        2964.75           2353      200762.00    902426.50
 1000.30        2965.00           2356      213203.00    960234.50
 1000.33        2965.25           2360      231134.00   1043961.00
 1000.36        2965.50           2363      242436.00   1096985.00
 1000.39        2965.75           2367      258759.00   1173910.00
 1000.42        2966.00           2370      268932.00   1222061.00
 1000.46        2966.25           2374      286803.00   1307041.00
 1000.49        2966.50           2378      299549.00   1367958.00
 1000.52        2966.75           2381      303429.00   1386553.00
 1000.55        2967.00           2385      305566.00   1396805.00
 1000.58        2967.25           2388      306153.00   1399623.00
 1000.61        2967.50           2392      304622.00   1392276.00
 1000.64        2967.75           2395      305235.00   1395217.00
 1000.67        2968.00           2399      302711.00   1383110.00
 1000.70        2968.25           2402      296035.00   1351138.00
 1000.73        2968.50           2406      283511.00   1291349.00
 1000.76        2968.75           2409      271636.00   1234887.00
 1000.79        2969.00           2413      254165.00   1152218.00
 1000.82        2969.25           2417      235954.00   1066550.00
 1000.85        2969.50           2420      224418.00   1012545.00
 1000.88        2969.75           2424      207672.00    934505.80
 1000.91        2970.00           2427      193904.00    870658.80
 1000.94        2970.25           2431      176714.00    791335.60
 1000.97        2970.50           2434      162890.00    727858.00
 1001.01        2970.75           2438      144800.00    645208.70
 1001.04        2971.00           2441      130389.00    579702.40
 1001.07        2971.25           2445      112409.00    498384.10
 1001.10        2971.50           2449       92876.00    410552.80
 1001.13        2971.75           2452       79610.00    351201.40
 1001.16        2972.00           2456       61720.00    271542.10
 1001.19        2972.25           2459       48717.00    213914.20
 1001.22        2972.50           2463       31741.00    139017.80
 1001.25        2972.75           2466       18851.00     82402.74
 1001.28        2973.00           2470        5919.00     25821.70
 1001.31        2973.25           2473        2674.00     11658.07
 1001.34        2973.50           2477        1733.00      7553.38
 1001.37        2973.75           2481        1626.00      7086.71
 1001.40        2974.00           2484        1626.00      7086.71
 1001.43        2974.25           2488        1576.00      6868.65
 1001.46        2974.50           2491        1574.00      6859.93
 1001.49        2974.75           2495        1536.00      6694.20
 1001.53        2975.00           2498        1472.00      6415.09
 1001.56        2975.25           2502        1504.00      6554.64
 1001.59        2975.50           2505        1433.00      6245.01
 1001.62        2975.75           2509        1444.00      6292.98
 1001.65        2976.00           2512        1462.00      6371.48
 1001.68        2976.25           2516        1416.00      6170.87
 1001.71        2976.50           2520        1405.00      6122.90
 1001.74        2976.75           2523        1392.00      6066.20
 1001.77        2977.00           2527        1397.00      6088.01
 1001.80        2977.25           2530        1357.00      5913.57
 1001.83        2977.50           2534        1312.00      5717.33
 1001.86        2977.75           2537        1336.00      5821.99
 1001.89        2978.00           2541        1349.00      5878.68
 1001.92        2978.25           2544        1285.00      5599.58
 1001.95        2978.50           2548        1333.00      5808.91
 1001.98        2978.75           2552        1264.00      5508.01
 1002.01        2979.00           2555        1288.00      5612.67
 1002.05        2979.25           2559        1301.00      5669.36
 1002.08        2979.50           2562        1294.00      5638.83
 1002.11        2979.75           2566        1275.00      5555.98
 1002.14        2980.00           2569        1276.00      5560.34
 1002.17        2980.25           2573        1263.00      5503.65
 1002.20        2980.50           2577        1226.00      5342.30
 1002.23        2980.75           2580        1224.00      5333.57
 1002.26        2981.00           2584        1214.00      5289.97
 1002.29        2981.25           2587        1217.00      5303.05
 1002.32        2981.50           2591        1209.00      5268.16
 1002.35        2981.75           2594        1263.00      5503.65
 1002.38        2982.00           2598        1226.00      5342.30
 1002.41        2982.25           2601        1192.00      5194.03
 1002.44        2982.50           2605        1204.00      5246.36
 1002.47        2982.75           2609        1178.00      5132.98
 1002.50        2983.00           2612        1174.00      5115.54
 1002.53        2983.25           2616        1191.00      5189.67
 1002.57        2983.50           2619        1175.00      5119.90
 1002.60        2983.75           2623        1188.00      5176.59
 1002.63        2984.00           2626        1204.00      5246.36
HS scan finished at 16:42:51
end
