************************************************************
  HS Scan of (1) Internal mercury lamp
************************************************************
Integration time is 0.2294 seconds per sample
dh161218Reading 51.44 .94 2.54pr1000
************************************************************
Dead Time -------------------------  3.4E-08 
Number of Cycles Used -------------  4 
Starting Wavelength (Angstroms) ---  2950 
Final Wavelength (Angstoms) -------  2984 
Wavelength Increment (Angstroms) --  .25 
Filter Wheel #1 Position ---------- (1) Ground quartz diffuser (ND=2.32)
Filter Wheel #2 Position ---------- (1) Neutral Density 0.494



************************************************************
HS scan start time = 05:12:59
Dark Count =  .4 


Time (GMT)  Wavelength (Ang)  Step Number  Raw Counts  Counts/Second

  313.89        2950.00           2144        1625.00      7083.66
  314.08        2950.25           2147        1618.00      7053.13
  314.11        2950.50           2151        1616.00      7044.41
  314.14        2950.75           2155        1648.00      7183.97
  314.17        2951.00           2158        1673.00      7293.00
  314.20        2951.25           2162        1597.00      6961.54
  314.23        2951.50           2165        1614.00      7035.68
  314.26        2951.75           2169        1648.00      7183.97
  314.29        2952.00           2172        1644.00      7166.52
  314.32        2952.25           2176        1665.00      7258.11
  314.36        2952.50           2179        1606.00      7000.79
  314.39        2952.75           2183        1665.00      7258.11
  314.42        2953.00           2186        1671.00      7284.28
  314.45        2953.25           2190        1675.00      7301.73
  314.48        2953.50           2193        1661.00      7240.67
  314.51        2953.75           2197        1695.00      7388.95
  314.54        2954.00           2200        1678.00      7314.81
  314.57        2954.25           2204        1686.00      7349.70
  314.60        2954.50           2208        1713.00      7467.46
  314.63        2954.75           2211        1668.00      7271.20
  314.66        2955.00           2215        1715.00      7476.18
  314.69        2955.25           2218        1735.00      7563.41
  314.72        2955.50           2222        1735.00      7563.41
  314.75        2955.75           2225        1712.00      7463.10
  314.78        2956.00           2229        1722.00      7506.71
  314.81        2956.25           2232        1714.00      7471.82
  314.84        2956.50           2236        1735.00      7563.41
  314.87        2956.75           2239        1748.00      7620.11
  314.91        2957.00           2243        1774.00      7733.51
  314.94        2957.25           2246        1763.00      7685.53
  314.97        2957.50           2250        1792.00      7812.01
  315.00        2957.75           2254        1750.00      7628.83
  315.03        2958.00           2257        1852.00      8073.71
  315.06        2958.25           2261        1826.00      7960.31
  315.10        2958.50           2264        1817.00      7921.05
  315.13        2958.75           2268        1811.00      7894.88
  315.16        2959.00           2271        1863.00      8121.68
  315.19        2959.25           2275        1895.00      8261.26
  315.22        2959.50           2278        1915.00      8348.49
  315.25        2959.75           2282        1882.00      8204.56
  315.28        2960.00           2285        1958.00      8536.04
  315.31        2960.25           2289        1990.00      8675.62
  315.34        2960.50           2293        1978.00      8623.28
  315.37        2960.75           2296        1997.00      8706.15
  315.40        2961.00           2300        2104.00      9172.87
  315.43        2961.25           2303        2269.00      9892.60
  315.46        2961.50           2307        4010.00     17489.04
  315.49        2961.75           2310       10681.00     46632.73
  315.52        2962.00           2314       25010.00    109428.20
  315.55        2962.25           2317       36988.00    162127.50
  315.58        2962.50           2321       55033.00    241879.00
  315.62        2962.75           2324       70910.00    312409.80
  315.65        2963.00           2328       92404.00    408438.30
  315.68        2963.25           2331      108326.00    479982.20
  315.71        2963.50           2335      129111.00    573908.80
  315.74        2963.75           2339      148906.00    663928.30
  315.77        2964.00           2342      164688.00    736099.80
  315.80        2964.25           2346      187405.00    840619.40
  315.83        2964.50           2349      204842.00    921360.40
  315.86        2964.75           2353      226573.00   1022619.00
  315.89        2965.00           2356      240532.00   1088040.00
  315.92        2965.25           2360      259709.00   1178401.00
  315.95        2965.50           2363      275579.00   1253611.00
  315.98        2965.75           2367      293682.00   1339887.00
  316.01        2966.00           2370      306783.00   1402649.00
  316.04        2966.25           2374      324023.00   1485659.00
  316.07        2966.50           2378      340771.00   1566764.00
  316.10        2966.75           2381      347239.00   1598210.00
  316.14        2967.00           2385      349205.00   1607782.00
  316.17        2967.25           2388      349961.00   1611464.00
  316.20        2967.50           2392      349964.00   1611479.00
  316.23        2967.75           2395      349311.00   1608298.00
  316.26        2968.00           2399      345999.00   1592176.00
  316.29        2968.25           2402      337371.00   1550262.00
  316.32        2968.50           2406      321166.00   1471869.00
  316.35        2968.75           2409      308475.00   1410774.00
  316.38        2969.00           2413      290167.00   1323094.00
  316.41        2969.25           2417      272940.00   1241078.00
  316.44        2969.50           2420      258808.00   1174143.00
  316.47        2969.75           2424      237717.00   1074823.00
  316.50        2970.00           2427      221072.00    996919.50
  316.53        2970.25           2431      199179.00    895088.90
  316.56        2970.50           2434      182912.00    819887.60
  316.59        2970.75           2438      164154.00    733652.00
  316.62        2971.00           2441      148143.00    660448.10
  316.66        2971.25           2445      128104.00    569344.10
  316.69        2971.50           2449      108751.00    481896.70
  316.72        2971.75           2452       93383.00    412827.30
  316.75        2972.00           2456       72880.00    321185.00
  316.78        2972.25           2459       57156.00    251290.40
  316.81        2972.50           2463       35728.00    156575.00
  316.84        2972.75           2466       22361.00     97798.94
  316.87        2973.00           2470        9393.00     41001.32
  316.90        2973.25           2473        4880.00     21286.54
  316.93        2973.50           2477        2451.00     10686.53
  316.96        2973.75           2481        2069.00      9020.20
  316.99        2974.00           2484        2004.00      8736.68
  317.02        2974.25           2488        1986.00      8658.17
  317.05        2974.50           2491        1996.00      8701.79
  317.08        2974.75           2495        1927.00      8400.83
  317.11        2975.00           2498        1891.00      8243.81
  317.14        2975.25           2502        1876.00      8178.39
  317.17        2975.50           2505        1837.00      8008.28
  317.21        2975.75           2509        1843.00      8034.45
  317.24        2976.00           2512        1856.00      8091.15
  317.27        2976.25           2516        1775.00      7737.87
  317.30        2976.50           2520        1803.00      7859.99
  317.33        2976.75           2523        1756.00      7655.00
  317.36        2977.00           2527        1778.00      7750.95
  317.39        2977.25           2530        1742.00      7593.94
  317.42        2977.50           2534        1717.00      7484.90
  317.45        2977.75           2537        1674.00      7297.36
  317.48        2978.00           2541        1702.00      7419.48
  317.51        2978.25           2544        1653.00      7205.78
  317.54        2978.50           2548        1657.00      7223.22
  317.57        2978.75           2552        1635.00      7127.27
  317.60        2979.00           2555        1648.00      7183.97
  317.63        2979.25           2559        1619.00      7057.49
  317.66        2979.50           2562        1626.00      7088.02
  317.69        2979.75           2566        1638.00      7140.36
  317.73        2980.00           2569        1605.00      6996.43
  317.76        2980.25           2573        1608.00      7009.52
  317.79        2980.50           2577        1584.00      6904.85
  317.82        2980.75           2580        1583.00      6900.49
  317.85        2981.00           2584        1607.00      7005.16
  317.88        2981.25           2587        1585.00      6909.21
  317.91        2981.50           2591        1548.00      6747.84
  317.94        2981.75           2594        1544.00      6730.40
  317.97        2982.00           2598        1542.00      6721.68
  318.00        2982.25           2601        1542.00      6721.68
  318.03        2982.50           2605        1543.00      6726.04
  318.06        2982.75           2609        1556.00      6782.73
  318.09        2983.00           2612        1550.00      6756.57
  318.12        2983.25           2616        1518.00      6617.01
  318.15        2983.50           2619        1528.00      6660.62
  318.18        2983.75           2623        1558.00      6791.45
  318.21        2984.00           2626        1536.00      6695.51
HS scan finished at 05:18:26
end
************************************************************
  HS Scan of (1) Internal mercury lamp
************************************************************
Integration time is 0.2294 seconds per sample
dh161218Reading 51.44 .94 2.88pr1000
************************************************************
Dead Time -------------------------  3.4E-08 
Number of Cycles Used -------------  4 
Starting Wavelength (Angstroms) ---  2950 
Final Wavelength (Angstoms) -------  2984 
Wavelength Increment (Angstroms) --  .25 
Filter Wheel #1 Position ---------- (1) Ground quartz diffuser (ND=2.32)
Filter Wheel #2 Position ---------- (1) Neutral Density 0.494



************************************************************
HS scan start time = 16:37:20
Dark Count =  .7 


Time (GMT)  Wavelength (Ang)  Step Number  Raw Counts  Counts/Second

  998.24        2950.00           2144        1361.00      5931.01
  998.43        2950.25           2147        1435.00      6253.73
  998.46        2950.50           2151        1416.00      6170.87
  998.49        2950.75           2155        1369.00      5965.90
  998.52        2951.00           2158        1459.00      6358.39
  998.55        2951.25           2162        1424.00      6205.76
  998.58        2951.50           2165        1420.00      6188.31
  998.61        2951.75           2169        1423.00      6201.40
  998.64        2952.00           2172        1450.00      6319.14
  998.67        2952.25           2176        1437.00      6262.45
  998.71        2952.50           2179        1413.00      6157.78
  998.74        2952.75           2183        1446.00      6301.70
  998.77        2953.00           2186        1428.00      6223.20
  998.80        2953.25           2190        1423.00      6201.40
  998.83        2953.50           2193        1453.00      6332.23
  998.86        2953.75           2197        1444.00      6292.98
  998.89        2954.00           2200        1441.00      6279.89
  998.92        2954.25           2204        1445.00      6297.34
  998.95        2954.50           2208        1485.00      6471.78
  998.98        2954.75           2211        1470.00      6406.36
  999.01        2955.00           2215        1471.00      6410.73
  999.04        2955.25           2218        1495.00      6515.39
  999.07        2955.50           2222        1467.00      6393.28
  999.10        2955.75           2225        1499.00      6532.84
  999.13        2956.00           2229        1492.00      6502.31
  999.16        2956.25           2232        1504.00      6554.64
  999.19        2956.50           2236        1539.00      6707.28
  999.23        2956.75           2239        1522.00      6633.14
  999.26        2957.00           2243        1539.00      6707.28
  999.29        2957.25           2246        1544.00      6729.09
  999.32        2957.50           2250        1557.00      6785.79
  999.35        2957.75           2254        1591.00      6934.07
  999.38        2958.00           2257        1553.00      6768.34
  999.41        2958.25           2261        1631.00      7108.52
  999.44        2958.50           2264        1608.00      7008.21
  999.47        2958.75           2268        1624.00      7077.99
  999.50        2959.00           2271        1617.00      7047.46
  999.53        2959.25           2275        1615.00      7038.74
  999.56        2959.50           2278        1654.00      7208.83
  999.59        2959.75           2282        1675.00      7300.42
  999.62        2960.00           2285        1701.00      7413.81
  999.65        2960.25           2289        1738.00      7575.19
  999.68        2960.50           2293        1745.00      7605.72
  999.71        2960.75           2296        1758.00      7662.42
  999.75        2961.00           2300        1844.00      8037.51
  999.78        2961.25           2303        1942.00      8464.95
  999.81        2961.50           2307        3000.00     13080.36
  999.84        2961.75           2310        7459.00     32548.20
  999.87        2962.00           2314       20442.00     89378.88
  999.90        2962.25           2317       32381.00    141834.50
  999.93        2962.50           2321       48358.00    212326.30
  999.96        2962.75           2324       63186.00    278053.50
  999.99        2963.00           2328       84950.00    375063.30
 1000.02        2963.25           2331      100694.00    445643.50
 1000.05        2963.50           2335      121296.00    538520.60
 1000.08        2963.75           2339      141746.00    631301.90
 1000.11        2964.00           2342      156390.00    698106.90
 1000.14        2964.25           2346      178094.00    797687.60
 1000.17        2964.50           2349      193684.00    869640.80
 1000.20        2964.75           2353      212548.00    957185.20
 1000.23        2965.00           2356      226968.00   1024465.00
 1000.27        2965.25           2360      246207.00   1114720.00
 1000.30        2965.50           2363      260567.00   1182456.00
 1000.33        2965.75           2367      279805.00   1273704.00
 1000.36        2966.00           2370      293569.00   1339345.00
 1000.39        2966.25           2374      308760.00   1412142.00
 1000.42        2966.50           2378      321928.00   1475545.00
 1000.45        2966.75           2381      328338.00   1506510.00
 1000.48        2967.00           2385      330758.00   1518218.00
 1000.51        2967.25           2388      330703.00   1517952.00
 1000.54        2967.50           2392      330838.00   1518605.00
 1000.57        2967.75           2395      330661.00   1517748.00
 1000.60        2968.00           2399      327426.00   1502100.00
 1000.63        2968.25           2402      320335.00   1467860.00
 1000.66        2968.50           2406      303951.00   1389057.00
 1000.69        2968.75           2409      289877.00   1321709.00
 1000.72        2969.00           2413      272077.00   1236980.00
 1000.75        2969.25           2417      254777.00   1155106.00
 1000.79        2969.50           2420      241567.00   1092901.00
 1000.82        2969.75           2424      222060.00   1001530.00
 1000.85        2970.00           2427      208007.00    936062.80
 1000.88        2970.25           2431      188624.00    846247.90
 1000.91        2970.50           2434      172504.00    771974.50
 1000.94        2970.75           2438      151089.00    673888.50
 1000.97        2971.00           2441      134600.00    598813.40
 1001.00        2971.25           2445      115235.00    511135.20
 1001.03        2971.50           2449       97631.00    431885.30
 1001.06        2971.75           2452       85046.00    375492.60
 1001.09        2972.00           2456       67643.00    297867.60
 1001.12        2972.25           2459       51707.00    227145.50
 1001.15        2972.50           2463       32096.00    140580.10
 1001.18        2972.75           2466       19778.00     86467.00
 1001.21        2973.00           2470        7036.00     30700.30
 1001.24        2973.25           2473        3253.00     14184.26
 1001.27        2973.50           2477        2047.00      8922.93
 1001.31        2973.75           2481        1832.00      7985.17
 1001.34        2974.00           2484        1788.00      7793.26
 1001.37        2974.25           2488        1736.00      7566.46
 1001.40        2974.50           2491        1685.00      7344.03
 1001.43        2974.75           2495        1686.00      7348.39
 1001.46        2975.00           2498        1686.00      7348.39
 1001.49        2975.25           2502        1664.00      7252.44
 1001.52        2975.50           2505        1653.00      7204.47
 1001.55        2975.75           2509        1602.00      6982.04
 1001.58        2976.00           2512        1595.00      6951.51
 1001.61        2976.25           2516        1616.00      7043.10
 1001.64        2976.50           2520        1544.00      6729.09
 1001.67        2976.75           2523        1543.00      6724.73
 1001.70        2977.00           2527        1564.00      6816.31
 1001.73        2977.25           2530        1543.00      6724.73
 1001.76        2977.50           2534        1493.00      6506.67
 1001.79        2977.75           2537        1506.00      6563.37
 1001.83        2978.00           2541        1480.00      6449.98
 1001.86        2978.25           2544        1487.00      6480.50
 1001.89        2978.50           2548        1474.00      6423.81
 1001.92        2978.75           2552        1441.00      6279.89
 1001.95        2979.00           2555        1488.00      6484.87
 1001.98        2979.25           2559        1441.00      6279.89
 1002.01        2979.50           2562        1444.00      6292.98
 1002.04        2979.75           2566        1433.00      6245.01
 1002.07        2980.00           2569        1420.00      6188.31
 1002.10        2980.25           2573        1441.00      6279.89
 1002.13        2980.50           2577        1393.00      6070.56
 1002.16        2980.75           2580        1383.00      6026.95
 1002.19        2981.00           2584        1370.00      5970.26
 1002.22        2981.25           2587        1375.00      5992.07
 1002.25        2981.50           2591        1367.00      5957.18
 1002.28        2981.75           2594        1391.00      6061.84
 1002.31        2982.00           2598        1349.00      5878.68
 1002.34        2982.25           2601        1330.00      5795.82
 1002.38        2982.50           2605        1344.00      5856.88
 1002.41        2982.75           2609        1340.00      5839.43
 1002.44        2983.00           2612        1368.00      5961.54
 1002.47        2983.25           2616        1344.00      5856.88
 1002.50        2983.50           2619        1314.00      5726.05
 1002.53        2983.75           2623        1306.00      5691.16
 1002.56        2984.00           2626        1315.00      5730.41
HS scan finished at 16:42:47
end
