************************************************************
  HS Scan of (1) Internal mercury lamp
************************************************************
Integration time is 0.2294 seconds per sample
dh221218Reading 51.44 .94 2.88pr1000
************************************************************
Dead Time -------------------------  3.4E-08 
Number of Cycles Used -------------  4 
Starting Wavelength (Angstroms) ---  2950 
Final Wavelength (Angstoms) -------  2984 
Wavelength Increment (Angstroms) --  .25 
Filter Wheel #1 Position ---------- (1) Ground quartz diffuser (ND=2.32)
Filter Wheel #2 Position ---------- (1) Neutral Density 0.494



************************************************************
HS scan start time = 05:13:35
Dark Count =  .8 


Time (GMT)  Wavelength (Ang)  Step Number  Raw Counts  Counts/Second

  314.48        2950.00           2144        1554.00      6772.27
  314.67        2950.25           2147        1562.00      6807.16
  314.70        2950.50           2151        1634.00      7121.17
  314.73        2950.75           2155        1616.00      7042.66
  314.76        2951.00           2158        1621.00      7064.47
  314.79        2951.25           2162        1578.00      6876.94
  314.83        2951.50           2165        1614.00      7033.94
  314.86        2951.75           2169        1607.00      7003.41
  314.89        2952.00           2172        1627.00      7090.64
  314.92        2952.25           2176        1583.00      6898.74
  314.95        2952.50           2179        1603.00      6985.97
  314.98        2952.75           2183        1624.00      7077.55
  315.01        2953.00           2186        1640.00      7147.33
  315.04        2953.25           2190        1643.00      7160.42
  315.07        2953.50           2193        1638.00      7138.61
  315.10        2953.75           2197        1642.00      7156.06
  315.13        2954.00           2200        1618.00      7051.39
  315.16        2954.25           2204        1614.00      7033.94
  315.19        2954.50           2208        1684.00      7339.23
  315.22        2954.75           2211        1639.00      7142.97
  315.25        2955.00           2215        1693.00      7378.49
  315.28        2955.25           2218        1671.00      7282.54
  315.31        2955.50           2222        1673.00      7291.26
  315.35        2955.75           2225        1695.00      7387.21
  315.38        2956.00           2229        1725.00      7518.05
  315.41        2956.25           2232        1707.00      7439.55
  315.44        2956.50           2236        1713.00      7465.71
  315.47        2956.75           2239        1727.00      7526.77
  315.50        2957.00           2243        1736.00      7566.03
  315.53        2957.25           2246        1765.00      7692.51
  315.56        2957.50           2250        1762.00      7679.43
  315.59        2957.75           2254        1804.00      7862.61
  315.62        2958.00           2257        1761.00      7675.06
  315.65        2958.25           2261        1802.00      7853.88
  315.68        2958.50           2264        1806.00      7871.33
  315.71        2958.75           2268        1816.00      7914.95
  315.74        2959.00           2271        1816.00      7914.95
  315.77        2959.25           2275        1914.00      8342.38
  315.80        2959.50           2278        1914.00      8342.38
  315.83        2959.75           2282        1970.00      8586.64
  315.86        2960.00           2285        1979.00      8625.89
  315.90        2960.25           2289        1927.00      8399.09
  315.93        2960.50           2293        1998.00      8708.77
  315.96        2960.75           2296        2046.00      8918.14
  315.99        2961.00           2300        2212.00      9642.22
  316.02        2961.25           2303        2454.00     10697.88
  316.05        2961.50           2307        6164.00     26891.18
  316.08        2961.75           2310       14423.00     63004.05
  316.11        2962.00           2314       31444.00    137710.40
  316.14        2962.25           2317       46653.00    204787.10
  316.17        2962.50           2321       69817.00    307541.70
  316.20        2962.75           2324       88493.00    390916.40
  316.23        2963.00           2328      111788.00    495583.10
  316.26        2963.25           2331      127427.00    566274.50
  316.29        2963.50           2335      150287.00    670227.60
  316.32        2963.75           2339      174765.00    782368.80
  316.35        2964.00           2342      194816.00    874878.90
  316.38        2964.25           2346      219240.00    988368.90
  316.42        2964.50           2349      235648.00   1065115.00
  316.45        2964.75           2353      257344.00   1167225.00
  316.48        2965.00           2356      274578.00   1248854.00
  316.51        2965.25           2360      294150.00   1342122.00
  316.54        2965.50           2363      310302.00   1419552.00
  316.57        2965.75           2367      333579.00   1531877.00
  316.60        2966.00           2370      349343.00   1608452.00
  316.63        2966.25           2374      370131.00   1710062.00
  316.66        2966.50           2378      384622.00   1781324.00
  316.69        2966.75           2381      390012.00   1807921.00
  316.72        2967.00           2385      391998.00   1817734.00
  316.75        2967.25           2388      392247.00   1818964.00
  316.78        2967.50           2392      393011.00   1822741.00
  316.81        2967.75           2395      392686.00   1821134.00
  316.84        2968.00           2399      388710.00   1801492.00
  316.87        2968.25           2402      378739.00   1752350.00
  316.90        2968.50           2406      361583.00   1668193.00
  316.94        2968.75           2409      347636.00   1600140.00
  316.97        2969.00           2413      327759.00   1503710.00
  317.00        2969.25           2417      305088.00   1394511.00
  317.03        2969.50           2420      288423.00   1314768.00
  317.06        2969.75           2424      265243.00   1204581.00
  317.09        2970.00           2427      249603.00   1130710.00
  317.12        2970.25           2431      224877.00   1014689.00
  317.15        2970.50           2434      207943.00    935764.90
  317.18        2970.75           2438      186975.00    838632.20
  317.21        2971.00           2441      168196.00    752189.10
  317.24        2971.25           2445      141646.00    630846.30
  317.27        2971.50           2449      118193.00    524493.50
  317.30        2971.75           2452      100955.00    446816.00
  317.33        2972.00           2456       78746.00    347343.80
  317.36        2972.25           2459       61745.00    271652.70
  317.39        2972.50           2463       38742.00    169858.70
  317.42        2972.75           2466       22325.00     97639.19
  317.46        2973.00           2470        7001.00     30546.97
  317.49        2973.25           2473        3377.00     14724.90
  317.52        2973.50           2477        2228.00      9712.01
  317.55        2973.75           2481        2048.00      8926.86
  317.58        2974.00           2484        2023.00      8817.81
  317.61        2974.25           2488        1974.00      8604.09
  317.64        2974.50           2491        1969.00      8582.28
  317.67        2974.75           2495        1956.00      8525.57
  317.70        2975.00           2498        1903.00      8294.41
  317.73        2975.25           2502        1821.00      7936.75
  317.76        2975.50           2505        1897.00      8268.24
  317.79        2975.75           2509        1835.00      7997.82
  317.82        2976.00           2512        1839.00      8015.26
  317.85        2976.25           2516        1798.00      7836.44
  317.88        2976.50           2520        1741.00      7587.83
  317.91        2976.75           2523        1755.00      7648.89
  317.94        2977.00           2527        1736.00      7566.03
  317.98        2977.25           2530        1736.00      7566.03
  318.01        2977.50           2534        1690.00      7365.40
  318.04        2977.75           2537        1692.00      7374.12
  318.07        2978.00           2541        1679.00      7317.43
  318.10        2978.25           2544        1619.00      7055.75
  318.13        2978.50           2548        1634.00      7121.17
  318.16        2978.75           2552        1621.00      7064.47
  318.19        2979.00           2555        1616.00      7042.66
  318.22        2979.25           2559        1640.00      7147.33
  318.25        2979.50           2562        1628.00      7095.00
  318.28        2979.75           2566        1617.00      7047.02
  318.31        2980.00           2569        1571.00      6846.41
  318.34        2980.25           2573        1567.00      6828.96
  318.37        2980.50           2577        1550.00      6754.82
  318.40        2980.75           2580        1569.00      6837.68
  318.43        2981.00           2584        1531.00      6671.96
  318.46        2981.25           2587        1571.00      6846.41
  318.50        2981.50           2591        1544.00      6728.65
  318.53        2981.75           2594        1539.00      6706.85
  318.56        2982.00           2598        1508.00      6571.65
  318.59        2982.25           2601        1519.00      6619.62
  318.62        2982.50           2605        1512.00      6589.10
  318.65        2982.75           2609        1531.00      6671.96
  318.68        2983.00           2612        1514.00      6597.82
  318.71        2983.25           2616        1505.00      6558.57
  318.74        2983.50           2619        1464.00      6379.76
  318.77        2983.75           2623        1538.00      6702.49
  318.80        2984.00           2626        1470.00      6405.93
HS scan finished at 05:19:01
end
************************************************************
  HS Scan of (1) Internal mercury lamp
************************************************************
Integration time is 0.2294 seconds per sample
dh221218Reading 51.44 .94 2.92pr1000
************************************************************
Dead Time -------------------------  3.4E-08 
Number of Cycles Used -------------  4 
Starting Wavelength (Angstroms) ---  2950 
Final Wavelength (Angstoms) -------  2984 
Wavelength Increment (Angstroms) --  .25 
Filter Wheel #1 Position ---------- (1) Ground quartz diffuser (ND=2.32)
Filter Wheel #2 Position ---------- (1) Neutral Density 0.494



************************************************************
HS scan start time = 17:07:28
Dark Count =  .9 


Time (GMT)  Wavelength (Ang)  Step Number  Raw Counts  Counts/Second

 1028.36        2950.00           2144        1209.00      5267.29
 1028.55        2950.25           2147        1261.00      5494.05
 1028.58        2950.50           2151        1217.00      5302.18
 1028.62        2950.75           2155        1251.00      5450.44
 1028.65        2951.00           2158        1220.00      5315.26
 1028.68        2951.25           2162        1192.00      5193.16
 1028.71        2951.50           2165        1241.00      5406.84
 1028.74        2951.75           2169        1253.00      5459.17
 1028.77        2952.00           2172        1222.00      5323.98
 1028.80        2952.25           2176        1270.00      5533.30
 1028.83        2952.50           2179        1290.00      5620.52
 1028.86        2952.75           2183        1249.00      5441.72
 1028.89        2953.00           2186        1306.00      5690.29
 1028.92        2953.25           2190        1266.00      5515.86
 1028.95        2953.50           2193        1248.00      5437.36
 1028.98        2953.75           2197        1254.00      5463.53
 1029.01        2954.00           2200        1282.00      5585.63
 1029.04        2954.25           2204        1303.00      5677.21
 1029.07        2954.50           2208        1289.00      5616.16
 1029.10        2954.75           2211        1279.00      5572.55
 1029.14        2955.00           2215        1308.00      5699.01
 1029.17        2955.25           2218        1277.00      5563.82
 1029.20        2955.50           2222        1277.00      5563.82
 1029.23        2955.75           2225        1294.00      5637.96
 1029.26        2956.00           2229        1336.00      5821.12
 1029.29        2956.25           2232        1320.00      5751.34
 1029.32        2956.50           2236        1349.00      5877.81
 1029.35        2956.75           2239        1343.00      5851.64
 1029.38        2957.00           2243        1347.00      5869.09
 1029.41        2957.25           2246        1393.00      6069.69
 1029.44        2957.50           2250        1385.00      6034.80
 1029.47        2957.75           2254        1370.00      5969.39
 1029.50        2958.00           2257        1392.00      6065.33
 1029.53        2958.25           2261        1383.00      6026.08
 1029.56        2958.50           2264        1423.00      6200.52
 1029.59        2958.75           2268        1401.00      6104.58
 1029.62        2959.00           2271        1452.00      6326.99
 1029.66        2959.25           2275        1442.00      6283.38
 1029.69        2959.50           2278        1474.00      6422.94
 1029.72        2959.75           2282        1501.00      6540.69
 1029.75        2960.00           2285        1533.00      6680.24
 1029.78        2960.25           2289        1536.00      6693.33
 1029.81        2960.50           2293        1543.00      6723.86
 1029.84        2960.75           2296        1593.00      6941.92
 1029.87        2961.00           2300        1656.00      7216.68
 1029.90        2961.25           2303        1906.00      8307.06
 1029.93        2961.50           2307        4425.00     19298.19
 1029.96        2961.75           2310       10629.00     46403.15
 1029.99        2962.00           2314       24030.00    105122.70
 1030.02        2962.25           2317       36136.00    158370.50
 1030.05        2962.50           2321       52830.00    232117.20
 1030.08        2962.75           2324       66183.00    291373.20
 1030.11        2963.00           2328       83842.00    370108.10
 1030.14        2963.25           2331       98233.00    434587.50
 1030.18        2963.50           2335      118416.00    525500.60
 1030.21        2963.75           2339      136338.00    606707.40
 1030.24        2964.00           2342      148079.00    660154.00
 1030.27        2964.25           2346      166256.00    743287.80
 1030.30        2964.50           2349      180593.00    809196.40
 1030.33        2964.75           2353      199617.00    897116.80
 1030.36        2965.00           2356      212243.00    955764.60
 1030.39        2965.25           2360      229014.00   1034036.00
 1030.42        2965.50           2363      241242.00   1091373.00
 1030.45        2965.75           2367      256015.00   1160949.00
 1030.48        2966.00           2370      268762.00   1221254.00
 1030.51        2966.25           2374      285914.00   1302800.00
 1030.54        2966.50           2378      300364.00   1371861.00
 1030.57        2966.75           2381      305859.00   1398211.00
 1030.60        2967.00           2385      307112.00   1404226.00
 1030.63        2967.25           2388      307768.00   1407376.00
 1030.66        2967.50           2392      308263.00   1409753.00
 1030.70        2967.75           2395      307593.00   1406536.00
 1030.73        2968.00           2399      305958.00   1398686.00
 1030.76        2968.25           2402      300704.00   1373490.00
 1030.79        2968.50           2406      286903.00   1307516.00
 1030.82        2968.75           2409      274602.00   1248967.00
 1030.85        2969.00           2413      257646.00   1168651.00
 1030.88        2969.25           2417      240575.00   1088239.00
 1030.91        2969.50           2420      228344.00   1030901.00
 1030.94        2969.75           2424      211655.00    953028.10
 1030.97        2970.00           2427      197230.00    886055.80
 1031.00        2970.25           2431      177698.00    795863.60
 1031.03        2970.50           2434      164073.00    733278.50
 1031.06        2970.75           2438      145446.00    648151.10
 1031.09        2971.00           2441      131539.00    584918.10
 1031.12        2971.25           2445      112691.00    499655.10
 1031.15        2971.50           2449       92903.00    410673.00
 1031.18        2971.75           2452       78195.00    344884.10
 1031.21        2972.00           2456       58926.00    259139.40
 1031.25        2972.25           2459       45403.00    199262.20
 1031.28        2972.50           2463       29125.00    127509.30
 1031.31        2972.75           2466       17007.00     74320.52
 1031.34        2973.00           2470        5992.00     26139.62
 1031.37        2973.25           2473        2911.00     12691.18
 1031.40        2973.50           2477        1780.00      7757.50
 1031.43        2973.75           2481        1676.00      7303.91
 1031.46        2974.00           2484        1591.00      6933.20
 1031.49        2974.25           2488        1542.00      6719.50
 1031.52        2974.50           2491        1503.00      6549.41
 1031.55        2974.75           2495        1513.00      6593.02
 1031.58        2975.00           2498        1513.00      6593.02
 1031.61        2975.25           2502        1464.00      6379.33
 1031.64        2975.50           2505        1468.00      6396.77
 1031.67        2975.75           2509        1454.00      6335.72
 1031.70        2976.00           2512        1453.00      6331.35
 1031.73        2976.25           2516        1413.00      6156.91
 1031.77        2976.50           2520        1384.00      6030.44
 1031.80        2976.75           2523        1336.00      5821.12
 1031.83        2977.00           2527        1333.00      5808.03
 1031.86        2977.25           2530        1340.00      5838.56
 1031.89        2977.50           2534        1348.00      5873.45
 1031.92        2977.75           2537        1299.00      5659.76
 1031.95        2978.00           2541        1308.00      5699.01
 1031.98        2978.25           2544        1281.00      5581.27
 1032.01        2978.50           2548        1282.00      5585.63
 1032.04        2978.75           2552        1309.00      5703.37
 1032.07        2979.00           2555        1304.00      5681.57
 1032.10        2979.25           2559        1236.00      5385.03
 1032.13        2979.50           2562        1276.00      5559.46
 1032.16        2979.75           2566        1243.00      5415.56
 1032.19        2980.00           2569        1231.00      5363.23
 1032.22        2980.25           2573        1213.00      5284.73
 1032.26        2980.50           2577        1210.00      5271.65
 1032.29        2980.75           2580        1219.00      5310.90
 1032.32        2981.00           2584        1213.00      5284.73
 1032.35        2981.25           2587        1206.00      5254.21
 1032.38        2981.50           2591        1218.00      5306.54
 1032.41        2981.75           2594        1232.00      5367.59
 1032.44        2982.00           2598        1207.00      5258.57
 1032.47        2982.25           2601        1176.00      5123.39
 1032.50        2982.50           2605        1183.00      5153.91
 1032.53        2982.75           2609        1140.00      4966.40
 1032.56        2983.00           2612        1162.00      5062.34
 1032.59        2983.25           2616        1193.00      5197.52
 1032.62        2983.50           2619        1162.00      5062.34
 1032.65        2983.75           2623        1172.00      5105.94
 1032.68        2984.00           2626        1157.00      5040.53
HS scan finished at 17:12:54
end
