************************************************************
  HS Scan of (1) Internal mercury lamp
************************************************************
Integration time is 0.2294 seconds per sample
dh191218Reading 51.44 .94 2.8pr1000
************************************************************
Dead Time -------------------------  3.4E-08 
Number of Cycles Used -------------  4 
Starting Wavelength (Angstroms) ---  2950 
Final Wavelength (Angstoms) -------  2984 
Wavelength Increment (Angstroms) --  .25 
Filter Wheel #1 Position ---------- (1) Ground quartz diffuser (ND=2.32)
Filter Wheel #2 Position ---------- (1) Neutral Density 0.494



************************************************************
HS scan start time = 05:12:02
Dark Count =  .5 


Time (GMT)  Wavelength (Ang)  Step Number  Raw Counts  Counts/Second

  312.93        2950.00           2144        1583.00      6900.05
  313.12        2950.25           2147        1540.00      6712.52
  313.15        2950.50           2151        1554.00      6773.57
  313.18        2950.75           2155        1572.00      6852.08
  313.21        2951.00           2158        1580.00      6886.97
  313.24        2951.25           2162        1630.00      7105.03
  313.27        2951.50           2165        1569.00      6838.99
  313.31        2951.75           2169        1573.00      6856.44
  313.34        2952.00           2172        1615.00      7039.61
  313.37        2952.25           2176        1616.00      7043.97
  313.40        2952.50           2179        1643.00      7161.73
  313.43        2952.75           2183        1597.00      6961.11
  313.46        2953.00           2186        1627.00      7091.95
  313.49        2953.25           2190        1646.00      7174.81
  313.52        2953.50           2193        1656.00      7218.42
  313.55        2953.75           2197        1651.00      7196.62
  313.58        2954.00           2200        1699.00      7405.96
  313.61        2954.25           2204        1641.00      7153.00
  313.64        2954.50           2208        1672.00      7288.21
  313.67        2954.75           2211        1714.00      7471.38
  313.70        2955.00           2215        1678.00      7314.37
  313.73        2955.25           2218        1687.00      7353.63
  313.76        2955.50           2222        1671.00      7283.84
  313.79        2955.75           2225        1720.00      7497.55
  313.82        2956.00           2229        1720.00      7497.55
  313.86        2956.25           2232        1747.00      7615.31
  313.89        2956.50           2236        1782.00      7767.96
  313.92        2956.75           2239        1755.00      7650.20
  313.95        2957.00           2243        1754.00      7645.84
  313.98        2957.25           2246        1746.00      7610.95
  314.01        2957.50           2250        1751.00      7632.76
  314.04        2957.75           2254        1807.00      7877.00
  314.07        2958.00           2257        1863.00      8121.25
  314.10        2958.25           2261        1852.00      8073.27
  314.13        2958.50           2264        1864.00      8125.61
  314.16        2958.75           2268        1898.00      8273.91
  314.19        2959.00           2271        1877.00      8182.31
  314.22        2959.25           2275        1952.00      8509.44
  314.25        2959.50           2278        2002.00      8727.52
  314.28        2959.75           2282        1973.00      8601.03
  314.31        2960.00           2285        2015.00      8784.23
  314.34        2960.25           2289        2042.00      8902.00
  314.38        2960.50           2293        2082.00      9076.47
  314.41        2960.75           2296        2119.00      9237.86
  314.44        2961.00           2300        2254.00      9826.74
  314.47        2961.25           2303        2779.00     12117.02
  314.50        2961.50           2307        7890.00     34432.18
  314.53        2961.75           2310       18299.00     79984.00
  314.56        2962.00           2314       37449.00    164159.10
  314.59        2962.25           2317       52962.00    232703.50
  314.62        2962.50           2321       77112.00    340053.30
  314.65        2962.75           2324       95861.00    423941.80
  314.68        2963.00           2328      123460.00    548311.70
  314.71        2963.25           2331      144399.00    643382.80
  314.74        2963.50           2335      172291.00    770996.70
  314.77        2963.75           2339      197144.00    885659.40
  314.80        2964.00           2342      214680.00    967113.80
  314.83        2964.25           2346      240691.00   1088786.00
  314.86        2964.50           2349      262385.00   1191055.00
  314.90        2964.75           2353      291296.00   1328485.00
  314.93        2965.00           2356      310917.00   1422510.00
  314.96        2965.25           2360      334296.00   1535353.00
  314.99        2965.50           2363      350777.00   1615440.00
  315.02        2965.75           2367      373466.00   1726433.00
  315.05        2966.00           2370      391023.00   1812917.00
  315.08        2966.25           2374      413610.00   1924957.00
  315.11        2966.50           2378      431542.00   2014540.00
  315.14        2966.75           2381      437365.00   2043752.00
  315.17        2967.00           2385      439808.00   2056026.00
  315.20        2967.25           2388      440106.00   2057524.00
  315.23        2967.50           2392      436321.00   2038510.00
  315.26        2967.75           2395      439875.00   2056362.00
  315.29        2968.00           2399      437094.00   2042391.00
  315.32        2968.25           2402      427755.00   1995574.00
  315.35        2968.50           2406      405984.00   1887031.00
  315.38        2968.75           2409      388536.00   1800634.00
  315.42        2969.00           2413      364742.00   1683653.00
  315.45        2969.25           2417      339746.00   1561787.00
  315.48        2969.50           2420      322023.00   1476004.00
  315.51        2969.75           2424      297580.00   1358531.00
  315.54        2970.00           2427      279490.00   1272206.00
  315.57        2970.25           2431      251933.00   1141692.00
  315.60        2970.50           2434      231241.00   1044463.00
  315.63        2970.75           2438      203893.00    916954.10
  315.66        2971.00           2441      184268.00    826140.90
  315.69        2971.25           2445      157618.00    703723.80
  315.72        2971.50           2449      129609.00    576166.20
  315.75        2971.75           2452      106383.00    471232.30
  315.78        2972.00           2456       79294.00    349791.50
  315.81        2972.25           2459       60377.00    265580.50
  315.84        2972.50           2463       36879.00    161646.70
  315.87        2972.75           2466       20100.00     87879.89
  315.90        2973.00           2470        6915.00     30172.61
  315.94        2973.25           2473        3569.00     15564.03
  315.97        2973.50           2477        2362.00     10297.85
  316.00        2973.75           2481        2190.00      9547.56
  316.03        2974.00           2484        2154.00      9390.53
  316.06        2974.25           2488        2121.00      9246.59
  316.09        2974.50           2491        2116.00      9224.78
  316.12        2974.75           2495        2006.00      8744.97
  316.15        2975.00           2498        2002.00      8727.52
  316.18        2975.25           2502        1994.00      8692.63
  316.21        2975.50           2505        1968.00      8579.22
  316.24        2975.75           2509        1938.00      8448.37
  316.28        2976.00           2512        1934.00      8430.93
  316.32        2976.25           2516        1867.00      8138.70
  316.35        2976.50           2520        1870.00      8151.78
  316.38        2976.75           2523        1830.00      7977.32
  316.41        2977.00           2527        1840.00      8020.93
  316.44        2977.25           2530        1815.00      7911.89
  316.47        2977.50           2534        1798.00      7837.75
  316.50        2977.75           2537        1760.00      7672.01
  316.53        2978.00           2541        1765.00      7693.82
  316.56        2978.25           2544        1770.00      7715.63
  316.59        2978.50           2548        1736.00      7567.34
  316.62        2978.75           2552        1709.00      7449.58
  316.65        2979.00           2555        1675.00      7301.29
  316.68        2979.25           2559        1666.00      7262.04
  316.72        2979.50           2562        1666.00      7262.04
  316.75        2979.75           2566        1660.00      7235.87
  316.78        2980.00           2569        1713.00      7467.02
  316.81        2980.25           2573        1606.00      7000.36
  316.84        2980.50           2577        1627.00      7091.95
  316.87        2980.75           2580        1635.00      7126.84
  316.90        2981.00           2584        1635.00      7126.84
  316.93        2981.25           2587        1563.00      6812.82
  316.96        2981.50           2591        1629.00      7100.67
  316.99        2981.75           2594        1591.00      6934.94
  317.02        2982.00           2598        1583.00      6900.05
  317.05        2982.25           2601        1574.00      6860.80
  317.08        2982.50           2605        1615.00      7039.61
  317.11        2982.75           2609        1563.00      6812.82
  317.14        2983.00           2612        1536.00      6695.07
  317.17        2983.25           2616        1535.00      6690.71
  317.20        2983.50           2619        1559.00      6795.38
  317.23        2983.75           2623        1558.00      6791.02
  317.27        2984.00           2626        1543.00      6725.60
HS scan finished at 05:17:29
end
************************************************************
  HS Scan of (1) Internal mercury lamp
************************************************************
Integration time is 0.2294 seconds per sample
dh191218Reading 51.44 .94 2.94pr1000
************************************************************
Dead Time -------------------------  3.4E-08 
Number of Cycles Used -------------  4 
Starting Wavelength (Angstroms) ---  2950 
Final Wavelength (Angstoms) -------  2984 
Wavelength Increment (Angstroms) --  .25 
Filter Wheel #1 Position ---------- (1) Ground quartz diffuser (ND=2.32)
Filter Wheel #2 Position ---------- (1) Neutral Density 0.494



************************************************************
HS scan start time = 16:38:40
Dark Count =  .7 


Time (GMT)  Wavelength (Ang)  Step Number  Raw Counts  Counts/Second

  999.57        2950.00           2144         961.00      4186.73
  999.76        2950.25           2147         972.00      4234.70
  999.79        2950.50           2151         930.00      4051.56
  999.82        2950.75           2155         963.00      4195.46
  999.85        2951.00           2158         943.00      4108.25
  999.88        2951.25           2162         946.00      4121.33
  999.91        2951.50           2165         918.00      3999.24
  999.94        2951.75           2169         968.00      4217.26
  999.97        2952.00           2172         975.00      4247.78
 1000.00        2952.25           2176         978.00      4260.86
 1000.04        2952.50           2179         984.00      4287.02
 1000.07        2952.75           2183         963.00      4195.46
 1000.10        2953.00           2186        1001.00      4361.15
 1000.13        2953.25           2190         993.00      4326.27
 1000.16        2953.50           2193         989.00      4308.83
 1000.19        2953.75           2197        1000.00      4356.79
 1000.22        2954.00           2200         983.00      4282.66
 1000.25        2954.25           2204         988.00      4304.47
 1000.28        2954.50           2208        1016.00      4426.56
 1000.31        2954.75           2211        1001.00      4361.15
 1000.34        2955.00           2215         986.00      4295.75
 1000.37        2955.25           2218        1010.00      4400.40
 1000.40        2955.50           2222        1016.00      4426.56
 1000.43        2955.75           2225        1019.00      4439.64
 1000.46        2956.00           2229        1024.00      4461.44
 1000.49        2956.25           2232        1056.00      4600.98
 1000.52        2956.50           2236        1018.00      4435.28
 1000.56        2956.75           2239        1021.00      4448.36
 1000.59        2957.00           2243        1056.00      4600.98
 1000.62        2957.25           2246        1064.00      4635.87
 1000.65        2957.50           2250        1051.00      4579.18
 1000.68        2957.75           2254        1111.00      4840.81
 1000.71        2958.00           2257        1074.00      4679.47
 1000.74        2958.25           2261        1122.00      4888.78
 1000.77        2958.50           2264        1070.00      4662.03
 1000.80        2958.75           2268        1123.00      4893.14
 1000.83        2959.00           2271        1109.00      4832.09
 1000.86        2959.25           2275        1125.00      4901.86
 1000.89        2959.50           2278        1183.00      5154.78
 1000.92        2959.75           2282        1138.00      4958.55
 1000.95        2960.00           2285        1168.00      5089.37
 1000.98        2960.25           2289        1208.00      5263.80
 1001.01        2960.50           2293        1207.00      5259.44
 1001.04        2960.75           2296        1234.00      5377.18
 1001.08        2961.00           2300        1279.00      5573.42
 1001.11        2961.25           2303        1388.00      6048.76
 1001.14        2961.50           2307        2570.00     11204.36
 1001.17        2961.75           2310        7053.00     30774.56
 1001.20        2962.00           2314       18472.00     80741.40
 1001.23        2962.25           2317       28765.00    125927.30
 1001.26        2962.50           2321       41632.00    182609.40
 1001.29        2962.75           2324       51490.00    226184.80
 1001.32        2963.00           2328       64819.00    285310.10
 1001.35        2963.25           2331       75128.00    331203.50
 1001.38        2963.50           2335       90537.00    400070.80
 1001.41        2963.75           2339      105247.00    466118.30
 1001.44        2964.00           2342      115796.00    513667.80
 1001.47        2964.25           2346      130079.00    578296.60
 1001.50        2964.50           2349      141740.00    631274.60
 1001.53        2964.75           2353      156565.00    698907.00
 1001.56        2965.00           2356      167188.00    747564.10
 1001.60        2965.25           2360      181601.00    813842.50
 1001.63        2965.50           2363      192024.00    861962.20
 1001.66        2965.75           2367      205703.00    925357.60
 1001.69        2966.00           2370      215940.00    972983.20
 1001.72        2966.25           2374      228653.00   1032347.00
 1001.75        2966.50           2378      238174.00   1076966.00
 1001.78        2966.75           2381      241513.00   1092647.00
 1001.81        2967.00           2385      242989.00   1099584.00
 1001.84        2967.25           2388      243681.00   1102838.00
 1001.87        2967.50           2392      243712.00   1102983.00
 1001.90        2967.75           2395      243176.00   1100463.00
 1001.93        2968.00           2399      240794.00   1089269.00
 1001.96        2968.25           2402      235486.00   1064355.00
 1001.99        2968.50           2406      223611.00   1008774.00
 1002.02        2968.75           2409      213309.00    960728.10
 1002.05        2969.00           2413      199991.00    898851.50
 1002.08        2969.25           2417      187060.00    839025.00
 1002.12        2969.50           2420      176959.00    792463.10
 1002.15        2969.75           2424      163855.00    732280.10
 1002.18        2970.00           2427      153522.00    684999.00
 1002.21        2970.25           2431      139189.00    619668.40
 1002.24        2970.50           2434      128126.00    569442.60
 1002.27        2970.75           2438      113016.00    501122.00
 1002.30        2971.00           2441      101606.00    449742.40
 1002.33        2971.25           2445       87355.00    385822.80
 1002.36        2971.50           2449       73769.00    325145.30
 1002.39        2971.75           2452       64099.00    282110.20
 1002.42        2972.00           2456       50988.00    223962.70
 1002.45        2972.25           2459       40274.00    176616.70
 1002.48        2972.50           2463       25340.00    110876.20
 1002.51        2972.75           2466       14798.00     64646.30
 1002.54        2973.00           2470        5094.00     22219.49
 1002.57        2973.25           2473        2341.00     10205.37
 1002.60        2973.50           2477        1439.00      6271.17
 1002.64        2973.75           2481        1313.00      5721.69
 1002.67        2974.00           2484        1261.00      5494.92
 1002.70        2974.25           2488        1207.00      5259.44
 1002.73        2974.50           2491        1217.00      5303.05
 1002.76        2974.75           2495        1178.00      5132.98
 1002.79        2975.00           2498        1165.00      5076.29
 1002.82        2975.25           2502        1151.00      5015.24
 1002.85        2975.50           2505        1128.00      4914.95
 1002.88        2975.75           2509        1097.00      4779.77
 1002.91        2976.00           2512        1112.00      4845.18
 1002.94        2976.25           2516        1078.00      4696.91
 1002.97        2976.50           2520        1065.00      4640.23
 1003.00        2976.75           2523        1079.00      4701.28
 1003.03        2977.00           2527        1050.00      4574.82
 1003.06        2977.25           2530        1049.00      4570.46
 1003.09        2977.50           2534        1046.00      4557.38
 1003.12        2977.75           2537        1030.00      4487.61
 1003.16        2978.00           2541        1011.00      4404.76
 1003.19        2978.25           2544        1004.00      4374.23
 1003.22        2978.50           2548        1038.00      4522.49
 1003.25        2978.75           2552         971.00      4230.34
 1003.28        2979.00           2555         967.00      4212.90
 1003.31        2979.25           2559         992.00      4321.91
 1003.34        2979.50           2562        1028.00      4478.89
 1003.37        2979.75           2566         941.00      4099.53
 1003.40        2980.00           2569        1016.00      4426.56
 1003.43        2980.25           2573         969.00      4221.62
 1003.46        2980.50           2577         965.00      4204.18
 1003.49        2980.75           2580         954.00      4156.21
 1003.52        2981.00           2584         957.00      4169.29
 1003.55        2981.25           2587         902.00      3929.47
 1003.58        2981.50           2591         923.00      4021.04
 1003.61        2981.75           2594         948.00      4130.05
 1003.64        2982.00           2598         931.00      4055.92
 1003.67        2982.25           2601         899.00      3916.39
 1003.71        2982.50           2605         900.00      3920.75
 1003.74        2982.75           2609         904.00      3938.19
 1003.77        2983.00           2612         892.00      3885.87
 1003.80        2983.25           2616         906.00      3946.91
 1003.83        2983.50           2619         904.00      3938.19
 1003.86        2983.75           2623         906.00      3946.91
 1003.89        2984.00           2626         923.00      4021.04
HS scan finished at 16:44:07
end
