************************************************************
  HS Scan of (1) Internal mercury lamp
************************************************************
Integration time is 0.2294 seconds per sample
dh161217Reading 51.44 .94 2.29pr1000
************************************************************
Dead Time -------------------------  3.4E-08 
Number of Cycles Used -------------  4 
Starting Wavelength (Angstroms) ---  2950 
Final Wavelength (Angstoms) -------  2984 
Wavelength Increment (Angstroms) --  .25 
Filter Wheel #1 Position ---------- (1) Ground quartz diffuser (ND=2.32)
Filter Wheel #2 Position ---------- (1) Neutral Density 0.494



************************************************************
HS scan start time = 05:13:09
Dark Count =  .2 


Time (GMT)  Wavelength (Ang)  Step Number  Raw Counts  Counts/Second

  314.05        2950.00           2144         100.00       435.05
  314.24        2950.25           2147          95.00       413.26
  314.27        2950.50           2151          98.00       426.34
  314.30        2950.75           2155         114.00       496.09
  314.33        2951.00           2158          93.00       404.54
  314.37        2951.25           2162          93.00       404.54
  314.40        2951.50           2165          97.00       421.98
  314.43        2951.75           2169         101.00       439.41
  314.46        2952.00           2172          96.00       417.62
  314.49        2952.25           2176         100.00       435.05
  314.52        2952.50           2179          99.00       430.70
  314.55        2952.75           2183          90.00       391.46
  314.58        2953.00           2186          98.00       426.34
  314.61        2953.25           2190          89.00       387.10
  314.64        2953.50           2193         106.00       461.21
  314.67        2953.75           2197          97.00       421.98
  314.70        2954.00           2200         102.00       443.77
  314.73        2954.25           2204          96.00       417.62
  314.76        2954.50           2208         104.00       452.49
  314.79        2954.75           2211          98.00       426.34
  314.82        2955.00           2215          96.00       417.62
  314.85        2955.25           2218         117.00       509.16
  314.89        2955.50           2222          97.00       421.98
  314.92        2955.75           2225         103.00       448.13
  314.95        2956.00           2229         103.00       448.13
  314.98        2956.25           2232          96.00       417.62
  315.01        2956.50           2236         123.00       535.32
  315.04        2956.75           2239         105.00       456.85
  315.07        2957.00           2243         103.00       448.13
  315.10        2957.25           2246          99.00       430.70
  315.13        2957.50           2250         102.00       443.77
  315.16        2957.75           2254         110.00       478.65
  315.19        2958.00           2257         106.00       461.21
  315.22        2958.25           2261         110.00       478.65
  315.25        2958.50           2264          98.00       426.34
  315.28        2958.75           2268         147.00       639.94
  315.31        2959.00           2271         133.00       578.91
  315.34        2959.25           2275         135.00       587.63
  315.37        2959.50           2278         133.00       578.91
  315.41        2959.75           2282         111.00       483.01
  315.44        2960.00           2285         140.00       609.43
  315.47        2960.25           2289         119.00       517.88
  315.50        2960.50           2293         172.00       748.93
  315.53        2960.75           2296         134.00       583.27
  315.56        2961.00           2300         150.00       653.02
  315.59        2961.25           2303         208.00       905.87
  315.62        2961.50           2307         780.00      3399.70
  315.65        2961.75           2310        1486.00      6478.32
  315.68        2962.00           2314        2651.00     11559.91
  315.71        2962.25           2317        3623.00     15800.99
  315.74        2962.50           2321        5012.00     21863.68
  315.77        2962.75           2324        5918.00     25819.52
  315.80        2963.00           2328        7444.00     32484.86
  315.83        2963.25           2331        8504.00     37116.56
  315.86        2963.50           2335       10218.00     44609.03
  315.89        2963.75           2339       11735.00     51243.52
  315.92        2964.00           2342       12589.00     54979.75
  315.96        2964.25           2346       14126.00     61706.49
  315.99        2964.50           2349       15170.00     66277.35
  316.02        2964.75           2353       16485.00     72036.73
  316.05        2965.00           2356       17543.00     76672.15
  316.08        2965.25           2360       19035.00     83211.56
  316.11        2965.50           2363       19912.00     87056.78
  316.14        2965.75           2367       21178.00     92609.37
  316.17        2966.00           2370       22184.00     97023.11
  316.20        2966.25           2374       23461.00    102627.80
  316.23        2966.50           2378       23705.00    103698.90
  316.26        2966.75           2381       23880.00    104467.20
  316.29        2967.00           2385       23803.00    104129.10
  316.32        2967.25           2388       23768.00    103975.50
  316.35        2967.50           2392       23998.00    104985.20
  316.38        2967.75           2395       23739.00    103848.20
  316.41        2968.00           2399       22720.00     99375.31
  316.44        2968.25           2402       22254.00     97330.28
  316.48        2968.50           2406       20947.00     91596.06
  316.51        2968.75           2409       19507.00     85280.92
  316.54        2969.00           2413       18085.00     79047.40
  316.57        2969.25           2417       16834.00     73565.65
  316.60        2969.50           2420       15731.00     68734.12
  316.63        2969.75           2424       14351.00     62691.46
  316.66        2970.00           2427       13478.00     58870.12
  316.69        2970.25           2431       11889.00     51917.20
  316.72        2970.50           2434       10828.00     47276.46
  316.75        2970.75           2438        9495.00     41448.08
  316.78        2971.00           2441        8537.00     37260.78
  316.81        2971.25           2445        6975.00     30436.01
  316.84        2971.50           2449        5578.00     24334.86
  316.87        2971.75           2452        4503.00     19641.71
  316.90        2972.00           2456        3385.00     14762.42
  316.93        2972.25           2459        2572.00     11215.26
  316.96        2972.50           2463        1299.00      5662.82
  317.00        2972.75           2466         582.00      2536.40
  317.03        2973.00           2470         200.00       870.99
  317.06        2973.25           2473         183.00       796.88
  317.09        2973.50           2477         138.00       600.71
  317.12        2973.75           2481         145.00       631.23
  317.15        2974.00           2484         154.00       670.46
  317.18        2974.25           2488         143.00       622.51
  317.21        2974.50           2491         122.00       530.96
  317.24        2974.75           2495         129.00       561.48
  317.27        2975.00           2498         138.00       600.71
  317.30        2975.25           2502         106.00       461.21
  317.33        2975.50           2505         112.00       487.37
  317.36        2975.75           2509         122.00       530.96
  317.39        2976.00           2512         125.00       544.04
  317.42        2976.25           2516         132.00       574.55
  317.45        2976.50           2520         104.00       452.49
  317.48        2976.75           2523         105.00       456.85
  317.52        2977.00           2527         118.00       513.52
  317.55        2977.25           2530          99.00       430.70
  317.58        2977.50           2534         109.00       474.29
  317.61        2977.75           2537         119.00       517.88
  317.64        2978.00           2541         102.00       443.77
  317.67        2978.25           2544         100.00       435.05
  317.70        2978.50           2548         108.00       469.93
  317.73        2978.75           2552         104.00       452.49
  317.77        2979.00           2555         104.00       452.49
  317.81        2979.25           2559         106.00       461.21
  317.84        2979.50           2562         112.00       487.37
  317.87        2979.75           2566          97.00       421.98
  317.90        2980.00           2569          94.00       408.90
  317.93        2980.25           2573          87.00       378.38
  317.96        2980.50           2577         113.00       491.73
  317.99        2980.75           2580          88.00       382.74
  318.02        2981.00           2584          90.00       391.46
  318.05        2981.25           2587          89.00       387.10
  318.08        2981.50           2591          92.00       400.18
  318.11        2981.75           2594          92.00       400.18
  318.14        2982.00           2598          98.00       426.34
  318.17        2982.25           2601         100.00       435.05
  318.20        2982.50           2605          82.00       356.59
  318.23        2982.75           2609          87.00       378.38
  318.27        2983.00           2612          94.00       408.90
  318.30        2983.25           2616         100.00       435.05
  318.33        2983.50           2619          86.00       374.02
  318.36        2983.75           2623          85.00       369.66
  318.39        2984.00           2626          87.00       378.38
HS scan finished at 05:18:37
end
************************************************************
  HS Scan of (1) Internal mercury lamp
************************************************************
Integration time is 0.2294 seconds per sample
dh161217Reading 51.44 .94 2.74pr1000
************************************************************
Dead Time -------------------------  3.4E-08 
Number of Cycles Used -------------  4 
Starting Wavelength (Angstroms) ---  2950 
Final Wavelength (Angstoms) -------  2984 
Wavelength Increment (Angstroms) --  .25 
Filter Wheel #1 Position ---------- (1) Ground quartz diffuser (ND=2.32)
Filter Wheel #2 Position ---------- (1) Neutral Density 0.494



************************************************************
HS scan start time = 16:37:21
Dark Count =  .5 


Time (GMT)  Wavelength (Ang)  Step Number  Raw Counts  Counts/Second

  998.24        2950.00           2144          90.00       390.15
  998.44        2950.25           2147          76.00       329.12
  998.47        2950.50           2151          78.00       337.84
  998.50        2950.75           2155          76.00       329.12
  998.53        2951.00           2158          80.00       346.56
  998.56        2951.25           2162          85.00       368.36
  998.59        2951.50           2165          86.00       372.72
  998.62        2951.75           2169          73.00       316.05
  998.65        2952.00           2172          79.00       342.20
  998.68        2952.25           2176          79.00       342.20
  998.71        2952.50           2179          81.00       350.92
  998.74        2952.75           2183          80.00       346.56
  998.77        2953.00           2186          78.00       337.84
  998.80        2953.25           2190          73.00       316.05
  998.83        2953.50           2193          85.00       368.36
  998.86        2953.75           2197          81.00       350.92
  998.89        2954.00           2200          82.00       355.28
  998.92        2954.25           2204          90.00       390.15
  998.96        2954.50           2208          87.00       377.08
  998.99        2954.75           2211          77.00       333.48
  999.02        2955.00           2215          84.00       364.00
  999.05        2955.25           2218          78.00       337.84
  999.08        2955.50           2222          80.00       346.56
  999.11        2955.75           2225          87.00       377.08
  999.14        2956.00           2229          80.00       346.56
  999.17        2956.25           2232          88.00       381.43
  999.20        2956.50           2236          83.00       359.64
  999.23        2956.75           2239          87.00       377.08
  999.26        2957.00           2243          93.00       403.23
  999.29        2957.25           2246          89.00       385.79
  999.32        2957.50           2250          95.00       411.95
  999.35        2957.75           2254          89.00       385.79
  999.38        2958.00           2257          90.00       390.15
  999.41        2958.25           2261          88.00       381.43
  999.44        2958.50           2264         102.00       442.47
  999.48        2958.75           2268          90.00       390.15
  999.51        2959.00           2271          82.00       355.28
  999.54        2959.25           2275          92.00       398.87
  999.57        2959.50           2278         121.00       525.29
  999.60        2959.75           2282          97.00       420.67
  999.63        2960.00           2285         100.00       433.75
  999.66        2960.25           2289          97.00       420.67
  999.69        2960.50           2293         107.00       464.26
  999.72        2960.75           2296         119.00       516.57
  999.75        2961.00           2300         125.00       542.73
  999.78        2961.25           2303         179.00       778.14
  999.81        2961.50           2307         666.00      2901.33
  999.84        2961.75           2310        1303.00      5678.95
  999.87        2962.00           2314        2385.00     10398.18
  999.90        2962.25           2317        3241.00     14132.77
  999.93        2962.50           2321        4397.00     19177.72
  999.96        2962.75           2324        5240.00     22857.78
 1000.00        2963.00           2328        6559.00     28617.63
 1000.03        2963.25           2331        7566.00     33016.56
 1000.06        2963.50           2335        8912.00     38898.41
 1000.09        2963.75           2339       10032.00     43794.46
 1000.12        2964.00           2342       11287.00     49282.60
 1000.15        2964.25           2346       12910.00     56383.06
 1000.18        2964.50           2349       14150.00     61810.24
 1000.21        2964.75           2353       15393.00     67252.56
 1000.24        2965.00           2356       16168.00     70646.83
 1000.27        2965.25           2360       17766.00     77648.06
 1000.30        2965.50           2363       18471.00     80737.90
 1000.33        2965.75           2367       19944.00     87195.78
 1000.36        2966.00           2370       20859.00     91208.74
 1000.39        2966.25           2374       22086.00     96591.77
 1000.42        2966.50           2378       22313.00     97587.88
 1000.45        2966.75           2381       22613.00     98904.40
 1000.48        2967.00           2385       22786.00     99663.66
 1000.52        2967.25           2388       22690.00     99242.33
 1000.55        2967.50           2392       22700.00     99286.22
 1000.58        2967.75           2395       22649.00     99062.38
 1000.61        2968.00           2399       22137.00     96815.56
 1000.64        2968.25           2402       21186.00     92643.15
 1000.67        2968.50           2406       19894.00     86976.53
 1000.70        2968.75           2409       18656.00     81548.81
 1000.73        2969.00           2413       17642.00     77104.66
 1000.76        2969.25           2417       16486.00     72039.80
 1000.79        2969.50           2420       15661.00     68426.23
 1000.82        2969.75           2424       13985.00     61087.95
 1000.85        2970.00           2427       12948.00     56549.34
 1000.88        2970.25           2431       11482.00     50135.52
 1000.91        2970.50           2434       10691.00     46676.03
 1000.94        2970.75           2438        9341.00     40773.58
 1000.97        2971.00           2441        8376.00     36555.88
 1001.01        2971.25           2445        6775.00     29561.08
 1001.04        2971.50           2449        5393.00     23525.79
 1001.07        2971.75           2452        4487.00     19570.56
 1001.10        2972.00           2456        3288.00     14337.85
 1001.13        2972.25           2459        2442.00     10646.84
 1001.16        2972.50           2463        1304.00      5683.31
 1001.19        2972.75           2466         606.00      2639.73
 1001.22        2973.00           2470         221.00       961.23
 1001.25        2973.25           2473         134.00       581.96
 1001.28        2973.50           2477         112.00       486.06
 1001.31        2973.75           2481         133.00       577.61
 1001.34        2974.00           2484         108.00       468.62
 1001.37        2974.25           2488         101.00       438.11
 1001.40        2974.50           2491         106.00       459.90
 1001.43        2974.75           2495         103.00       446.82
 1001.46        2975.00           2498         121.00       525.29
 1001.49        2975.25           2502          99.00       429.39
 1001.53        2975.50           2505         100.00       433.75
 1001.56        2975.75           2509          97.00       420.67
 1001.59        2976.00           2512          92.00       398.87
 1001.62        2976.25           2516          85.00       368.36
 1001.65        2976.50           2520          88.00       381.43
 1001.68        2976.75           2523          97.00       420.67
 1001.71        2977.00           2527          97.00       420.67
 1001.74        2977.25           2530          90.00       390.15
 1001.77        2977.50           2534          90.00       390.15
 1001.80        2977.75           2537          84.00       364.00
 1001.83        2978.00           2541          90.00       390.15
 1001.86        2978.25           2544          81.00       350.92
 1001.89        2978.50           2548          90.00       390.15
 1001.92        2978.75           2552          89.00       385.79
 1001.95        2979.00           2555          86.00       372.72
 1001.98        2979.25           2559          87.00       377.08
 1002.01        2979.50           2562          93.00       403.23
 1002.04        2979.75           2566          84.00       364.00
 1002.08        2980.00           2569          77.00       333.48
 1002.11        2980.25           2573          82.00       355.28
 1002.14        2980.50           2577          79.00       342.20
 1002.17        2980.75           2580          80.00       346.56
 1002.20        2981.00           2584          81.00       350.92
 1002.23        2981.25           2587          84.00       364.00
 1002.26        2981.50           2591          82.00       355.28
 1002.29        2981.75           2594          84.00       364.00
 1002.32        2982.00           2598          65.00       281.17
 1002.35        2982.25           2601          75.00       324.76
 1002.38        2982.50           2605          72.00       311.69
 1002.41        2982.75           2609          87.00       377.08
 1002.44        2983.00           2612          76.00       329.12
 1002.47        2983.25           2616          75.00       324.76
 1002.50        2983.50           2619          77.00       333.48
 1002.53        2983.75           2623          82.00       355.28
 1002.56        2984.00           2626          76.00       329.12
HS scan finished at 16:42:47
end
