************************************************************
  HS Scan of (1) Internal mercury lamp
************************************************************
Integration time is 0.2294 seconds per sample
dh171217Reading 51.44 .94 2.37pr1000
************************************************************
Dead Time -------------------------  3.4E-08 
Number of Cycles Used -------------  4 
Starting Wavelength (Angstroms) ---  2950 
Final Wavelength (Angstoms) -------  2984 
Wavelength Increment (Angstroms) --  .25 
Filter Wheel #1 Position ---------- (1) Ground quartz diffuser (ND=2.32)
Filter Wheel #2 Position ---------- (1) Neutral Density 0.494



************************************************************
HS scan start time = 05:13:50
Dark Count =  .3 


Time (GMT)  Wavelength (Ang)  Step Number  Raw Counts  Counts/Second

  314.73        2950.00           2144          85.00       369.23
  314.92        2950.25           2147          84.00       364.87
  314.95        2950.50           2151          83.00       360.51
  314.98        2950.75           2155         106.00       460.77
  315.01        2951.00           2158          91.00       395.38
  315.04        2951.25           2162          92.00       399.74
  315.08        2951.50           2165          91.00       395.38
  315.11        2951.75           2169          93.00       404.10
  315.14        2952.00           2172          89.00       386.67
  315.17        2952.25           2176          79.00       343.07
  315.20        2952.50           2179          86.00       373.59
  315.23        2952.75           2183         108.00       469.49
  315.26        2953.00           2186          88.00       382.31
  315.29        2953.25           2190          79.00       343.07
  315.32        2953.50           2193          94.00       408.46
  315.35        2953.75           2197          94.00       408.46
  315.38        2954.00           2200         112.00       486.93
  315.41        2954.25           2204          89.00       386.67
  315.44        2954.50           2208          91.00       395.38
  315.47        2954.75           2211          98.00       425.90
  315.50        2955.00           2215          95.00       412.82
  315.53        2955.25           2218          90.00       391.03
  315.56        2955.50           2222          92.00       399.74
  315.59        2955.75           2225          97.00       421.54
  315.63        2956.00           2229          95.00       412.82
  315.66        2956.25           2232         104.00       452.06
  315.69        2956.50           2236          88.00       382.31
  315.72        2956.75           2239          93.00       404.10
  315.75        2957.00           2243         116.00       504.37
  315.78        2957.25           2246          99.00       430.26
  315.81        2957.50           2250          91.00       395.38
  315.84        2957.75           2254          92.00       399.74
  315.87        2958.00           2257         124.00       539.24
  315.90        2958.25           2261          94.00       408.46
  315.93        2958.50           2264         105.00       456.42
  315.96        2958.75           2268         100.00       434.62
  315.99        2959.00           2271         103.00       447.70
  316.02        2959.25           2275         124.00       539.24
  316.05        2959.50           2278         124.00       539.24
  316.08        2959.75           2282         119.00       517.45
  316.11        2960.00           2285         116.00       504.37
  316.15        2960.25           2289         112.00       486.93
  316.18        2960.50           2293         113.00       491.29
  316.21        2960.75           2296         114.00       495.65
  316.24        2961.00           2300         140.00       608.99
  316.27        2961.25           2303         297.00      1293.43
  316.30        2961.50           2307         990.00      4314.93
  316.33        2961.75           2310        1727.00      7528.95
  316.37        2962.00           2314        2718.00     11851.77
  316.41        2962.25           2317        3557.00     15512.54
  316.44        2962.50           2321        4559.00     19885.72
  316.47        2962.75           2324        5556.00     24238.36
  316.50        2963.00           2328        6835.00     29824.04
  316.53        2963.25           2331        7769.00     33904.36
  316.56        2963.50           2335       10887.00     47534.04
  316.59        2963.75           2339       12584.00     54957.44
  316.62        2964.00           2342       13663.00     59679.39
  316.65        2964.25           2346       15042.00     65716.43
  316.68        2964.50           2349       15680.00     68510.32
  316.71        2964.75           2353       17398.00     76036.34
  316.74        2965.00           2356       18207.00     79581.65
  316.77        2965.25           2360       17645.00     77118.68
  316.80        2965.50           2363       18417.00     80502.08
  316.83        2965.75           2367       19437.00     84973.57
  316.86        2966.00           2370       20231.00     88455.26
  316.90        2966.25           2374       21579.00     94368.12
  316.93        2966.50           2378       22233.00     97237.68
  316.96        2966.75           2381       22113.00     96711.12
  316.99        2967.00           2385       22106.00     96680.40
  317.02        2967.25           2388       21801.00     95342.12
  317.05        2967.50           2392       21862.00     95609.77
  317.08        2967.75           2395       21490.00     93977.65
  317.11        2968.00           2399       20594.00     90047.28
  317.14        2968.25           2402       19674.00     86012.72
  317.17        2968.50           2406       21026.00     91942.15
  317.20        2968.75           2409       20474.00     89520.96
  317.23        2969.00           2413       18909.00     82658.74
  317.26        2969.25           2417       17978.00     78578.00
  317.29        2969.50           2420       16525.00     72211.52
  317.32        2969.75           2424       14931.00     65230.39
  317.35        2970.00           2427       13752.00     60068.94
  317.38        2970.25           2431       12077.00     52739.21
  317.41        2970.50           2434       11124.00     48570.55
  317.45        2970.75           2438        9899.00     43213.84
  317.48        2971.00           2441        8756.00     38217.46
  317.51        2971.25           2445        7295.00     31833.48
  317.54        2971.50           2449        5947.00     25945.72
  317.57        2971.75           2452        4814.00     20998.86
  317.60        2972.00           2456        3639.00     15870.38
  317.63        2972.25           2459        2638.00     11502.75
  317.66        2972.50           2463        1312.00      5719.07
  317.69        2972.75           2466         626.00      2727.80
  317.72        2973.00           2470         265.00      1153.93
  317.75        2973.25           2473         163.00       709.26
  317.78        2973.50           2477         151.00       656.95
  317.81        2973.75           2481         123.00       534.88
  317.84        2974.00           2484         151.00       656.95
  317.87        2974.25           2488         132.00       574.12
  317.90        2974.50           2491         145.00       630.79
  317.93        2974.75           2495         141.00       613.35
  317.97        2975.00           2498         115.00       500.01
  318.00        2975.25           2502         100.00       434.62
  318.03        2975.50           2505         116.00       504.37
  318.06        2975.75           2509         116.00       504.37
  318.09        2976.00           2512         106.00       460.77
  318.12        2976.25           2516         116.00       504.37
  318.15        2976.50           2520         112.00       486.93
  318.18        2976.75           2523          87.00       377.95
  318.21        2977.00           2527         104.00       452.06
  318.24        2977.25           2530          95.00       412.82
  318.27        2977.50           2534         106.00       460.77
  318.30        2977.75           2537         104.00       452.06
  318.33        2978.00           2541          96.00       417.18
  318.36        2978.25           2544          93.00       404.10
  318.39        2978.50           2548          94.00       408.46
  318.42        2978.75           2552          96.00       417.18
  318.45        2979.00           2555         102.00       443.34
  318.49        2979.25           2559         102.00       443.34
  318.52        2979.50           2562          88.00       382.31
  318.55        2979.75           2566         108.00       469.49
  318.58        2980.00           2569         112.00       486.93
  318.61        2980.25           2573          85.00       369.23
  318.64        2980.50           2577          95.00       412.82
  318.67        2980.75           2580         115.00       500.01
  318.70        2981.00           2584          93.00       404.10
  318.73        2981.25           2587          91.00       395.38
  318.76        2981.50           2591          89.00       386.67
  318.79        2981.75           2594          82.00       356.15
  318.82        2982.00           2598          89.00       386.67
  318.85        2982.25           2601          94.00       408.46
  318.88        2982.50           2605          90.00       391.03
  318.91        2982.75           2609          89.00       386.67
  318.94        2983.00           2612          93.00       404.10
  318.97        2983.25           2616          84.00       364.87
  319.01        2983.50           2619         106.00       460.77
  319.04        2983.75           2623         106.00       460.77
  319.07        2984.00           2626          89.00       386.67
HS scan finished at 05:19:17
end
************************************************************
  HS Scan of (1) Internal mercury lamp
************************************************************
Integration time is 0.2294 seconds per sample
dh171217Reading 51.44 .94 2.84pr1000
************************************************************
Dead Time -------------------------  3.4E-08 
Number of Cycles Used -------------  4 
Starting Wavelength (Angstroms) ---  2950 
Final Wavelength (Angstoms) -------  2984 
Wavelength Increment (Angstroms) --  .25 
Filter Wheel #1 Position ---------- (1) Ground quartz diffuser (ND=2.32)
Filter Wheel #2 Position ---------- (1) Neutral Density 0.494



************************************************************
HS scan start time = 16:37:22
Dark Count =  .6 


Time (GMT)  Wavelength (Ang)  Step Number  Raw Counts  Counts/Second

  998.26        2950.00           2144          76.00       328.69
  998.45        2950.25           2147          84.00       363.56
  998.48        2950.50           2151          75.00       324.33
  998.51        2950.75           2155          94.00       407.15
  998.54        2951.00           2158          89.00       385.36
  998.58        2951.25           2162          87.00       376.64
  998.61        2951.50           2165          87.00       376.64
  998.64        2951.75           2169          89.00       385.36
  998.67        2952.00           2172          88.00       381.00
  998.70        2952.25           2176          84.00       363.56
  998.73        2952.50           2179         102.00       442.03
  998.76        2952.75           2183          89.00       385.36
  998.79        2953.00           2186          89.00       385.36
  998.82        2953.25           2190          96.00       415.87
  998.85        2953.50           2193          78.00       337.41
  998.88        2953.75           2197          88.00       381.00
  998.91        2954.00           2200          89.00       385.36
  998.94        2954.25           2204          89.00       385.36
  998.97        2954.50           2208          90.00       389.72
  999.00        2954.75           2211          89.00       385.36
  999.03        2955.00           2215          90.00       389.72
  999.06        2955.25           2218          95.00       411.51
  999.09        2955.50           2222          95.00       411.51
  999.13        2955.75           2225          86.00       372.28
  999.16        2956.00           2229          92.00       398.44
  999.19        2956.25           2232          91.00       394.08
  999.22        2956.50           2236         115.00       498.70
  999.25        2956.75           2239          96.00       415.87
  999.28        2957.00           2243          97.00       420.23
  999.31        2957.25           2246          94.00       407.15
  999.34        2957.50           2250          91.00       394.08
  999.37        2957.75           2254          97.00       420.23
  999.40        2958.00           2257         105.00       455.11
  999.43        2958.25           2261          92.00       398.44
  999.46        2958.50           2264          99.00       428.95
  999.49        2958.75           2268          99.00       428.95
  999.52        2959.00           2271          92.00       398.44
  999.55        2959.25           2275          97.00       420.23
  999.58        2959.50           2278         121.00       524.86
  999.61        2959.75           2282         101.00       437.67
  999.65        2960.00           2285         118.00       511.78
  999.68        2960.25           2289         117.00       507.42
  999.71        2960.50           2293         127.00       551.01
  999.74        2960.75           2296         128.00       555.37
  999.77        2961.00           2300         162.00       703.59
  999.80        2961.25           2303         339.00      1475.23
  999.83        2961.50           2307        1079.00      4701.71
  999.86        2961.75           2310        1910.00      8325.81
  999.89        2962.00           2314        3205.00     13975.25
  999.92        2962.25           2317        4147.00     18086.10
  999.95        2962.50           2321        5541.00     24171.56
  999.98        2962.75           2324        6724.00     29337.88
 1000.01        2963.00           2328        7971.00     34785.67
 1000.04        2963.25           2331        8942.00     39029.10
 1000.07        2963.50           2335       10405.00     45424.94
 1000.10        2963.75           2339       11740.00     51263.65
 1000.13        2964.00           2342       12998.00     56767.71
 1000.17        2964.25           2346       14179.00     61936.75
 1000.20        2964.50           2349       15438.00     67449.19
 1000.23        2964.75           2353       16720.00     73064.46
 1000.26        2965.00           2356       17697.00     77345.25
 1000.29        2965.25           2360       19038.00     83222.96
 1000.32        2965.50           2363       19867.00     86857.71
 1000.35        2965.75           2367       21788.00     95283.78
 1000.38        2966.00           2370       22303.00     97543.55
 1000.41        2966.25           2374       23202.00    101489.10
 1000.44        2966.50           2378       23502.00    102806.00
 1000.47        2966.75           2381       23478.00    102700.60
 1000.50        2967.00           2385       23604.00    103253.80
 1000.53        2967.25           2388       24112.00    105484.00
 1000.56        2967.50           2392       23923.00    104654.20
 1000.59        2967.75           2395       23379.00    102266.00
 1000.62        2968.00           2399       22722.00     99382.33
 1000.65        2968.25           2402       21606.00     94485.27
 1000.68        2968.50           2406       20603.00     90085.44
 1000.72        2968.75           2409       19519.00     85331.78
 1000.75        2969.00           2413       18036.00     78830.90
 1000.78        2969.25           2417       16857.00     73664.66
 1000.81        2969.50           2420       16020.00     69998.13
 1000.84        2969.75           2424       14433.00     63048.71
 1000.87        2970.00           2427       13496.00     58947.14
 1000.90        2970.25           2431       12204.00     53293.52
 1000.93        2970.50           2434       11100.00     48464.28
 1000.96        2970.75           2438        9568.00     41765.45
 1000.99        2971.00           2441        8382.00     36581.66
 1001.02        2971.25           2445        6932.00     30246.43
 1001.05        2971.50           2449        5639.00     24599.47
 1001.08        2971.75           2452        4629.00     20189.97
 1001.11        2972.00           2456        3422.00     14922.13
 1001.14        2972.25           2459        2525.00     11008.48
 1001.17        2972.50           2463        1330.00      5796.26
 1001.20        2972.75           2466         599.00      2608.78
 1001.24        2973.00           2470         200.00       869.25
 1001.27        2973.25           2473         151.00       655.64
 1001.30        2973.50           2477         152.00       660.00
 1001.33        2973.75           2481          97.00       420.23
 1001.36        2974.00           2484          99.00       428.95
 1001.39        2974.25           2488          93.00       402.80
 1001.42        2974.50           2491         126.00       546.65
 1001.45        2974.75           2495         123.00       533.58
 1001.48        2975.00           2498         122.00       529.22
 1001.51        2975.25           2502          99.00       428.95
 1001.54        2975.50           2505         100.00       433.31
 1001.57        2975.75           2509          93.00       402.80
 1001.60        2976.00           2512         116.00       503.06
 1001.63        2976.25           2516         102.00       442.03
 1001.66        2976.50           2520          97.00       420.23
 1001.69        2976.75           2523         113.00       489.98
 1001.73        2977.00           2527          87.00       376.64
 1001.76        2977.25           2530          94.00       407.15
 1001.79        2977.50           2534          88.00       381.00
 1001.82        2977.75           2537          85.00       367.92
 1001.85        2978.00           2541          83.00       359.20
 1001.88        2978.25           2544          86.00       372.28
 1001.91        2978.50           2548          82.00       354.84
 1001.94        2978.75           2552          82.00       354.84
 1001.97        2979.00           2555          90.00       389.72
 1002.00        2979.25           2559          90.00       389.72
 1002.03        2979.50           2562          87.00       376.64
 1002.06        2979.75           2566          83.00       359.20
 1002.09        2980.00           2569          94.00       407.15
 1002.12        2980.25           2573          85.00       367.92
 1002.15        2980.50           2577          83.00       359.20
 1002.18        2980.75           2580          83.00       359.20
 1002.21        2981.00           2584          85.00       367.92
 1002.24        2981.25           2587          87.00       376.64
 1002.28        2981.50           2591          83.00       359.20
 1002.31        2981.75           2594          76.00       328.69
 1002.34        2982.00           2598          94.00       407.15
 1002.37        2982.25           2601          89.00       385.36
 1002.40        2982.50           2605          80.00       346.12
 1002.43        2982.75           2609          85.00       367.92
 1002.46        2983.00           2612          78.00       337.41
 1002.49        2983.25           2616          87.00       376.64
 1002.52        2983.50           2619          81.00       350.48
 1002.55        2983.75           2623          77.00       333.05
 1002.58        2984.00           2626          79.00       341.77
HS scan finished at 16:42:48
end
