************************************************************
  HS Scan of (1) Internal mercury lamp
************************************************************
Integration time is 0.2294 seconds per sample
dh241217Reading 51.44 .94 2.92pr1000
************************************************************
Dead Time -------------------------  3.4E-08 
Number of Cycles Used -------------  4 
Starting Wavelength (Angstroms) ---  2950 
Final Wavelength (Angstoms) -------  2984 
Wavelength Increment (Angstroms) --  .25 
Filter Wheel #1 Position ---------- (1) Ground quartz diffuser (ND=2.32)
Filter Wheel #2 Position ---------- (1) Neutral Density 0.494



************************************************************
HS scan start time = 05:15:19
Dark Count =  .7 


Time (GMT)  Wavelength (Ang)  Step Number  Raw Counts  Counts/Second

  316.21        2950.00           2144          93.00       402.36
  316.41        2950.25           2147         103.00       445.95
  316.44        2950.50           2151         109.00       472.11
  316.47        2950.75           2155          86.00       371.84
  316.50        2951.00           2158          90.00       389.28
  316.53        2951.25           2162          99.00       428.52
  316.56        2951.50           2165          92.00       398.00
  316.59        2951.75           2169          96.00       415.44
  316.62        2952.00           2172         109.00       472.11
  316.65        2952.25           2176          95.00       411.08
  316.68        2952.50           2179          92.00       398.00
  316.71        2952.75           2183          91.00       393.64
  316.74        2953.00           2186          92.00       398.00
  316.77        2953.25           2190          82.00       354.41
  316.80        2953.50           2193          97.00       419.80
  316.83        2953.75           2197          95.00       411.08
  316.87        2954.00           2200          96.00       415.44
  316.90        2954.25           2204         114.00       493.91
  316.93        2954.50           2208          99.00       428.52
  316.96        2954.75           2211          94.00       406.72
  316.99        2955.00           2215          92.00       398.00
  317.02        2955.25           2218          98.00       424.16
  317.05        2955.50           2222          94.00       406.72
  317.08        2955.75           2225          98.00       424.16
  317.11        2956.00           2229         101.00       437.23
  317.14        2956.25           2232         118.00       511.34
  317.17        2956.50           2236         102.00       441.59
  317.21        2956.75           2239         102.00       441.59
  317.24        2957.00           2243         141.00       611.61
  317.27        2957.25           2246         120.00       520.06
  317.30        2957.50           2250         106.00       459.03
  317.33        2957.75           2254         106.00       459.03
  317.36        2958.00           2257         111.00       480.83
  317.39        2958.25           2261         104.00       450.31
  317.42        2958.50           2264         151.00       655.20
  317.45        2958.75           2268         116.00       502.62
  317.48        2959.00           2271         108.00       467.75
  317.51        2959.25           2275         131.00       568.01
  317.54        2959.50           2278         152.00       659.56
  317.58        2959.75           2282         112.00       485.19
  317.61        2960.00           2285         138.00       598.53
  317.64        2960.25           2289         131.00       568.01
  317.67        2960.50           2293         141.00       611.61
  317.70        2960.75           2296         158.00       685.72
  317.73        2961.00           2300         168.00       729.31
  317.76        2961.25           2303         356.00      1548.90
  317.79        2961.50           2307        1200.00      5228.92
  317.82        2961.75           2310        2326.00     10139.94
  317.85        2962.00           2314        4027.00     17561.92
  317.88        2962.25           2317        5509.00     24031.40
  317.91        2962.50           2321        7254.00     31652.62
  317.94        2962.75           2324        8420.00     36747.28
  317.97        2963.00           2328       10161.00     44357.61
  318.00        2963.25           2331       11478.00     50117.15
  318.03        2963.50           2335       13396.00     58509.04
  318.06        2963.75           2339       15522.00     67816.61
  318.10        2964.00           2342       17030.00     74422.18
  318.13        2964.25           2346       18862.00     82450.96
  318.16        2964.50           2349       20250.00     88536.83
  318.19        2964.75           2353       21964.00     96055.57
  318.22        2965.00           2356       23278.00    101822.30
  318.25        2965.25           2360       25086.00    109760.70
  318.28        2965.50           2363       26530.00    116103.90
  318.31        2965.75           2367       28174.00    123329.10
  318.34        2966.00           2370       29827.00    130597.40
  318.37        2966.25           2374       30985.00    135691.30
  318.40        2966.50           2378       31673.00    138718.60
  318.43        2966.75           2381       31485.00    137891.30
  318.46        2967.00           2385       31458.00    137772.50
  318.49        2967.25           2388       31154.00    136434.80
  318.52        2967.50           2392       30898.00    135308.50
  318.55        2967.75           2395       30590.00    133953.50
  318.58        2968.00           2399       29722.00    130135.60
  318.61        2968.25           2402       28710.00    125685.50
  318.65        2968.50           2406       27285.00    119421.60
  318.68        2968.75           2409       25857.00    113147.20
  318.71        2969.00           2413       24298.00    106300.20
  318.74        2969.25           2417       22582.00     98767.47
  318.77        2969.50           2420       21364.00     93423.14
  318.80        2969.75           2424       19352.00     84599.13
  318.83        2970.00           2427       18104.00     79128.48
  318.86        2970.25           2431       16357.00     71473.83
  318.89        2970.50           2434       14983.00     65456.33
  318.92        2970.75           2438       12903.00     56351.55
  318.95        2971.00           2441       11316.00     49408.57
  318.98        2971.25           2445        9387.00     40973.78
  319.01        2971.50           2449        7499.00     32722.96
  319.04        2971.75           2452        6188.00     26996.43
  319.07        2972.00           2456        4527.00     19744.29
  319.10        2972.25           2459        3301.00     14393.70
  319.13        2972.50           2463        1788.00      7793.26
  319.17        2972.75           2466         826.00      3598.09
  319.20        2973.00           2470         241.00      1047.55
  319.23        2973.25           2473         162.00       703.16
  319.26        2973.50           2477         146.00       633.41
  319.29        2973.75           2481         142.00       615.97
  319.32        2974.00           2484         148.00       642.12
  319.35        2974.25           2488         129.00       559.30
  319.38        2974.50           2491         136.00       589.81
  319.41        2974.75           2495         138.00       598.53
  319.44        2975.00           2498         149.00       646.48
  319.47        2975.25           2502         110.00       476.47
  319.50        2975.50           2505         121.00       524.42
  319.53        2975.75           2509         115.00       498.26
  319.56        2976.00           2512         113.00       489.55
  319.59        2976.25           2516         105.00       454.67
  319.62        2976.50           2520         110.00       476.47
  319.65        2976.75           2523         110.00       476.47
  319.69        2977.00           2527         104.00       450.31
  319.72        2977.25           2530         106.00       459.03
  319.75        2977.50           2534         113.00       489.55
  319.78        2977.75           2537          98.00       424.16
  319.81        2978.00           2541         101.00       437.23
  319.84        2978.25           2544         105.00       454.67
  319.87        2978.50           2548          98.00       424.16
  319.90        2978.75           2552          94.00       406.72
  319.93        2979.00           2555         114.00       493.91
  319.96        2979.25           2559          99.00       428.52
  319.99        2979.50           2562          91.00       393.64
  320.02        2979.75           2566         111.00       480.83
  320.05        2980.00           2569          85.00       367.49
  320.08        2980.25           2573          93.00       402.36
  320.11        2980.50           2577         110.00       476.47
  320.14        2980.75           2580         100.00       432.87
  320.17        2981.00           2584          95.00       411.08
  320.21        2981.25           2587          91.00       393.64
  320.24        2981.50           2591          98.00       424.16
  320.27        2981.75           2594          90.00       389.28
  320.30        2982.00           2598          87.00       376.20
  320.33        2982.25           2601          83.00       358.77
  320.36        2982.50           2605          82.00       354.41
  320.39        2982.75           2609          84.00       363.13
  320.42        2983.00           2612          85.00       367.49
  320.45        2983.25           2616          94.00       406.72
  320.48        2983.50           2619          89.00       384.92
  320.51        2983.75           2623          79.00       341.33
  320.54        2984.00           2626          77.00       332.61
HS scan finished at 05:20:46
end
************************************************************
  HS Scan of (1) Internal mercury lamp
************************************************************
Integration time is 0.2294 seconds per sample
dh241217Reading 51.44 .94 3.07pr1000
************************************************************
Dead Time -------------------------  3.4E-08 
Number of Cycles Used -------------  4 
Starting Wavelength (Angstroms) ---  2950 
Final Wavelength (Angstoms) -------  2984 
Wavelength Increment (Angstroms) --  .25 
Filter Wheel #1 Position ---------- (1) Ground quartz diffuser (ND=2.32)
Filter Wheel #2 Position ---------- (1) Neutral Density 0.494



************************************************************
HS scan start time = 17:07:24
Dark Count =  1.1 


Time (GMT)  Wavelength (Ang)  Step Number  Raw Counts  Counts/Second

 1028.29        2950.00           2144          75.00       322.15
 1028.48        2950.25           2147          92.00       396.26
 1028.52        2950.50           2151          84.00       361.38
 1028.55        2950.75           2155          87.00       374.46
 1028.58        2951.00           2158          83.00       357.02
 1028.61        2951.25           2162          92.00       396.26
 1028.64        2951.50           2165          77.00       330.87
 1028.67        2951.75           2169          80.00       343.94
 1028.70        2952.00           2172          86.00       370.10
 1028.73        2952.25           2176          85.00       365.74
 1028.76        2952.50           2179          84.00       361.38
 1028.79        2952.75           2183          81.00       348.30
 1028.82        2953.00           2186          96.00       413.69
 1028.85        2953.25           2190          83.00       357.02
 1028.88        2953.50           2193          91.00       391.90
 1028.91        2953.75           2197          76.00       326.51
 1028.94        2954.00           2200          99.00       426.77
 1028.97        2954.25           2204          92.00       396.26
 1029.01        2954.50           2208          99.00       426.77
 1029.04        2954.75           2211         105.00       452.93
 1029.07        2955.00           2215          84.00       361.38
 1029.10        2955.25           2218          88.00       378.82
 1029.13        2955.50           2222          82.00       352.66
 1029.16        2955.75           2225          95.00       409.33
 1029.19        2956.00           2229          93.00       400.62
 1029.22        2956.25           2232          83.00       357.02
 1029.25        2956.50           2236          93.00       400.62
 1029.28        2956.75           2239          95.00       409.33
 1029.31        2957.00           2243         115.00       496.52
 1029.34        2957.25           2246         114.00       492.16
 1029.37        2957.50           2250          88.00       378.82
 1029.40        2957.75           2254          91.00       391.90
 1029.43        2958.00           2257          92.00       396.26
 1029.46        2958.25           2261         110.00       474.72
 1029.49        2958.50           2264         118.00       509.60
 1029.53        2958.75           2268         118.00       509.60
 1029.56        2959.00           2271          99.00       426.77
 1029.59        2959.25           2275          97.00       418.05
 1029.62        2959.50           2278         124.00       535.76
 1029.65        2959.75           2282          97.00       418.05
 1029.68        2960.00           2285         120.00       518.32
 1029.71        2960.25           2289         116.00       500.88
 1029.74        2960.50           2293         116.00       500.88
 1029.77        2960.75           2296         120.00       518.32
 1029.80        2961.00           2300         169.00       731.93
 1029.83        2961.25           2303         344.00      1494.84
 1029.86        2961.50           2307        1335.00      5815.88
 1029.89        2961.75           2310        2412.00     10513.35
 1029.92        2962.00           2314        3850.00     16787.70
 1029.95        2962.25           2317        4851.00     21156.89
 1029.98        2962.50           2321        6570.00     28663.06
 1030.01        2962.75           2324        7761.00     33865.92
 1030.04        2963.00           2328        9455.00     41269.29
 1030.08        2963.25           2331       10798.00     47141.33
 1030.11        2963.50           2335       12214.00     53335.09
 1030.14        2963.75           2339       13893.00     60682.62
 1030.17        2964.00           2342       15469.00     67582.76
 1030.20        2964.25           2346       17153.00     74959.34
 1030.23        2964.50           2349       18255.00     79788.53
 1030.26        2964.75           2353       20049.00     87653.60
 1030.29        2965.00           2356       21248.00     92912.50
 1030.32        2965.25           2360       22967.00    100455.40
 1030.35        2965.50           2363       24118.00    105508.20
 1030.38        2965.75           2367       25649.00    112231.70
 1030.41        2966.00           2370       26594.00    116383.40
 1030.44        2966.25           2374       27821.00    121775.60
 1030.47        2966.50           2378       28346.00    124083.40
 1030.50        2966.75           2381       28596.00    125182.50
 1030.53        2967.00           2385       28336.00    124039.50
 1030.56        2967.25           2388       28195.00    123419.60
 1030.60        2967.50           2392       28548.00    124971.50
 1030.63        2967.75           2395       28008.00    122597.60
 1030.66        2968.00           2399       26900.00    117727.90
 1030.69        2968.25           2402       25708.00    112490.90
 1030.72        2968.50           2406       24236.00    106026.30
 1030.75        2968.75           2409       23129.00    101166.50
 1030.78        2969.00           2413       21652.00     94684.89
 1030.81        2969.25           2417       20052.00     87666.76
 1030.84        2969.50           2420       18982.00     82975.26
 1030.87        2969.75           2424       17385.00     75975.87
 1030.90        2970.00           2427       16120.00     70433.95
 1030.93        2970.25           2431       14396.00     62884.53
 1030.96        2970.50           2434       13174.00     57535.73
 1030.99        2970.75           2438       11284.00     49266.85
 1031.02        2971.00           2441       10184.00     44456.42
 1031.05        2971.25           2445        8734.00     38117.81
 1031.08        2971.50           2449        7140.00     31152.86
 1031.12        2971.75           2452        5885.00     25671.48
 1031.15        2972.00           2456        4131.00     18014.08
 1031.18        2972.25           2459        2990.00     13034.98
 1031.21        2972.50           2463        1583.00      6897.43
 1031.24        2972.75           2466         812.00      3535.30
 1031.27        2973.00           2470         236.00      1024.01
 1031.30        2973.25           2473         154.00       666.54
 1031.33        2973.50           2477         148.00       640.38
 1031.36        2973.75           2481         121.00       522.68
 1031.39        2974.00           2484         145.00       627.30
 1031.42        2974.25           2488         131.00       566.27
 1031.45        2974.50           2491         121.00       522.68
 1031.48        2974.75           2495         112.00       483.44
 1031.51        2975.00           2498         127.00       548.83
 1031.54        2975.25           2502         103.00       444.21
 1031.57        2975.50           2505         125.00       540.11
 1031.60        2975.75           2509         102.00       439.85
 1031.64        2976.00           2512         106.00       457.29
 1031.67        2976.25           2516          98.00       422.41
 1031.70        2976.50           2520         115.00       496.52
 1031.73        2976.75           2523         101.00       435.49
 1031.76        2977.00           2527         105.00       452.93
 1031.79        2977.25           2530          93.00       400.62
 1031.82        2977.50           2534          91.00       391.90
 1031.85        2977.75           2537          93.00       400.62
 1031.88        2978.00           2541          93.00       400.62
 1031.91        2978.25           2544          96.00       413.69
 1031.94        2978.50           2548          95.00       409.33
 1031.97        2978.75           2552          86.00       370.10
 1032.00        2979.00           2555          87.00       374.46
 1032.03        2979.25           2559          90.00       387.54
 1032.06        2979.50           2562          89.00       383.18
 1032.09        2979.75           2566          93.00       400.62
 1032.12        2980.00           2569          87.00       374.46
 1032.16        2980.25           2573          92.00       396.26
 1032.19        2980.50           2577          80.00       343.94
 1032.22        2980.75           2580          84.00       361.38
 1032.25        2981.00           2584          81.00       348.30
 1032.28        2981.25           2587          90.00       387.54
 1032.31        2981.50           2591          83.00       357.02
 1032.34        2981.75           2594          86.00       370.10
 1032.37        2982.00           2598          79.00       339.59
 1032.40        2982.25           2601          84.00       361.38
 1032.43        2982.50           2605          82.00       352.66
 1032.46        2982.75           2609          77.00       330.87
 1032.49        2983.00           2612          83.00       357.02
 1032.52        2983.25           2616          80.00       343.94
 1032.55        2983.50           2619          81.00       348.30
 1032.58        2983.75           2623          73.00       313.43
 1032.61        2984.00           2626          77.00       330.87
HS scan finished at 17:12:50
end
