************************************************************
  HS Scan of (1) Internal mercury lamp
************************************************************
Integration time is 0.2294 seconds per sample
dh271217Reading 51.44 .94 2.54pr1000
************************************************************
Dead Time -------------------------  3.4E-08 
Number of Cycles Used -------------  4 
Starting Wavelength (Angstroms) ---  2950 
Final Wavelength (Angstoms) -------  2984 
Wavelength Increment (Angstroms) --  .25 
Filter Wheel #1 Position ---------- (1) Ground quartz diffuser (ND=2.32)
Filter Wheel #2 Position ---------- (1) Neutral Density 0.494



************************************************************
HS scan start time = 05:15:34
Dark Count =  .4 


Time (GMT)  Wavelength (Ang)  Step Number  Raw Counts  Counts/Second

  316.47        2950.00           2144         162.00       704.46
  316.67        2950.25           2147         160.00       695.74
  316.70        2950.50           2151         152.00       660.87
  316.73        2950.75           2155         170.00       739.34
  316.76        2951.00           2158         160.00       695.74
  316.79        2951.25           2162         155.00       673.95
  316.82        2951.50           2165         155.00       673.95
  316.85        2951.75           2169         163.00       708.82
  316.88        2952.00           2172         165.00       717.54
  316.91        2952.25           2176         167.00       726.26
  316.94        2952.50           2179         153.00       665.23
  316.97        2952.75           2183         165.00       717.54
  317.00        2953.00           2186         172.00       748.06
  317.03        2953.25           2190         173.00       752.42
  317.06        2953.50           2193         162.00       704.46
  317.10        2953.75           2197         174.00       756.78
  317.13        2954.00           2200         173.00       752.42
  317.16        2954.25           2204         160.00       695.74
  317.19        2954.50           2208         172.00       748.06
  317.22        2954.75           2211         173.00       752.42
  317.25        2955.00           2215         165.00       717.54
  317.28        2955.25           2218         180.00       782.93
  317.31        2955.50           2222         162.00       704.46
  317.34        2955.75           2225         184.00       800.37
  317.37        2956.00           2229         176.00       765.50
  317.40        2956.25           2232         169.00       734.98
  317.43        2956.50           2236         180.00       782.93
  317.46        2956.75           2239         178.00       774.21
  317.49        2957.00           2243         182.00       791.65
  317.52        2957.25           2246         174.00       756.78
  317.55        2957.50           2250         187.00       813.45
  317.58        2957.75           2254         192.00       835.25
  317.61        2958.00           2257         190.00       826.53
  317.65        2958.25           2261         198.00       861.40
  317.68        2958.50           2264         197.00       857.04
  317.71        2958.75           2268         202.00       878.84
  317.74        2959.00           2271         190.00       826.53
  317.77        2959.25           2275         209.00       909.36
  317.80        2959.50           2278         203.00       883.20
  317.83        2959.75           2282         212.00       922.44
  317.86        2960.00           2285         206.00       896.28
  317.89        2960.25           2289         236.00      1027.06
  317.92        2960.50           2293         211.00       918.08
  317.95        2960.75           2296         256.00      1114.25
  317.98        2961.00           2300         321.00      1397.63
  318.01        2961.25           2303         786.00      3424.98
  318.04        2961.50           2307        2510.00     10943.92
  318.07        2961.75           2310        4336.00     18911.90
  318.10        2962.00           2314        7243.00     31605.87
  318.13        2962.25           2317        9648.00     42116.07
  318.17        2962.50           2321       12595.00     55005.13
  318.20        2962.75           2324       14950.00     65313.15
  318.23        2963.00           2328       18568.00     81163.52
  318.26        2963.25           2331       21216.00     92775.18
  318.29        2963.50           2335       24593.00    107596.90
  318.32        2963.75           2339       27891.00    122086.40
  318.35        2964.00           2342       30330.00    132811.10
  318.38        2964.25           2346       33384.00    146251.20
  318.41        2964.50           2349       35840.00    157068.50
  318.44        2964.75           2353       39197.00    171867.10
  318.47        2965.00           2356       41704.00    182928.50
  318.50        2965.25           2360       44658.00    195972.80
  318.53        2965.50           2363       46431.00    203807.60
  318.56        2965.75           2367       49228.00    216175.90
  318.59        2966.00           2370       51382.00    225708.00
  318.62        2966.25           2374       54656.00    240208.40
  318.65        2966.50           2378       56040.00    246342.40
  318.69        2966.75           2381       56357.00    247747.70
  318.72        2967.00           2385       56617.00    248900.50
  318.75        2967.25           2388       56574.00    248709.80
  318.78        2967.50           2392       56220.00    247140.40
  318.81        2967.75           2395       55929.00    245850.30
  318.84        2968.00           2399       54429.00    239202.60
  318.87        2968.25           2402       52214.00    229391.60
  318.90        2968.50           2406       49050.00    215388.50
  318.93        2968.75           2409       46470.00    203980.00
  318.96        2969.00           2413       43292.00    189939.30
  318.99        2969.25           2417       40039.00    175581.30
  319.02        2969.50           2420       37763.00    165543.80
  319.05        2969.75           2424       34675.00    151936.30
  319.08        2970.00           2427       31745.00    139036.70
  319.11        2970.25           2431       27543.00    120556.80
  319.14        2970.50           2434       25199.00    110258.30
  319.17        2970.75           2438       21849.00     95552.30
  319.21        2971.00           2441       19224.00     84039.26
  319.24        2971.25           2445       16143.00     70537.75
  319.27        2971.50           2449       12871.00     56212.83
  319.30        2971.75           2452       10573.00     46160.45
  319.33        2972.00           2456        7336.00     32012.16
  319.36        2972.25           2459        5118.00     22325.57
  319.39        2972.50           2463        2545.00     11096.60
  319.42        2972.75           2466        1149.00      5007.83
  319.45        2973.00           2470         429.00      1868.47
  319.48        2973.25           2473         306.00      1332.23
  319.51        2973.50           2477         230.00      1000.91
  319.54        2973.75           2481         204.00       887.56
  319.57        2974.00           2484         239.00      1040.14
  319.60        2974.25           2488         200.00       870.12
  319.63        2974.50           2491         192.00       835.25
  319.66        2974.75           2495         172.00       748.06
  319.69        2975.00           2498         152.00       660.87
  319.73        2975.25           2502         158.00       687.03
  319.76        2975.50           2505         159.00       691.39
  319.79        2975.75           2509         137.00       595.48
  319.82        2976.00           2512         129.00       560.60
  319.85        2976.25           2516         129.00       560.60
  319.88        2976.50           2520         150.00       652.15
  319.91        2976.75           2523         134.00       582.40
  319.94        2977.00           2527         163.00       708.82
  319.97        2977.25           2530         134.00       582.40
  320.00        2977.50           2534         148.00       643.43
  320.03        2977.75           2537         121.00       525.73
  320.06        2978.00           2541         144.00       625.99
  320.09        2978.25           2544         145.00       630.35
  320.12        2978.50           2548         134.00       582.40
  320.15        2978.75           2552         122.00       530.09
  320.18        2979.00           2555         170.00       739.34
  320.21        2979.25           2559         145.00       630.35
  320.24        2979.50           2562         114.00       495.21
  320.28        2979.75           2566         149.00       647.79
  320.31        2980.00           2569         150.00       652.15
  320.34        2980.25           2573         140.00       608.56
  320.37        2980.50           2577         125.00       543.17
  320.40        2980.75           2580         120.00       521.37
  320.43        2981.00           2584         117.00       508.29
  320.46        2981.25           2587         149.00       647.79
  320.49        2981.50           2591         109.00       473.42
  320.52        2981.75           2594          98.00       425.46
  320.55        2982.00           2598         100.00       434.18
  320.58        2982.25           2601         105.00       455.98
  320.61        2982.50           2605         121.00       525.73
  320.64        2982.75           2609          97.00       421.10
  320.67        2983.00           2612         114.00       495.21
  320.70        2983.25           2616         137.00       595.48
  320.73        2983.50           2619         119.00       517.01
  320.77        2983.75           2623          95.00       412.39
  320.80        2984.00           2626          92.00       399.31
HS scan finished at 05:21:01
end
************************************************************
  HS Scan of (1) Internal mercury lamp
************************************************************
Integration time is 0.2294 seconds per sample
dh271217Reading 51.44 .94 2.43pr1000
************************************************************
Dead Time -------------------------  3.4E-08 
Number of Cycles Used -------------  4 
Starting Wavelength (Angstroms) ---  2950 
Final Wavelength (Angstoms) -------  2984 
Wavelength Increment (Angstroms) --  .25 
Filter Wheel #1 Position ---------- (1) Ground quartz diffuser (ND=2.32)
Filter Wheel #2 Position ---------- (1) Neutral Density 0.494



************************************************************
HS scan start time = 17:10:29
Dark Count =  .1 


Time (GMT)  Wavelength (Ang)  Step Number  Raw Counts  Counts/Second

 1031.38        2950.00           2144         163.00       710.13
 1031.58        2950.25           2147         170.00       740.65
 1031.61        2950.50           2151         171.00       745.01
 1031.64        2950.75           2155         149.00       649.10
 1031.67        2951.00           2158         158.00       688.33
 1031.70        2951.25           2162         165.00       718.85
 1031.73        2951.50           2165         163.00       710.13
 1031.76        2951.75           2169         161.00       701.41
 1031.79        2952.00           2172         154.00       670.90
 1031.82        2952.25           2176         169.00       736.29
 1031.85        2952.50           2179         158.00       688.33
 1031.88        2952.75           2183         171.00       745.01
 1031.91        2953.00           2186         160.00       697.05
 1031.94        2953.25           2190         165.00       718.85
 1031.97        2953.50           2193         169.00       736.29
 1032.01        2953.75           2197         154.00       670.90
 1032.04        2954.00           2200         165.00       718.85
 1032.07        2954.25           2204         166.00       723.21
 1032.10        2954.50           2208         159.00       692.69
 1032.13        2954.75           2211         175.00       762.44
 1032.16        2955.00           2215         171.00       745.01
 1032.19        2955.25           2218         167.00       727.57
 1032.22        2955.50           2222         164.00       714.49
 1032.25        2955.75           2225         169.00       736.29
 1032.28        2956.00           2229         171.00       745.01
 1032.31        2956.25           2232         173.00       753.72
 1032.34        2956.50           2236         170.00       740.65
 1032.37        2956.75           2239         184.00       801.68
 1032.40        2957.00           2243         177.00       771.16
 1032.43        2957.25           2246         177.00       771.16
 1032.46        2957.50           2250         169.00       736.29
 1032.49        2957.75           2254         172.00       749.37
 1032.53        2958.00           2257         174.00       758.08
 1032.56        2958.25           2261         186.00       810.40
 1032.59        2958.50           2264         182.00       792.96
 1032.62        2958.75           2268         184.00       801.68
 1032.65        2959.00           2271         147.00       640.38
 1032.68        2959.25           2275         142.00       618.58
 1032.71        2959.50           2278         145.00       631.66
 1032.74        2959.75           2282         169.00       736.29
 1032.77        2960.00           2285         184.00       801.68
 1032.80        2960.25           2289         148.00       644.74
 1032.83        2960.50           2293         158.00       688.33
 1032.86        2960.75           2296         152.00       662.18
 1032.89        2961.00           2300         170.00       740.65
 1032.92        2961.25           2303         326.00      1420.73
 1032.95        2961.50           2307        1187.00      5174.84
 1032.98        2961.75           2310        2300.00     10029.14
 1033.01        2962.00           2314        4011.00     17494.71
 1033.05        2962.25           2317        5383.00     23483.87
 1033.08        2962.50           2321        7483.00     32655.68
 1033.11        2962.75           2324        9008.00     39319.76
 1033.14        2963.00           2328       11278.00     49244.99
 1033.17        2963.25           2331       12907.00     56371.67
 1033.20        2963.50           2335       15022.00     65629.72
 1033.23        2963.75           2339       17151.00     74954.95
 1033.26        2964.00           2342       18929.00     82747.31
 1033.29        2964.25           2346       21317.00     93219.59
 1033.32        2964.50           2349       22512.00     98462.91
 1033.35        2964.75           2353       24498.00    107181.10
 1033.38        2965.00           2356       26094.00    114191.00
 1033.41        2965.25           2360       28029.00    122694.30
 1033.44        2965.50           2363       29120.00    127490.90
 1033.47        2965.75           2367       31260.00    136903.90
 1033.50        2966.00           2370       32428.00    142044.00
 1033.53        2966.25           2374       34073.00    149286.40
 1033.57        2966.50           2378       34733.00    152193.10
 1033.60        2966.75           2381       35047.00    153576.20
 1033.63        2967.00           2385       34733.00    152193.10
 1033.66        2967.25           2388       34788.00    152435.30
 1033.69        2967.50           2392       34496.00    151149.20
 1033.72        2967.75           2395       34238.00    150013.00
 1033.75        2968.00           2399       32843.00    143870.70
 1033.78        2968.25           2402       31196.00    136622.30
 1033.81        2968.50           2406       29130.00    127534.80
 1033.84        2968.75           2409       27982.00    122487.70
 1033.87        2969.00           2413       25928.00    113461.70
 1033.90        2969.25           2417       24007.00    105025.20
 1033.93        2969.50           2420       22225.00     97203.47
 1033.96        2969.75           2424       20484.00     89565.71
 1033.99        2970.00           2427       18947.00     82826.21
 1034.02        2970.25           2431       16952.00     74083.06
 1034.05        2970.50           2434       15650.00     68379.81
 1034.08        2970.75           2438       13511.00     59014.99
 1034.12        2971.00           2441       12136.00     52998.21
 1034.15        2971.25           2445       10243.00     44718.78
 1034.18        2971.50           2449        8441.00     36841.67
 1034.21        2971.75           2452        6813.00     29728.81
 1034.24        2972.00           2456        4838.00     21104.50
 1034.27        2972.25           2459        3499.00     15260.32
 1034.30        2972.50           2463        2016.00      8790.33
 1034.33        2972.75           2466        1125.00      4904.48
 1034.36        2973.00           2470         297.00      1294.30
 1034.39        2973.25           2473         184.00       801.68
 1034.42        2973.50           2477         152.00       662.18
 1034.45        2973.75           2481         153.00       666.54
 1034.48        2974.00           2484         155.00       675.26
 1034.51        2974.25           2488         157.00       683.97
 1034.54        2974.50           2491         135.00       588.07
 1034.57        2974.75           2495         139.00       605.51
 1034.60        2975.00           2498         163.00       710.13
 1034.64        2975.25           2502         162.00       705.77
 1034.67        2975.50           2505         128.00       557.55
 1034.70        2975.75           2509         176.00       766.80
 1034.73        2976.00           2512         146.00       636.02
 1034.76        2976.25           2516         134.00       583.71
 1034.79        2976.50           2520         138.00       601.15
 1034.82        2976.75           2523         149.00       649.10
 1034.85        2977.00           2527         164.00       714.49
 1034.88        2977.25           2530         120.00       522.68
 1034.91        2977.50           2534         131.00       570.63
 1034.94        2977.75           2537         139.00       605.51
 1034.97        2978.00           2541         130.00       566.27
 1035.00        2978.25           2544         128.00       557.55
 1035.03        2978.50           2548         109.00       474.72
 1035.06        2978.75           2552         105.00       457.29
 1035.09        2979.00           2555         113.00       492.16
 1035.12        2979.25           2559         102.00       444.21
 1035.16        2979.50           2562         124.00       540.11
 1035.19        2979.75           2566         140.00       609.86
 1035.22        2980.00           2569         122.00       531.40
 1035.25        2980.25           2573          95.00       413.69
 1035.28        2980.50           2577         117.00       509.60
 1035.31        2980.75           2580          95.00       413.69
 1035.34        2981.00           2584         103.00       448.57
 1035.37        2981.25           2587         146.00       636.02
 1035.40        2981.50           2591          92.00       400.62
 1035.43        2981.75           2594          98.00       426.77
 1035.46        2982.00           2598         126.00       548.83
 1035.49        2982.25           2601          95.00       413.69
 1035.52        2982.50           2605         156.00       679.61
 1035.55        2982.75           2609          99.00       431.13
 1035.58        2983.00           2612         110.00       479.08
 1035.61        2983.25           2616          86.00       374.46
 1035.64        2983.50           2619          85.00       370.10
 1035.68        2983.75           2623          90.00       391.90
 1035.71        2984.00           2626          94.00       409.33
HS scan finished at 17:15:56
end
