************************************************************
  HS Scan of (1) Internal mercury lamp
************************************************************
Integration time is 0.2294 seconds per sample
dh301217Reading 51.44 .94 2.9pr1000
************************************************************
Dead Time -------------------------  3.4E-08 
Number of Cycles Used -------------  4 
Starting Wavelength (Angstroms) ---  2950 
Final Wavelength (Angstoms) -------  2984 
Wavelength Increment (Angstroms) --  .25 
Filter Wheel #1 Position ---------- (1) Ground quartz diffuser (ND=2.32)
Filter Wheel #2 Position ---------- (1) Neutral Density 0.494



************************************************************
HS scan start time = 05:16:14
Dark Count =  .5 


Time (GMT)  Wavelength (Ang)  Step Number  Raw Counts  Counts/Second

  317.14        2950.00           2144          82.00       355.28
  317.33        2950.25           2147          79.00       342.20
  317.36        2950.50           2151          80.00       346.56
  317.40        2950.75           2155          74.00       320.40
  317.43        2951.00           2158          81.00       350.92
  317.46        2951.25           2162          88.00       381.43
  317.49        2951.50           2165          77.00       333.48
  317.52        2951.75           2169          77.00       333.48
  317.55        2952.00           2172          85.00       368.36
  317.58        2952.25           2176          84.00       364.00
  317.61        2952.50           2179          81.00       350.92
  317.64        2952.75           2183          85.00       368.36
  317.67        2953.00           2186          86.00       372.72
  317.70        2953.25           2190          87.00       377.08
  317.73        2953.50           2193          83.00       359.64
  317.76        2953.75           2197          91.00       394.51
  317.79        2954.00           2200          84.00       364.00
  317.82        2954.25           2204          80.00       346.56
  317.85        2954.50           2208          91.00       394.51
  317.89        2954.75           2211          83.00       359.64
  317.92        2955.00           2215          91.00       394.51
  317.95        2955.25           2218          93.00       403.23
  317.98        2955.50           2222          92.00       398.87
  318.01        2955.75           2225          94.00       407.59
  318.04        2956.00           2229          79.00       342.20
  318.07        2956.25           2232          94.00       407.59
  318.10        2956.50           2236          88.00       381.43
  318.13        2956.75           2239          93.00       403.23
  318.16        2957.00           2243          98.00       425.03
  318.19        2957.25           2246          95.00       411.95
  318.22        2957.50           2250          92.00       398.87
  318.25        2957.75           2254         108.00       468.62
  318.28        2958.00           2257         119.00       516.57
  318.31        2958.25           2261          96.00       416.31
  318.34        2958.50           2264          98.00       425.03
  318.37        2958.75           2268          98.00       425.03
  318.40        2959.00           2271          94.00       407.59
  318.44        2959.25           2275          96.00       416.31
  318.47        2959.50           2278          95.00       411.95
  318.50        2959.75           2282         122.00       529.65
  318.53        2960.00           2285         106.00       459.90
  318.56        2960.25           2289          98.00       425.03
  318.59        2960.50           2293         112.00       486.06
  318.62        2960.75           2296         108.00       468.62
  318.65        2961.00           2300         153.00       664.79
  318.68        2961.25           2303         256.00      1113.82
  318.71        2961.50           2307         997.00      4344.58
  318.74        2961.75           2310        1896.00      8265.18
  318.77        2962.00           2314        3148.00     13726.98
  318.80        2962.25           2317        4092.00     17846.49
  318.83        2962.50           2321        5486.00     23931.85
  318.86        2962.75           2324        6483.00     28285.69
  318.89        2963.00           2328        7933.00     34620.07
  318.92        2963.25           2331        9018.00     39361.71
  318.96        2963.50           2335       10455.00     45644.01
  318.99        2963.75           2339       12116.00     52908.96
  319.02        2964.00           2342       13355.00     58330.48
  319.05        2964.25           2346       14677.00     64117.39
  319.08        2964.50           2349       15725.00     68706.53
  319.11        2964.75           2353       17081.00     74646.50
  319.14        2965.00           2356       18065.00     78958.43
  319.17        2965.25           2360       19771.00     86437.18
  319.20        2965.50           2363       20931.00     91524.56
  319.23        2965.75           2367       22325.00     97640.52
  319.26        2966.00           2370       23202.00    101489.50
  319.29        2966.25           2374       24591.00    107587.70
  319.32        2966.50           2378       25144.00    110016.30
  319.35        2966.75           2381       25455.00    111382.20
  319.38        2967.00           2385       25480.00    111492.00
  319.41        2967.25           2388       25567.00    111874.20
  319.44        2967.50           2392       25353.00    110934.20
  319.48        2967.75           2395       25132.00    109963.60
  319.51        2968.00           2399       24310.00    106353.80
  319.54        2968.25           2402       23399.00    102354.30
  319.57        2968.50           2406       21976.00     96109.09
  319.60        2968.75           2409       20907.00     91419.28
  319.63        2969.00           2413       19446.00     85012.15
  319.66        2969.25           2417       18013.00     78730.53
  319.69        2969.50           2420       16717.00     73051.75
  319.72        2969.75           2424       15134.00     66118.40
  319.75        2970.00           2427       13970.00     61022.29
  319.78        2970.25           2431       12469.00     54453.39
  319.81        2970.50           2434       11464.00     50056.79
  319.84        2970.75           2438        9964.00     43497.15
  319.87        2971.00           2441        8890.00     38802.25
  319.90        2971.25           2445        7410.00     32335.01
  319.93        2971.50           2449        5958.00     25992.88
  319.96        2971.75           2452        4961.00     21639.72
  320.00        2972.00           2456        3688.00     16083.34
  320.03        2972.25           2459        2534.00     11048.18
  320.06        2972.50           2463        1248.00      5439.11
  320.09        2972.75           2466         581.00      2530.73
  320.12        2973.00           2470         200.00       869.69
  320.15        2973.25           2473         144.00       625.56
  320.18        2973.50           2477         158.00       686.59
  320.21        2973.75           2481         108.00       468.62
  320.24        2974.00           2484         135.00       586.32
  320.27        2974.25           2488         107.00       464.26
  320.30        2974.50           2491         122.00       529.65
  320.33        2974.75           2495         115.00       499.14
  320.36        2975.00           2498         112.00       486.06
  320.39        2975.25           2502         137.00       595.04
  320.42        2975.50           2505         120.00       520.93
  320.45        2975.75           2509          84.00       364.00
  320.48        2976.00           2512          99.00       429.39
  320.52        2976.25           2516          92.00       398.87
  320.55        2976.50           2520          91.00       394.51
  320.58        2976.75           2523          91.00       394.51
  320.61        2977.00           2527          85.00       368.36
  320.64        2977.25           2530          90.00       390.15
  320.67        2977.50           2534          86.00       372.72
  320.70        2977.75           2537          95.00       411.95
  320.73        2978.00           2541          92.00       398.87
  320.76        2978.25           2544          93.00       403.23
  320.79        2978.50           2548          83.00       359.64
  320.82        2978.75           2552          85.00       368.36
  320.85        2979.00           2555          80.00       346.56
  320.88        2979.25           2559          92.00       398.87
  320.91        2979.50           2562          75.00       324.76
  320.94        2979.75           2566          81.00       350.92
  320.97        2980.00           2569          76.00       329.12
  321.00        2980.25           2573          85.00       368.36
  321.04        2980.50           2577          84.00       364.00
  321.07        2980.75           2580          84.00       364.00
  321.10        2981.00           2584          78.00       337.84
  321.13        2981.25           2587          83.00       359.64
  321.16        2981.50           2591          85.00       368.36
  321.19        2981.75           2594          70.00       302.97
  321.22        2982.00           2598          78.00       337.84
  321.25        2982.25           2601          88.00       381.43
  321.28        2982.50           2605          78.00       337.84
  321.31        2982.75           2609          78.00       337.84
  321.34        2983.00           2612          71.00       307.33
  321.37        2983.25           2616          72.00       311.69
  321.40        2983.50           2619          79.00       342.20
  321.43        2983.75           2623          73.00       316.05
  321.46        2984.00           2626          78.00       337.84
HS scan finished at 05:21:41
end
************************************************************
  HS Scan of (1) Internal mercury lamp
************************************************************
Integration time is 0.2294 seconds per sample
dh301217Reading 51.44 .94 3.15pr1000
************************************************************
Dead Time -------------------------  3.4E-08 
Number of Cycles Used -------------  4 
Starting Wavelength (Angstroms) ---  2950 
Final Wavelength (Angstoms) -------  2984 
Wavelength Increment (Angstroms) --  .25 
Filter Wheel #1 Position ---------- (1) Ground quartz diffuser (ND=2.32)
Filter Wheel #2 Position ---------- (1) Neutral Density 0.494



************************************************************
HS scan start time = 17:07:24
Dark Count =  1.3 


Time (GMT)  Wavelength (Ang)  Step Number  Raw Counts  Counts/Second

 1028.29        2950.00           2144          79.00       338.71
 1028.49        2950.25           2147          73.00       312.56
 1028.52        2950.50           2151          76.00       325.64
 1028.55        2950.75           2155          78.00       334.35
 1028.58        2951.00           2158          72.00       308.20
 1028.61        2951.25           2162          72.00       308.20
 1028.64        2951.50           2165          74.00       316.92
 1028.67        2951.75           2169          81.00       347.43
 1028.70        2952.00           2172          73.00       312.56
 1028.73        2952.25           2176          67.00       286.40
 1028.76        2952.50           2179          77.00       329.99
 1028.79        2952.75           2183          77.00       329.99
 1028.82        2953.00           2186          72.00       308.20
 1028.85        2953.25           2190          77.00       329.99
 1028.88        2953.50           2193          73.00       312.56
 1028.92        2953.75           2197          74.00       316.92
 1028.95        2954.00           2200          79.00       338.71
 1028.98        2954.25           2204          74.00       316.92
 1029.01        2954.50           2208          81.00       347.43
 1029.04        2954.75           2211          83.00       356.15
 1029.07        2955.00           2215          75.00       321.28
 1029.10        2955.25           2218          69.00       295.12
 1029.13        2955.50           2222          77.00       329.99
 1029.16        2955.75           2225          81.00       347.43
 1029.19        2956.00           2229          69.00       295.12
 1029.22        2956.25           2232          86.00       369.23
 1029.25        2956.50           2236          82.00       351.79
 1029.28        2956.75           2239          85.00       364.87
 1029.31        2957.00           2243          83.00       356.15
 1029.34        2957.25           2246          85.00       364.87
 1029.37        2957.50           2250          83.00       356.15
 1029.41        2957.75           2254          88.00       377.95
 1029.44        2958.00           2257          81.00       347.43
 1029.47        2958.25           2261          84.00       360.51
 1029.50        2958.50           2264         109.00       469.49
 1029.53        2958.75           2268          88.00       377.95
 1029.56        2959.00           2271          83.00       356.15
 1029.59        2959.25           2275          88.00       377.95
 1029.63        2959.50           2278          90.00       386.67
 1029.66        2959.75           2282         107.00       460.77
 1029.69        2960.00           2285          92.00       395.38
 1029.72        2960.25           2289          91.00       391.03
 1029.75        2960.50           2293         143.00       617.71
 1029.78        2960.75           2296         105.00       452.06
 1029.81        2961.00           2300         123.00       530.52
 1029.84        2961.25           2303         235.00      1018.78
 1029.87        2961.50           2307         822.00      3578.03
 1029.90        2961.75           2310        1553.00      6765.72
 1029.93        2962.00           2314        2690.00     11725.25
 1029.96        2962.25           2317        3636.00     15852.92
 1029.99        2962.50           2321        4975.00     21697.35
 1030.02        2962.75           2324        5883.00     25661.88
 1030.05        2963.00           2328        7271.00     31724.26
 1030.08        2963.25           2331        8333.00     36364.47
 1030.11        2963.50           2335        9785.00     42711.07
 1030.15        2963.75           2339       11161.00     48728.01
 1030.18        2964.00           2342       11948.00     52170.49
 1030.21        2964.25           2346       13195.00     57626.75
 1030.24        2964.50           2349       14415.00     62966.83
 1030.27        2964.75           2353       15941.00     69649.05
 1030.30        2965.00           2356       16817.00     73486.34
 1030.33        2965.25           2360       18112.00     79160.90
 1030.36        2965.50           2363       18772.00     82053.79
 1030.39        2965.75           2367       20222.00     88411.40
 1030.42        2966.00           2370       21188.00     92648.40
 1030.45        2966.25           2374       22173.00     96970.02
 1030.48        2966.50           2378       22944.00    100353.60
 1030.51        2966.75           2381       22934.00    100309.70
 1030.54        2967.00           2385       23397.00    102342.00
 1030.57        2967.25           2388       23396.00    102337.60
 1030.60        2967.50           2392       23270.00    101784.50
 1030.63        2967.75           2395       23184.00    101407.00
 1030.67        2968.00           2399       22532.00     98545.41
 1030.70        2968.25           2402       22075.00     96539.99
 1030.73        2968.50           2406       20595.00     90047.28
 1030.76        2968.75           2409       19538.00     85412.02
 1030.79        2969.00           2413       18232.00     79686.84
 1030.82        2969.25           2417       17063.00     74564.13
 1030.85        2969.50           2420       16544.00     72290.36
 1030.88        2969.75           2424       15135.00     66119.27
 1030.91        2970.00           2427       13711.00     59885.10
 1030.94        2970.25           2431       11869.00     51824.89
 1030.97        2970.50           2434       10837.00     47311.01
 1031.00        2970.75           2438        9490.00     41421.42
 1031.03        2971.00           2441        8409.00     36696.59
 1031.06        2971.25           2445        7365.00     32134.92
 1031.09        2971.50           2449        5889.00     25688.08
 1031.12        2971.75           2452        4788.00     20880.99
 1031.15        2972.00           2456        3417.00     14897.26
 1031.19        2972.25           2459        2490.00     10852.74
 1031.22        2972.50           2463        1288.00      5610.05
 1031.25        2972.75           2466         677.00      2945.81
 1031.28        2973.00           2470         225.00       975.18
 1031.31        2973.25           2473         132.00       569.76
 1031.34        2973.50           2477         104.00       447.70
 1031.37        2973.75           2481         119.00       513.09
 1031.40        2974.00           2484         106.00       456.42
 1031.43        2974.25           2488          99.00       425.90
 1031.46        2974.50           2491         114.00       491.29
 1031.49        2974.75           2495         129.00       556.68
 1031.52        2975.00           2498          92.00       395.38
 1031.55        2975.25           2502          94.00       404.10
 1031.58        2975.50           2505          85.00       364.87
 1031.61        2975.75           2509          89.00       382.31
 1031.64        2976.00           2512          87.00       373.59
 1031.67        2976.25           2516          89.00       382.31
 1031.71        2976.50           2520          86.00       369.23
 1031.74        2976.75           2523          87.00       373.59
 1031.77        2977.00           2527          94.00       404.10
 1031.80        2977.25           2530          76.00       325.64
 1031.83        2977.50           2534          80.00       343.07
 1031.86        2977.75           2537          95.00       408.46
 1031.89        2978.00           2541          90.00       386.67
 1031.92        2978.25           2544          80.00       343.07
 1031.95        2978.50           2548          78.00       334.35
 1031.98        2978.75           2552          80.00       343.07
 1032.01        2979.00           2555          80.00       343.07
 1032.04        2979.25           2559          74.00       316.92
 1032.07        2979.50           2562          84.00       360.51
 1032.10        2979.75           2566          77.00       329.99
 1032.13        2980.00           2569          77.00       329.99
 1032.16        2980.25           2573          74.00       316.92
 1032.20        2980.50           2577          80.00       343.07
 1032.23        2980.75           2580          78.00       334.35
 1032.26        2981.00           2584          70.00       299.48
 1032.29        2981.25           2587          73.00       312.56
 1032.32        2981.50           2591          71.00       303.84
 1032.35        2981.75           2594          71.00       303.84
 1032.38        2982.00           2598          74.00       316.92
 1032.41        2982.25           2601          73.00       312.56
 1032.44        2982.50           2605          72.00       308.20
 1032.47        2982.75           2609          67.00       286.40
 1032.50        2983.00           2612          69.00       295.12
 1032.53        2983.25           2616          78.00       334.35
 1032.56        2983.50           2619          69.00       295.12
 1032.59        2983.75           2623          72.00       308.20
 1032.62        2984.00           2626          71.00       303.84
HS scan finished at 17:12:51
end
