************************************************************
  HS Scan of (1) Internal mercury lamp
************************************************************
Integration time is 0.2294 seconds per sample
dh281217Reading 51.44 .94 2.25pr1000
************************************************************
Dead Time -------------------------  3.4E-08 
Number of Cycles Used -------------  4 
Starting Wavelength (Angstroms) ---  2950 
Final Wavelength (Angstoms) -------  2984 
Wavelength Increment (Angstroms) --  .25 
Filter Wheel #1 Position ---------- (1) Ground quartz diffuser (ND=2.32)
Filter Wheel #2 Position ---------- (1) Neutral Density 0.494



************************************************************
HS scan start time = 05:18:52
Dark Count =  .1 


Time (GMT)  Wavelength (Ang)  Step Number  Raw Counts  Counts/Second

  319.76        2950.00           2144         144.00       627.30
  319.95        2950.25           2147          99.00       431.13
  319.98        2950.50           2151         123.00       535.76
  320.01        2950.75           2155          97.00       422.41
  320.04        2951.00           2158         120.00       522.68
  320.07        2951.25           2162         118.00       513.96
  320.10        2951.50           2165         124.00       540.11
  320.13        2951.75           2169         112.00       487.80
  320.16        2952.00           2172         107.00       466.01
  320.20        2952.25           2176         121.00       527.04
  320.23        2952.50           2179         110.00       479.08
  320.26        2952.75           2183         106.00       461.65
  320.29        2953.00           2186         103.00       448.57
  320.32        2953.25           2190         147.00       640.38
  320.35        2953.50           2193         125.00       544.47
  320.38        2953.75           2197         105.00       457.29
  320.41        2954.00           2200         135.00       588.07
  320.44        2954.25           2204         127.00       553.19
  320.47        2954.50           2208         123.00       535.76
  320.50        2954.75           2211         123.00       535.76
  320.53        2955.00           2215         133.00       579.35
  320.56        2955.25           2218         138.00       601.15
  320.59        2955.50           2222         124.00       540.11
  320.62        2955.75           2225         132.00       574.99
  320.65        2956.00           2229         120.00       522.68
  320.68        2956.25           2232         152.00       662.18
  320.72        2956.50           2236         110.00       479.08
  320.75        2956.75           2239         131.00       570.63
  320.78        2957.00           2243         155.00       675.26
  320.81        2957.25           2246         129.00       561.91
  320.84        2957.50           2250         143.00       622.94
  320.87        2957.75           2254         145.00       631.66
  320.90        2958.00           2257         123.00       535.76
  320.93        2958.25           2261         119.00       518.32
  320.96        2958.50           2264         144.00       627.30
  320.99        2958.75           2268         123.00       535.76
  321.02        2959.00           2271         134.00       583.71
  321.05        2959.25           2275         140.00       609.86
  321.08        2959.50           2278         128.00       557.55
  321.11        2959.75           2282         155.00       675.26
  321.14        2960.00           2285         138.00       601.15
  321.17        2960.25           2289         149.00       649.10
  321.21        2960.50           2293         154.00       670.90
  321.24        2960.75           2296         148.00       644.74
  321.27        2961.00           2300         170.00       740.65
  321.30        2961.25           2303         280.00      1220.19
  321.33        2961.50           2307        1055.00      4599.24
  321.36        2961.75           2310        2182.00      9514.41
  321.39        2962.00           2314        3746.00     16338.19
  321.42        2962.25           2317        4855.00     21178.72
  321.45        2962.50           2321        6490.00     28318.01
  321.48        2962.75           2324        7842.00     34224.20
  321.51        2963.00           2328        9698.00     42335.96
  321.54        2963.25           2331       11182.00     48825.10
  321.57        2963.50           2335       12980.00     56691.13
  321.60        2963.75           2339       14295.00     62446.75
  321.63        2964.00           2342       15539.00     67893.69
  321.66        2964.25           2346       17351.00     75831.27
  321.69        2964.50           2349       18645.00     81502.35
  321.72        2964.75           2353       20247.00     88526.31
  321.76        2965.00           2356       22134.00     96804.14
  321.79        2965.25           2360       23858.00    104371.00
  321.82        2965.50           2363       24764.00    108349.20
  321.85        2965.75           2367       26206.00    114683.00
  321.88        2966.00           2370       27792.00    121652.50
  321.91        2966.25           2374       29155.00    127644.80
  321.94        2966.50           2378       29986.00    131299.30
  321.97        2966.75           2381       30027.00    131479.70
  322.00        2967.00           2385       30472.00    133437.10
  322.03        2967.25           2388       30376.00    133014.80
  322.06        2967.50           2392       30129.00    131928.30
  322.09        2967.75           2395       30238.00    132407.70
  322.12        2968.00           2399       29214.00    127904.20
  322.15        2968.25           2402       28008.00    122602.00
  322.18        2968.50           2406       26287.00    115038.90
  322.21        2968.75           2409       25014.00    109447.10
  322.24        2969.00           2413       23157.00    101293.80
  322.28        2969.25           2417       21680.00     94812.12
  322.31        2969.50           2420       20428.00     89320.11
  322.34        2969.75           2424       18395.00     80406.53
  322.37        2970.00           2427       17242.00     75353.66
  322.40        2970.25           2431       15298.00     66838.30
  322.43        2970.50           2434       13893.00     60687.00
  322.46        2970.75           2438       12092.00     52805.71
  322.49        2971.00           2441       10994.00     48002.87
  322.52        2971.25           2445        9273.00     40478.08
  322.55        2971.50           2449        7676.00     33498.90
  322.58        2971.75           2452        6490.00     28318.01
  322.61        2972.00           2456        4894.00     21348.97
  322.64        2972.25           2459        3593.00     15670.51
  322.67        2972.50           2463        1951.00      8506.82
  322.70        2972.75           2466         949.00      4137.03
  322.73        2973.00           2470         314.00      1368.42
  322.77        2973.25           2473         199.00       867.07
  322.80        2973.50           2477         153.00       666.54
  322.83        2973.75           2481         146.00       636.02
  322.86        2974.00           2484         151.00       657.82
  322.89        2974.25           2488         144.00       627.30
  322.92        2974.50           2491         145.00       631.66
  322.95        2974.75           2495         137.00       596.79
  322.98        2975.00           2498         151.00       657.82
  323.01        2975.25           2502         151.00       657.82
  323.04        2975.50           2505         125.00       544.47
  323.07        2975.75           2509         116.00       505.24
  323.10        2976.00           2512         134.00       583.71
  323.13        2976.25           2516         120.00       522.68
  323.16        2976.50           2520         139.00       605.51
  323.19        2976.75           2523         116.00       505.24
  323.22        2977.00           2527         125.00       544.47
  323.25        2977.25           2530         124.00       540.11
  323.28        2977.50           2534         124.00       540.11
  323.32        2977.75           2537         137.00       596.79
  323.35        2978.00           2541         129.00       561.91
  323.38        2978.25           2544         111.00       483.44
  323.41        2978.50           2548         108.00       470.37
  323.44        2978.75           2552         108.00       470.37
  323.47        2979.00           2555          97.00       422.41
  323.50        2979.25           2559         117.00       509.60
  323.53        2979.50           2562         104.00       452.93
  323.56        2979.75           2566         119.00       518.32
  323.59        2980.00           2569         100.00       435.49
  323.62        2980.25           2573          99.00       431.13
  323.65        2980.50           2577         146.00       636.02
  323.68        2980.75           2580         104.00       452.93
  323.71        2981.00           2584          96.00       418.05
  323.74        2981.25           2587         120.00       522.68
  323.77        2981.50           2591          98.00       426.77
  323.80        2981.75           2594         154.00       670.90
  323.84        2982.00           2598         104.00       452.93
  323.87        2982.25           2601         122.00       531.40
  323.90        2982.50           2605         105.00       457.29
  323.93        2982.75           2609          98.00       426.77
  323.96        2983.00           2612         101.00       439.85
  323.99        2983.25           2616          96.00       418.05
  324.02        2983.50           2619         114.00       496.52
  324.05        2983.75           2623         134.00       583.71
  324.08        2984.00           2626          91.00       396.26
HS scan finished at 05:24:18
end
************************************************************
  HS Scan of (1) Internal mercury lamp
************************************************************
Integration time is 0.2294 seconds per sample
dh281217Reading 51.44 .94 2.54pr1000
************************************************************
Dead Time -------------------------  3.4E-08 
Number of Cycles Used -------------  4 
Starting Wavelength (Angstroms) ---  2950 
Final Wavelength (Angstoms) -------  2984 
Wavelength Increment (Angstroms) --  .25 
Filter Wheel #1 Position ---------- (1) Ground quartz diffuser (ND=2.32)
Filter Wheel #2 Position ---------- (1) Neutral Density 0.494



************************************************************
HS scan start time = 17:07:26
Dark Count =  .4 


Time (GMT)  Wavelength (Ang)  Step Number  Raw Counts  Counts/Second

 1028.34        2950.00           2144          95.00       412.39
 1028.53        2950.25           2147          98.00       425.46
 1028.56        2950.50           2151          89.00       386.23
 1028.59        2950.75           2155          96.00       416.75
 1028.62        2951.00           2158          87.00       377.51
 1028.65        2951.25           2162          97.00       421.10
 1028.68        2951.50           2165          88.00       381.87
 1028.71        2951.75           2169          89.00       386.23
 1028.74        2952.00           2172          88.00       381.87
 1028.77        2952.25           2176          95.00       412.39
 1028.80        2952.50           2179         111.00       482.14
 1028.84        2952.75           2183          80.00       347.00
 1028.87        2953.00           2186         101.00       438.54
 1028.90        2953.25           2190          88.00       381.87
 1028.93        2953.50           2193          99.00       429.82
 1028.96        2953.75           2197          97.00       421.10
 1028.99        2954.00           2200         102.00       442.90
 1029.02        2954.25           2204         102.00       442.90
 1029.05        2954.50           2208         108.00       469.06
 1029.08        2954.75           2211         102.00       442.90
 1029.11        2955.00           2215          92.00       399.31
 1029.14        2955.25           2218          95.00       412.39
 1029.17        2955.50           2222          88.00       381.87
 1029.20        2955.75           2225         112.00       486.49
 1029.23        2956.00           2229          98.00       425.46
 1029.26        2956.25           2232         121.00       525.73
 1029.29        2956.50           2236          96.00       416.75
 1029.33        2956.75           2239         119.00       517.01
 1029.36        2957.00           2243         124.00       538.81
 1029.39        2957.25           2246         107.00       464.70
 1029.42        2957.50           2250         108.00       469.06
 1029.45        2957.75           2254         106.00       460.34
 1029.48        2958.00           2257         118.00       512.65
 1029.51        2958.25           2261         118.00       512.65
 1029.54        2958.50           2264         118.00       512.65
 1029.57        2958.75           2268         113.00       490.85
 1029.60        2959.00           2271         149.00       647.79
 1029.63        2959.25           2275         112.00       486.49
 1029.66        2959.50           2278         118.00       512.65
 1029.69        2959.75           2282         141.00       612.92
 1029.72        2960.00           2285         123.00       534.45
 1029.75        2960.25           2289         132.00       573.68
 1029.78        2960.50           2293         124.00       538.81
 1029.81        2960.75           2296         144.00       625.99
 1029.84        2961.00           2300         185.00       804.73
 1029.88        2961.25           2303         298.00      1297.35
 1029.91        2961.50           2307         997.00      4345.02
 1029.94        2961.75           2310        1873.00      8165.30
 1029.97        2962.00           2314        3172.00     13832.14
 1030.00        2962.25           2317        4293.00     18724.21
 1030.03        2962.50           2321        5771.00     25176.73
 1030.06        2962.75           2324        7063.00     30819.55
 1030.09        2963.00           2328        8429.00     36787.92
 1030.12        2963.25           2331        9772.00     42658.16
 1030.15        2963.50           2335       11315.00     49405.51
 1030.18        2963.75           2339       13071.00     57088.03
 1030.21        2964.00           2342       14164.00     61871.96
 1030.24        2964.25           2346       15736.00     68755.13
 1030.27        2964.50           2349       16878.00     73757.53
 1030.30        2964.75           2353       18542.00     81049.55
 1030.33        2965.00           2356       19580.00     85600.12
 1030.36        2965.25           2360       21058.00     92082.09
 1030.40        2965.50           2363       22044.00     96407.91
 1030.43        2965.75           2367       23331.00    102056.20
 1030.46        2966.00           2370       24630.00    107759.40
 1030.49        2966.25           2374       25577.00    111918.50
 1030.52        2966.50           2378       25997.00    113763.50
 1030.55        2966.75           2381       26482.00    115894.30
 1030.58        2967.00           2385       26582.00    116333.70
 1030.61        2967.25           2388       26416.00    115604.30
 1030.64        2967.50           2392       26404.00    115551.60
 1030.67        2967.75           2395       26445.00    115731.70
 1030.70        2968.00           2399       25644.00    112212.80
 1030.73        2968.25           2402       24602.00    107636.40
 1030.76        2968.50           2406       23636.00    103395.10
 1030.79        2968.75           2409       22589.00     98799.51
 1030.82        2969.00           2413       20379.00     89103.88
 1030.85        2969.25           2417       19098.00     83486.86
 1030.88        2969.50           2420       18077.00     79011.45
 1030.92        2969.75           2424       16334.00     71374.40
 1030.95        2970.00           2427       15133.00     66114.46
 1030.98        2970.25           2431       13590.00     59359.44
 1031.01        2970.50           2434       12487.00     54532.58
 1031.04        2970.75           2438       10834.00     47301.82
 1031.07        2971.00           2441        9564.00     41748.85
 1031.10        2971.25           2445        8259.00     36045.02
 1031.13        2971.50           2449        6648.00     29006.80
 1031.16        2971.75           2452        5510.00     24037.07
 1031.19        2972.00           2456        3942.00     17192.26
 1031.22        2972.25           2459        2978.00     12985.68
 1031.25        2972.50           2463        1561.00      6804.54
 1031.28        2972.75           2466         724.00      3154.65
 1031.31        2973.00           2470         214.00       931.15
 1031.34        2973.25           2473         152.00       660.87
 1031.37        2973.50           2477         138.00       599.84
 1031.40        2973.75           2481         122.00       530.09
 1031.44        2974.00           2484         124.00       538.81
 1031.47        2974.25           2488         144.00       625.99
 1031.50        2974.50           2491         123.00       534.45
 1031.53        2974.75           2495         113.00       490.85
 1031.56        2975.00           2498         148.00       643.43
 1031.59        2975.25           2502         132.00       573.68
 1031.62        2975.50           2505         123.00       534.45
 1031.65        2975.75           2509         131.00       569.32
 1031.68        2976.00           2512         113.00       490.85
 1031.71        2976.25           2516         104.00       451.62
 1031.74        2976.50           2520         129.00       560.60
 1031.77        2976.75           2523         162.00       704.46
 1031.80        2977.00           2527         101.00       438.54
 1031.83        2977.25           2530         142.00       617.28
 1031.86        2977.50           2534         101.00       438.54
 1031.89        2977.75           2537          97.00       421.10
 1031.92        2978.00           2541         117.00       508.29
 1031.96        2978.25           2544          99.00       429.82
 1031.99        2978.50           2548         110.00       477.78
 1032.02        2978.75           2552         113.00       490.85
 1032.05        2979.00           2555         100.00       434.18
 1032.08        2979.25           2559          98.00       425.46
 1032.11        2979.50           2562          96.00       416.75
 1032.14        2979.75           2566          88.00       381.87
 1032.17        2980.00           2569          95.00       412.39
 1032.20        2980.25           2573          84.00       364.43
 1032.23        2980.50           2577          97.00       421.10
 1032.26        2980.75           2580          96.00       416.75
 1032.29        2981.00           2584          91.00       394.95
 1032.32        2981.25           2587          80.00       347.00
 1032.35        2981.50           2591          94.00       408.03
 1032.38        2981.75           2594          91.00       394.95
 1032.41        2982.00           2598          97.00       421.10
 1032.44        2982.25           2601          88.00       381.87
 1032.48        2982.50           2605          91.00       394.95
 1032.51        2982.75           2609          86.00       373.15
 1032.54        2983.00           2612          83.00       360.07
 1032.57        2983.25           2616          92.00       399.31
 1032.60        2983.50           2619          84.00       364.43
 1032.63        2983.75           2623          87.00       377.51
 1032.66        2984.00           2626          83.00       360.07
HS scan finished at 17:12:53
end
