************************************************************
  HS Scan of (1) Internal mercury lamp
************************************************************
Integration time is 0.2294 seconds per sample
dh281218Reading 51.44 .94 2.84pr1000
************************************************************
Dead Time -------------------------  3.4E-08 
Number of Cycles Used -------------  4 
Starting Wavelength (Angstroms) ---  2950 
Final Wavelength (Angstoms) -------  2984 
Wavelength Increment (Angstroms) --  .25 
Filter Wheel #1 Position ---------- (1) Ground quartz diffuser (ND=2.32)
Filter Wheel #2 Position ---------- (1) Neutral Density 0.494



************************************************************
HS scan start time = 05:15:48
Dark Count =  .6 


Time (GMT)  Wavelength (Ang)  Step Number  Raw Counts  Counts/Second

  316.69        2950.00           2144        1535.00      6690.28
  316.88        2950.25           2147        1521.00      6629.22
  316.91        2950.50           2151        1511.00      6585.61
  316.94        2950.75           2155        1484.00      6467.86
  316.98        2951.00           2158        1543.00      6725.16
  317.01        2951.25           2162        1498.00      6528.91
  317.04        2951.50           2165        1541.00      6716.44
  317.07        2951.75           2169        1553.00      6768.78
  317.10        2952.00           2172        1569.00      6838.56
  317.13        2952.25           2176        1525.00      6646.66
  317.16        2952.50           2179        1521.00      6629.22
  317.19        2952.75           2183        1574.00      6860.36
  317.22        2953.00           2186        1569.00      6838.56
  317.25        2953.25           2190        1542.00      6720.80
  317.28        2953.50           2193        1563.00      6812.39
  317.31        2953.75           2197        1574.00      6860.36
  317.34        2954.00           2200        1581.00      6890.89
  317.37        2954.25           2204        1577.00      6873.45
  317.40        2954.50           2208        1588.00      6921.42
  317.43        2954.75           2211        1609.00      7013.01
  317.46        2955.00           2215        1605.00      6995.56
  317.50        2955.25           2218        1609.00      7013.01
  317.53        2955.50           2222        1582.00      6895.25
  317.56        2955.75           2225        1604.00      6991.20
  317.59        2956.00           2229        1681.00      7327.02
  317.62        2956.25           2232        1623.00      7074.06
  317.65        2956.50           2236        1680.00      7322.66
  317.68        2956.75           2239        1687.00      7353.19
  317.71        2957.00           2243        1691.00      7370.64
  317.74        2957.25           2246        1666.00      7261.60
  317.77        2957.50           2250        1689.00      7361.91
  317.80        2957.75           2254        1696.00      7392.44
  317.83        2958.00           2257        1722.00      7505.84
  317.86        2958.25           2261        1718.00      7488.39
  317.89        2958.50           2264        1764.00      7689.02
  317.92        2958.75           2268        1745.00      7606.15
  317.95        2959.00           2271        1824.00      7950.71
  317.98        2959.25           2275        1842.00      8029.22
  318.02        2959.50           2278        1802.00      7854.76
  318.05        2959.75           2282        1883.00      8208.05
  318.08        2960.00           2285        1860.00      8107.73
  318.11        2960.25           2289        1885.00      8216.77
  318.14        2960.50           2293        1896.00      8264.75
  318.17        2960.75           2296        1981.00      8635.49
  318.20        2961.00           2300        2072.00      9032.42
  318.23        2961.25           2303        2346.00     10227.62
  318.26        2961.50           2307        6425.00     28031.94
  318.29        2961.75           2310       15162.00     66240.56
  318.32        2962.00           2314       32089.00    140549.70
  318.35        2962.25           2317       46675.00    204885.30
  318.38        2962.50           2321       69115.00    304417.90
  318.41        2962.75           2324       86332.00    381245.60
  318.44        2963.00           2328      108683.00    481589.50
  318.47        2963.25           2331      124067.00    551058.50
  318.50        2963.50           2335      147544.00    657715.80
  318.53        2963.75           2339      168743.00    754700.80
  318.57        2964.00           2342      187235.00    839833.60
  318.60        2964.25           2346      210609.00    948162.70
  318.63        2964.50           2349      229253.00   1035156.00
  318.66        2964.75           2353      252520.00   1144460.00
  318.69        2965.00           2356      268893.00   1221877.00
  318.72        2965.25           2360      288922.00   1317151.00
  318.75        2965.50           2363      304409.00   1391254.00
  318.78        2965.75           2367      323678.00   1483992.00
  318.81        2966.00           2370      338530.00   1555884.00
  318.85        2966.25           2374      359003.00   1655580.00
  318.88        2966.50           2378      374449.00   1731260.00
  318.91        2966.75           2381      378518.00   1751264.00
  318.94        2967.00           2385      380151.00   1759300.00
  318.97        2967.25           2388      380150.00   1759295.00
  319.00        2967.50           2392      380642.00   1761717.00
  319.03        2967.75           2395      378825.00   1752775.00
  319.06        2968.00           2399      372193.00   1720182.00
  319.09        2968.25           2402      361094.00   1665802.00
  319.12        2968.50           2406      344218.00   1583513.00
  319.15        2968.75           2409      329359.00   1511449.00
  319.18        2969.00           2413      309555.00   1415963.00
  319.21        2969.25           2417      289840.00   1321532.00
  319.24        2969.50           2420      272435.00   1238679.00
  319.27        2969.75           2424      248526.00   1125638.00
  319.30        2970.00           2427      231462.00   1045498.00
  319.33        2970.25           2431      208199.00    936955.80
  319.37        2970.50           2434      192168.00    862628.70
  319.40        2970.75           2438      171158.00    765790.50
  319.43        2971.00           2441      155067.00    692059.30
  319.46        2971.25           2445      133662.00    594554.80
  319.49        2971.50           2449      112114.00    497054.10
  319.52        2971.75           2452       94900.00    419629.80
  319.55        2972.00           2456       73062.00    321995.00
  319.58        2972.25           2459       55331.00    243198.80
  319.61        2972.50           2463       33009.00    144599.30
  319.64        2972.75           2466       19431.00     84945.94
  319.67        2973.00           2470        7466.00     32579.22
  319.70        2973.25           2473        3723.00     16235.64
  319.73        2973.50           2477        2192.00      9555.85
  319.76        2973.75           2481        2028.00      8840.50
  319.79        2974.00           2484        1979.00      8626.77
  319.82        2974.25           2488        1929.00      8408.68
  319.85        2974.50           2491        1941.00      8461.02
  319.89        2974.75           2495        1864.00      8125.17
  319.92        2975.00           2498        1870.00      8151.34
  319.95        2975.25           2502        1789.00      7798.06
  319.98        2975.50           2505        1826.00      7959.43
  320.01        2975.75           2509        1786.00      7784.97
  320.04        2976.00           2512        1744.00      7601.79
  320.07        2976.25           2516        1703.00      7422.97
  320.10        2976.50           2520        1666.00      7261.60
  320.13        2976.75           2523        1682.00      7331.38
  320.16        2977.00           2527        1671.00      7283.41
  320.19        2977.25           2530        1652.00      7200.54
  320.22        2977.50           2534        1628.00      7095.87
  320.25        2977.75           2537        1660.00      7235.43
  320.28        2978.00           2541        1641.00      7152.57
  320.31        2978.25           2544        1584.00      6903.97
  320.34        2978.50           2548        1597.00      6960.67
  320.37        2978.75           2552        1571.00      6847.28
  320.41        2979.00           2555        1564.00      6816.75
  320.44        2979.25           2559        1578.00      6877.81
  320.47        2979.50           2562        1551.00      6760.05
  320.50        2979.75           2566        1515.00      6603.05
  320.53        2980.00           2569        1508.00      6572.52
  320.56        2980.25           2573        1553.00      6768.78
  320.59        2980.50           2577        1511.00      6585.61
  320.62        2980.75           2580        1474.00      6424.25
  320.65        2981.00           2584        1465.00      6385.00
  320.68        2981.25           2587        1470.00      6406.80
  320.71        2981.50           2591        1476.00      6432.97
  320.74        2981.75           2594        1463.00      6376.27
  320.77        2982.00           2598        1434.00      6249.80
  320.80        2982.25           2601        1501.00      6542.00
  320.83        2982.50           2605        1427.00      6219.28
  320.86        2982.75           2609        1463.00      6376.27
  320.89        2983.00           2612        1473.00      6419.88
  320.93        2983.25           2616        1416.00      6171.30
  320.96        2983.50           2619        1423.00      6201.83
  320.99        2983.75           2623        1412.00      6153.86
  321.02        2984.00           2626        1448.00      6310.86
HS scan finished at 05:21:15
end
************************************************************
  HS Scan of (1) Internal mercury lamp
************************************************************
Integration time is 0.2294 seconds per sample
dh281218Reading 51.44 .94 3.05pr1000
************************************************************
Dead Time -------------------------  3.4E-08 
Number of Cycles Used -------------  4 
Starting Wavelength (Angstroms) ---  2950 
Final Wavelength (Angstoms) -------  2984 
Wavelength Increment (Angstroms) --  .25 
Filter Wheel #1 Position ---------- (1) Ground quartz diffuser (ND=2.32)
Filter Wheel #2 Position ---------- (1) Neutral Density 0.494



************************************************************
HS scan start time = 17:07:26
Dark Count =  1 


Time (GMT)  Wavelength (Ang)  Step Number  Raw Counts  Counts/Second

 1028.34        2950.00           2144        1176.00      5122.95
 1028.53        2950.25           2147        1121.00      4883.11
 1028.56        2950.50           2151        1130.00      4922.36
 1028.59        2950.75           2155        1162.00      5061.90
 1028.62        2951.00           2158        1131.00      4926.72
 1028.65        2951.25           2162        1166.00      5079.34
 1028.68        2951.50           2165        1168.00      5088.06
 1028.71        2951.75           2169        1160.00      5053.18
 1028.74        2952.00           2172        1170.00      5096.79
 1028.77        2952.25           2176        1125.00      4900.56
 1028.80        2952.50           2179        1171.00      5101.15
 1028.84        2952.75           2183        1163.00      5066.26
 1028.87        2953.00           2186        1169.00      5092.43
 1028.90        2953.25           2190        1158.00      5044.46
 1028.93        2953.50           2193        1146.00      4992.13
 1028.96        2953.75           2197        1171.00      5101.15
 1028.99        2954.00           2200        1196.00      5210.16
 1029.02        2954.25           2204        1215.00      5293.02
 1029.05        2954.50           2208        1176.00      5122.95
 1029.08        2954.75           2211        1223.00      5327.91
 1029.11        2955.00           2215        1220.00      5314.82
 1029.14        2955.25           2218        1220.00      5314.82
 1029.17        2955.50           2222        1219.00      5310.46
 1029.20        2955.75           2225        1214.00      5288.66
 1029.23        2956.00           2229        1232.00      5367.15
 1029.26        2956.25           2232        1202.00      5236.33
 1029.29        2956.50           2236        1242.00      5410.76
 1029.33        2956.75           2239        1285.00      5598.28
 1029.36        2957.00           2243        1295.00      5641.88
 1029.39        2957.25           2246        1267.00      5519.78
 1029.42        2957.50           2250        1259.00      5484.89
 1029.45        2957.75           2254        1264.00      5506.70
 1029.48        2958.00           2257        1297.00      5650.61
 1029.51        2958.25           2261        1333.00      5807.60
 1029.54        2958.50           2264        1357.00      5912.26
 1029.57        2958.75           2268        1339.00      5833.76
 1029.60        2959.00           2271        1323.00      5763.99
 1029.63        2959.25           2275        1333.00      5807.60
 1029.66        2959.50           2278        1374.00      5986.40
 1029.69        2959.75           2282        1389.00      6051.81
 1029.72        2960.00           2285        1404.00      6117.23
 1029.75        2960.25           2289        1486.00      6474.83
 1029.78        2960.50           2293        1475.00      6426.86
 1029.81        2960.75           2296        1505.00      6557.70
 1029.85        2961.00           2300        1563.00      6810.64
 1029.88        2961.25           2303        1761.00      7674.19
 1029.91        2961.50           2307        4113.00     17935.96
 1029.94        2961.75           2310       10840.00     47325.44
 1029.97        2962.00           2314       25134.00    109970.10
 1030.00        2962.25           2317       37776.00    165598.50
 1030.03        2962.50           2321       52983.00    232794.30
 1030.06        2962.75           2324       65118.00    286637.80
 1030.09        2963.00           2328       83621.00    369119.70
 1030.12        2963.25           2331       98399.00    435332.50
 1030.15        2963.50           2335      117889.00    523119.10
 1030.18        2963.75           2339      135670.00    603672.10
 1030.21        2964.00           2342      148296.00    661143.30
 1030.24        2964.25           2346      166966.00    746544.20
 1030.27        2964.50           2349      180304.00    807864.50
 1030.30        2964.75           2353      199325.00    895762.80
 1030.33        2965.00           2356      213195.00    960195.90
 1030.37        2965.25           2360      230543.00   1041192.00
 1030.40        2965.50           2363      243374.00   1101393.00
 1030.43        2965.75           2367      259443.00   1177141.00
 1030.46        2966.00           2370      270990.00   1231820.00
 1030.49        2966.25           2374      284890.00   1297918.00
 1030.52        2966.50           2378      296991.00   1355710.00
 1030.55        2966.75           2381      300370.00   1371889.00
 1030.58        2967.00           2385      302673.00   1382927.00
 1030.61        2967.25           2388      302704.00   1383075.00
 1030.64        2967.50           2392      302665.00   1382888.00
 1030.67        2967.75           2395      302461.00   1381910.00
 1030.70        2968.00           2399      298291.00   1361933.00
 1030.73        2968.25           2402      290437.00   1324381.00
 1030.76        2968.50           2406      275059.00   1251138.00
 1030.79        2968.75           2409      262545.00   1191810.00
 1030.82        2969.00           2413      246853.00   1117759.00
 1030.85        2969.25           2417      231123.00   1043908.00
 1030.89        2969.50           2420      218437.00    984622.40
 1030.92        2969.75           2424      201551.00    906084.40
 1030.95        2970.00           2427      189289.00    849318.80
 1030.98        2970.25           2431      170183.00    761310.40
 1031.01        2970.50           2434      155725.00    695065.10
 1031.04        2970.75           2438      137963.00    614092.50
 1031.07        2971.00           2441      124306.00    552138.60
 1031.10        2971.25           2445      106820.00    473197.40
 1031.13        2971.50           2449       90308.00    399043.60
 1031.16        2971.75           2452       77651.00    342456.00
 1031.19        2972.00           2456       60416.00    265751.30
 1031.22        2972.25           2459       46502.00    204118.80
 1031.25        2972.50           2463       27422.00    120022.40
 1031.28        2972.75           2466       15963.00     69746.71
 1031.31        2973.00           2470        6147.00     26816.07
 1031.34        2973.25           2473        2831.00     12341.71
 1031.37        2973.50           2477        1742.00      7591.32
 1031.40        2973.75           2481        1530.00      6666.73
 1031.44        2974.00           2484        1528.00      6658.00
 1031.47        2974.25           2488        1453.00      6330.92
 1031.50        2974.50           2491        1417.00      6173.92
 1031.53        2974.75           2495        1440.00      6274.22
 1031.56        2975.00           2498        1407.00      6130.31
 1031.60        2975.25           2502        1355.00      5903.54
 1031.63        2975.50           2505        1352.00      5890.46
 1031.66        2975.75           2509        1322.00      5759.63
 1031.69        2976.00           2512        1325.00      5772.71
 1031.72        2976.25           2516        1306.00      5689.85
 1031.75        2976.50           2520        1266.00      5515.42
 1031.78        2976.75           2523        1292.00      5628.80
 1031.81        2977.00           2527        1277.00      5563.39
 1031.84        2977.25           2530        1240.00      5402.04
 1031.87        2977.50           2534        1236.00      5384.60
 1031.90        2977.75           2537        1255.00      5467.45
 1031.93        2978.00           2541        1228.00      5349.71
 1031.96        2978.25           2544        1187.00      5170.92
 1031.99        2978.50           2548        1204.00      5245.05
 1032.02        2978.75           2552        1200.00      5227.61
 1032.05        2979.00           2555        1185.00      5162.20
 1032.08        2979.25           2559        1191.00      5188.36
 1032.11        2979.50           2562        1142.00      4974.69
 1032.15        2979.75           2566        1158.00      5044.46
 1032.18        2980.00           2569        1170.00      5096.79
 1032.21        2980.25           2573        1139.00      4961.60
 1032.24        2980.50           2577        1126.00      4904.92
 1032.27        2980.75           2580        1134.00      4939.80
 1032.30        2981.00           2584        1123.00      4891.83
 1032.33        2981.25           2587        1092.00      4756.65
 1032.36        2981.50           2591        1093.00      4761.01
 1032.39        2981.75           2594        1130.00      4922.36
 1032.42        2982.00           2598        1110.00      4835.15
 1032.45        2982.25           2601        1104.00      4808.98
 1032.48        2982.50           2605        1062.00      4625.84
 1032.51        2982.75           2609        1077.00      4691.25
 1032.54        2983.00           2612        1069.00      4656.36
 1032.57        2983.25           2616        1081.00      4708.69
 1032.60        2983.50           2619        1117.00      4865.67
 1032.63        2983.75           2623        1077.00      4691.25
 1032.67        2984.00           2626        1092.00      4756.65
HS scan finished at 17:12:53
end
