************************************************************
  HS Scan of (1) Internal mercury lamp
************************************************************
Integration time is 0.2294 seconds per sample
dh301218Reading 51.44 .94 3pr1000
************************************************************
Dead Time -------------------------  3.4E-08 
Number of Cycles Used -------------  4 
Starting Wavelength (Angstroms) ---  2950 
Final Wavelength (Angstoms) -------  2984 
Wavelength Increment (Angstroms) --  .25 
Filter Wheel #1 Position ---------- (1) Ground quartz diffuser (ND=2.32)
Filter Wheel #2 Position ---------- (1) Neutral Density 0.494



************************************************************
HS scan start time = 05:16:13
Dark Count =  1.1 


Time (GMT)  Wavelength (Ang)  Step Number  Raw Counts  Counts/Second

  317.12        2950.00           2144        1445.00      6295.59
  317.31        2950.25           2147        1488.00      6483.12
  317.34        2950.50           2151        1526.00      6648.84
  317.37        2950.75           2155        1514.00      6596.51
  317.40        2951.00           2158        1504.00      6552.90
  317.44        2951.25           2162        1523.00      6635.76
  317.47        2951.50           2165        1476.00      6430.79
  317.50        2951.75           2169        1502.00      6544.18
  317.53        2952.00           2172        1544.00      6727.35
  317.56        2952.25           2176        1503.00      6548.54
  317.59        2952.50           2179        1504.00      6552.90
  317.62        2952.75           2183        1524.00      6640.12
  317.65        2953.00           2186        1524.00      6640.12
  317.68        2953.25           2190        1555.00      6775.32
  317.71        2953.50           2193        1550.00      6753.51
  317.74        2953.75           2197        1543.00      6722.98
  317.77        2954.00           2200        1556.00      6779.68
  317.80        2954.25           2204        1518.00      6613.96
  317.83        2954.50           2208        1558.00      6788.40
  317.86        2954.75           2211        1549.00      6749.15
  317.89        2955.00           2215        1581.00      6888.71
  317.92        2955.25           2218        1550.00      6753.51
  317.95        2955.50           2222        1564.00      6814.57
  317.99        2955.75           2225        1615.00      7036.99
  318.02        2956.00           2229        1633.00      7115.50
  318.05        2956.25           2232        1607.00      7002.10
  318.08        2956.50           2236        1653.00      7202.72
  318.11        2956.75           2239        1617.00      7045.72
  318.14        2957.00           2243        1664.00      7250.70
  318.17        2957.25           2246        1636.00      7128.58
  318.20        2957.50           2250        1675.00      7298.67
  318.23        2957.75           2254        1706.00      7433.88
  318.26        2958.00           2257        1676.00      7303.03
  318.29        2958.25           2261        1688.00      7355.37
  318.32        2958.50           2264        1751.00      7630.14
  318.35        2958.75           2268        1747.00      7612.70
  318.38        2959.00           2271        1755.00      7647.59
  318.41        2959.25           2275        1769.00      7708.65
  318.44        2959.50           2278        1804.00      7861.30
  318.47        2959.75           2282        1837.00      8005.23
  318.51        2960.00           2285        1849.00      8057.57
  318.54        2960.25           2289        1923.00      8380.33
  318.57        2960.50           2293        1927.00      8397.78
  318.60        2960.75           2296        1978.00      8620.22
  318.63        2961.00           2300        2092.00      9117.47
  318.66        2961.25           2303        2572.00     11211.33
  318.69        2961.50           2307        6786.00     29606.51
  318.72        2961.75           2310       15653.00     68388.57
  318.75        2962.00           2314       33556.00    147005.40
  318.78        2962.25           2317       49990.00    219544.20
  318.81        2962.50           2321       74239.00    327238.40
  318.84        2962.75           2324       92153.00    407310.10
  318.87        2963.00           2328      114856.00    509422.70
  318.90        2963.25           2331      130787.00    581505.80
  318.93        2963.50           2335      154117.00    687715.60
  318.96        2963.75           2339      178707.00    800508.30
  319.00        2964.00           2342      198202.00    890558.00
  319.03        2964.25           2346      221718.00    999931.90
  319.06        2964.50           2349      239528.00   1083321.00
  319.09        2964.75           2353      261603.00   1187353.00
  319.12        2965.00           2356      276896.00   1259867.00
  319.15        2965.25           2360      300534.00   1372675.00
  319.18        2965.50           2363      317726.00   1455280.00
  319.21        2965.75           2367      339499.00   1560585.00
  319.24        2966.00           2370      355193.00   1636972.00
  319.27        2966.25           2374      373141.00   1724834.00
  319.30        2966.50           2378      387344.00   1794748.00
  319.33        2966.75           2381      391401.00   1814782.00
  319.36        2967.00           2385      393353.00   1824431.00
  319.39        2967.25           2388      393268.00   1824011.00
  319.42        2967.50           2392      393164.00   1823496.00
  319.45        2967.75           2395      392344.00   1819442.00
  319.48        2968.00           2399      386587.00   1791013.00
  319.51        2968.25           2402      375617.00   1736997.00
  319.55        2968.50           2406      358605.00   1653633.00
  319.58        2968.75           2409      346042.00   1592382.00
  319.61        2969.00           2413      326113.00   1495752.00
  319.64        2969.25           2417      302302.00   1381148.00
  319.67        2969.50           2420      285322.00   1299977.00
  319.70        2969.75           2424      263022.00   1194066.00
  319.73        2970.00           2427      247578.00   1121171.00
  319.76        2970.25           2431      224885.00   1014725.00
  319.79        2970.50           2434      208094.00    936465.40
  319.82        2970.75           2438      183636.00    823223.10
  319.85        2971.00           2441      163884.00    732411.40
  319.88        2971.25           2445      137852.00    613587.40
  319.91        2971.50           2449      115477.00    512225.90
  319.94        2971.75           2452       97257.00    430204.60
  319.97        2972.00           2456       75394.00    332387.80
  320.00        2972.25           2459       58870.00    258890.00
  320.03        2972.50           2463       36735.00    161009.40
  320.07        2972.75           2466       21320.00     93228.34
  320.10        2973.00           2470        6655.00     29034.32
  320.13        2973.25           2473        3007.00     13109.15
  320.16        2973.50           2477        2116.00      9222.16
  320.19        2973.75           2481        1937.00      8441.39
  320.22        2974.00           2484        1943.00      8467.56
  320.25        2974.25           2488        1904.00      8297.46
  320.28        2974.50           2491        1900.00      8280.01
  320.31        2974.75           2495        1843.00      8031.40
  320.34        2975.00           2498        1792.00      7808.96
  320.37        2975.25           2502        1825.00      7952.89
  320.40        2975.50           2505        1756.00      7651.95
  320.43        2975.75           2509        1749.00      7621.42
  320.46        2976.00           2512        1744.00      7599.61
  320.49        2976.25           2516        1702.00      7416.43
  320.52        2976.50           2520        1710.00      7451.32
  320.55        2976.75           2523        1648.00      7180.92
  320.59        2977.00           2527        1627.00      7089.33
  320.62        2977.25           2530        1642.00      7154.75
  320.65        2977.50           2534        1673.00      7289.95
  320.68        2977.75           2537        1598.00      6962.85
  320.71        2978.00           2541        1594.00      6945.41
  320.74        2978.25           2544        1565.00      6818.93
  320.77        2978.50           2548        1561.00      6801.49
  320.80        2978.75           2552        1523.00      6635.76
  320.83        2979.00           2555        1538.00      6701.18
  320.86        2979.25           2559        1550.00      6753.51
  320.89        2979.50           2562        1543.00      6722.98
  320.92        2979.75           2566        1500.00      6535.45
  320.95        2980.00           2569        1519.00      6618.32
  320.98        2980.25           2573        1512.00      6587.79
  321.01        2980.50           2577        1461.00      6365.37
  321.04        2980.75           2580        1508.00      6570.34
  321.07        2981.00           2584        1436.00      6256.34
  321.11        2981.25           2587        1440.00      6273.79
  321.14        2981.50           2591        1462.00      6369.73
  321.17        2981.75           2594        1446.00      6299.95
  321.20        2982.00           2598        1429.00      6225.82
  321.23        2982.25           2601        1440.00      6273.79
  321.26        2982.50           2605        1430.00      6230.18
  321.29        2982.75           2609        1414.00      6160.40
  321.32        2983.00           2612        1414.00      6160.40
  321.35        2983.25           2616        1400.00      6099.35
  321.38        2983.50           2619        1434.00      6247.62
  321.41        2983.75           2623        1397.00      6086.26
  321.44        2984.00           2626        1393.00      6068.82
HS scan finished at 05:21:40
end
************************************************************
  HS Scan of (1) Internal mercury lamp
************************************************************
Integration time is 0.2294 seconds per sample
dh301218Reading 51.44 .94 3.07pr1000
************************************************************
Dead Time -------------------------  3.4E-08 
Number of Cycles Used -------------  4 
Starting Wavelength (Angstroms) ---  2950 
Final Wavelength (Angstoms) -------  2984 
Wavelength Increment (Angstroms) --  .25 
Filter Wheel #1 Position ---------- (1) Ground quartz diffuser (ND=2.32)
Filter Wheel #2 Position ---------- (1) Neutral Density 0.494



************************************************************
HS scan start time = 17:07:27
Dark Count =  1 


Time (GMT)  Wavelength (Ang)  Step Number  Raw Counts  Counts/Second

 1028.34        2950.00           2144        1422.00      6195.73
 1028.54        2950.25           2147        1432.00      6239.34
 1028.57        2950.50           2151        1412.00      6152.12
 1028.60        2950.75           2155        1428.00      6221.89
 1028.63        2951.00           2158        1458.00      6352.72
 1028.66        2951.25           2162        1453.00      6330.92
 1028.69        2951.50           2165        1452.00      6326.56
 1028.72        2951.75           2169        1443.00      6287.31
 1028.75        2952.00           2172        1487.00      6479.20
 1028.78        2952.25           2176        1457.00      6348.36
 1028.81        2952.50           2179        1448.00      6309.11
 1028.84        2952.75           2183        1488.00      6483.56
 1028.87        2953.00           2186        1478.00      6439.95
 1028.91        2953.25           2190        1453.00      6330.92
 1028.94        2953.50           2193        1515.00      6601.31
 1028.97        2953.75           2197        1521.00      6627.47
 1029.00        2954.00           2200        1481.00      6453.03
 1029.03        2954.25           2204        1494.00      6509.72
 1029.06        2954.50           2208        1495.00      6514.08
 1029.09        2954.75           2211        1549.00      6749.59
 1029.12        2955.00           2215        1539.00      6705.98
 1029.15        2955.25           2218        1507.00      6566.42
 1029.18        2955.50           2222        1507.00      6566.42
 1029.21        2955.75           2225        1523.00      6636.20
 1029.24        2956.00           2229        1573.00      6854.26
 1029.27        2956.25           2232        1554.00      6771.39
 1029.30        2956.50           2236        1574.00      6858.62
 1029.33        2956.75           2239        1596.00      6954.57
 1029.36        2957.00           2243        1587.00      6915.31
 1029.39        2957.25           2246        1608.00      7006.90
 1029.42        2957.50           2250        1633.00      7115.93
 1029.46        2957.75           2254        1655.00      7211.88
 1029.49        2958.00           2257        1658.00      7224.97
 1029.52        2958.25           2261        1665.00      7255.50
 1029.55        2958.50           2264        1674.00      7294.75
 1029.58        2958.75           2268        1678.00      7312.19
 1029.61        2959.00           2271        1711.00      7456.12
 1029.64        2959.25           2275        1747.00      7613.13
 1029.67        2959.50           2278        1751.00      7630.58
 1029.70        2959.75           2282        1791.00      7805.04
 1029.73        2960.00           2285        1797.00      7831.20
 1029.76        2960.25           2289        1787.00      7787.59
 1029.79        2960.50           2293        1861.00      8110.34
 1029.82        2960.75           2296        1877.00      8180.13
 1029.85        2961.00           2300        1976.00      8611.94
 1029.88        2961.25           2303        2277.00      9924.88
 1029.91        2961.50           2307        5652.00     24654.49
 1029.94        2961.75           2310       13769.00     60140.28
 1029.98        2962.00           2314       30097.00    131783.60
 1030.01        2962.25           2317       44363.00    194666.90
 1030.04        2962.50           2321       65483.00    288260.40
 1030.07        2962.75           2324       82612.00    364609.80
 1030.10        2963.00           2328      105761.00    468430.20
 1030.13        2963.25           2331      123828.00    549975.00
 1030.16        2963.50           2335      146303.00    652056.40
 1030.19        2963.75           2339      167226.00    747737.00
 1030.22        2964.00           2342      184842.00    828786.60
 1030.25        2964.25           2346      208109.00    936535.60
 1030.28        2964.50           2349      225263.00   1016492.00
 1030.31        2964.75           2353      247517.00   1120885.00
 1030.34        2965.00           2356      262654.00   1192326.00
 1030.37        2965.25           2360      282863.00   1288261.00
 1030.40        2965.50           2363      299562.00   1368019.00
 1030.43        2965.75           2367      320349.00   1467926.00
 1030.47        2966.00           2370      335988.00   1543552.00
 1030.50        2966.25           2374      355087.00   1636455.00
 1030.53        2966.50           2378      370164.00   1710223.00
 1030.56        2966.75           2381      375387.00   1735867.00
 1030.59        2967.00           2385      377362.00   1745576.00
 1030.62        2967.25           2388      377805.00   1747755.00
 1030.66        2967.50           2392      378117.00   1749290.00
 1030.69        2967.75           2395      377371.00   1745620.00
 1030.72        2968.00           2399      374623.00   1732113.00
 1030.75        2968.25           2402      365227.00   1686026.00
 1030.78        2968.50           2406      347694.00   1600422.00
 1030.81        2968.75           2409      334244.00   1535098.00
 1030.84        2969.00           2413      316207.00   1447963.00
 1030.87        2969.25           2417      296916.00   1355351.00
 1030.90        2969.50           2420      281013.00   1279452.00
 1030.93        2969.75           2424      256795.00   1164631.00
 1030.96        2970.00           2427      239972.00   1085407.00
 1030.99        2970.25           2431      218586.00    985317.40
 1031.02        2970.50           2434      201757.00    907040.00
 1031.05        2970.75           2438      179515.00    804229.80
 1031.08        2971.00           2441      162356.00    725410.30
 1031.11        2971.25           2445      139154.00    619507.90
 1031.14        2971.50           2449      113356.00    502654.40
 1031.17        2971.75           2452       94425.00    417497.40
 1031.21        2972.00           2456       71541.00    315217.30
 1031.24        2972.25           2459       55040.00    241907.40
 1031.27        2972.50           2463       34049.00    149176.70
 1031.30        2972.75           2466       20828.00     91070.57
 1031.33        2973.00           2470        7518.00     32804.66
 1031.36        2973.25           2473        3512.00     15313.12
 1031.39        2973.50           2477        2156.00      9397.07
 1031.42        2973.75           2481        1958.00      8533.43
 1031.45        2974.00           2484        1922.00      8376.40
 1031.48        2974.25           2488        1857.00      8092.90
 1031.51        2974.50           2491        1846.00      8044.92
 1031.54        2974.75           2495        1773.00      7726.53
 1031.57        2975.00           2498        1755.00      7648.02
 1031.60        2975.25           2502        1731.00      7543.35
 1031.63        2975.50           2505        1739.00      7578.24
 1031.66        2975.75           2509        1675.00      7299.11
 1031.69        2976.00           2512        1701.00      7412.50
 1031.73        2976.25           2516        1679.00      7316.55
 1031.76        2976.50           2520        1623.00      7072.32
 1031.79        2976.75           2523        1633.00      7115.93
 1031.82        2977.00           2527        1592.00      6937.12
 1031.85        2977.25           2530        1599.00      6967.65
 1031.88        2977.50           2534        1594.00      6945.84
 1031.91        2977.75           2537        1543.00      6723.42
 1031.94        2978.00           2541        1547.00      6740.87
 1031.97        2978.25           2544        1519.00      6618.75
 1032.00        2978.50           2548        1523.00      6636.20
 1032.03        2978.75           2552        1505.00      6557.70
 1032.06        2979.00           2555        1486.00      6474.83
 1032.09        2979.25           2559        1469.00      6400.70
 1032.12        2979.50           2562        1488.00      6483.56
 1032.15        2979.75           2566        1437.00      6261.14
 1032.18        2980.00           2569        1438.00      6265.50
 1032.21        2980.25           2573        1441.00      6278.59
 1032.25        2980.50           2577        1424.00      6204.45
 1032.28        2980.75           2580        1434.00      6248.06
 1032.31        2981.00           2584        1432.00      6239.34
 1032.34        2981.25           2587        1412.00      6152.12
 1032.37        2981.50           2591        1381.00      6016.92
 1032.40        2981.75           2594        1420.00      6187.00
 1032.43        2982.00           2598        1396.00      6082.34
 1032.46        2982.25           2601        1391.00      6060.53
 1032.49        2982.50           2605        1411.00      6147.75
 1032.52        2982.75           2609        1408.00      6134.67
 1032.55        2983.00           2612        1388.00      6047.45
 1032.58        2983.25           2616        1358.00      5916.62
 1032.61        2983.50           2619        1390.00      6056.17
 1032.64        2983.75           2623        1346.00      5864.29
 1032.67        2984.00           2626        1355.00      5903.54
HS scan finished at 17:12:54
end
