************************************************************
  HS Scan of (1) Internal mercury lamp
************************************************************
Integration time is 0.2294 seconds per sample
dh291218Reading 51.44 .94 2.96pr1000
************************************************************
Dead Time -------------------------  3.4E-08 
Number of Cycles Used -------------  4 
Starting Wavelength (Angstroms) ---  2950 
Final Wavelength (Angstoms) -------  2984 
Wavelength Increment (Angstroms) --  .25 
Filter Wheel #1 Position ---------- (1) Ground quartz diffuser (ND=2.32)
Filter Wheel #2 Position ---------- (1) Neutral Density 0.494



************************************************************
HS scan start time = 05:16:04
Dark Count =  .8 


Time (GMT)  Wavelength (Ang)  Step Number  Raw Counts  Counts/Second

  316.96        2950.00           2144        1459.00      6357.96
  317.15        2950.25           2147        1508.00      6571.65
  317.19        2950.50           2151        1462.00      6371.04
  317.22        2950.75           2155        1522.00      6632.71
  317.25        2951.00           2158        1501.00      6541.12
  317.28        2951.25           2162        1534.00      6685.04
  317.31        2951.50           2165        1497.00      6523.68
  317.34        2951.75           2169        1513.00      6593.46
  317.37        2952.00           2172        1492.00      6501.87
  317.40        2952.25           2176        1504.00      6554.21
  317.43        2952.50           2179        1503.00      6549.85
  317.46        2952.75           2183        1516.00      6606.54
  317.49        2953.00           2186        1522.00      6632.71
  317.52        2953.25           2190        1533.00      6680.68
  317.55        2953.50           2193        1526.00      6650.15
  317.58        2953.75           2197        1575.00      6863.85
  317.61        2954.00           2200        1585.00      6907.46
  317.64        2954.25           2204        1560.00      6798.43
  317.67        2954.50           2208        1596.00      6955.44
  317.70        2954.75           2211        1548.00      6746.10
  317.74        2955.00           2215        1558.00      6789.71
  317.77        2955.25           2218        1561.00      6802.79
  317.80        2955.50           2222        1601.00      6977.24
  317.83        2955.75           2225        1560.00      6798.43
  317.87        2956.00           2229        1616.00      7042.66
  317.91        2956.25           2232        1612.00      7025.22
  317.94        2956.50           2236        1622.00      7068.83
  317.97        2956.75           2239        1643.00      7160.42
  318.00        2957.00           2243        1648.00      7182.22
  318.03        2957.25           2246        1670.00      7278.17
  318.06        2957.50           2250        1681.00      7326.15
  318.09        2957.75           2254        1736.00      7566.03
  318.12        2958.00           2257        1766.00      7696.87
  318.15        2958.25           2261        1715.00      7474.44
  318.18        2958.50           2264        1748.00      7618.36
  318.21        2958.75           2268        1728.00      7531.13
  318.24        2959.00           2271        1779.00      7753.57
  318.27        2959.25           2275        1826.00      7958.56
  318.30        2959.50           2278        1839.00      8015.26
  318.33        2959.75           2282        1851.00      8067.60
  318.36        2960.00           2285        1849.00      8058.88
  318.40        2960.25           2289        1884.00      8211.53
  318.43        2960.50           2293        1945.00      8477.60
  318.46        2960.75           2296        1964.00      8560.47
  318.49        2961.00           2300        2062.00      8987.93
  318.52        2961.25           2303        2407.00     10492.85
  318.55        2961.50           2307        5796.00     25284.15
  318.58        2961.75           2310       15209.00     66445.50
  318.61        2962.00           2314       35093.00    153775.80
  318.64        2962.25           2317       51166.00    224750.10
  318.67        2962.50           2321       73267.00    322907.70
  318.70        2962.75           2324       89094.00    393607.30
  318.73        2963.00           2328      110936.00    491741.70
  318.76        2963.25           2331      128375.00    570570.60
  318.79        2963.50           2335      154118.00    687721.60
  318.82        2963.75           2339      176863.00    792020.80
  318.85        2964.00           2342      194490.00    873370.00
  318.88        2964.25           2346      216253.00    974441.40
  318.92        2964.50           2349      232157.00   1048752.00
  318.95        2964.75           2353      255992.00   1160841.00
  318.98        2965.00           2356      275326.00   1252407.00
  319.01        2965.25           2360      297787.00   1359521.00
  319.04        2965.50           2363      314681.00   1440616.00
  319.07        2965.75           2367      334959.00   1538564.00
  319.10        2966.00           2370      350214.00   1612695.00
  319.13        2966.25           2374      368709.00   1703088.00
  319.16        2966.50           2378      380440.00   1760722.00
  319.19        2966.75           2381      383718.00   1776868.00
  319.22        2967.00           2385      386616.00   1791157.00
  319.25        2967.25           2388      386192.00   1789066.00
  319.28        2967.50           2392      385993.00   1788084.00
  319.31        2967.75           2395      385475.00   1785530.00
  319.34        2968.00           2399      379691.00   1757035.00
  319.37        2968.25           2402      370590.00   1712314.00
  319.40        2968.50           2406      354833.00   1635216.00
  319.44        2968.75           2409      338842.00   1557397.00
  319.47        2969.00           2413      316848.00   1451051.00
  319.50        2969.25           2417      295532.00   1348731.00
  319.53        2969.50           2420      280549.00   1277244.00
  319.56        2969.75           2424      260136.00   1180418.00
  319.59        2970.00           2427      245073.00   1109384.00
  319.62        2970.25           2431      220582.00    994630.60
  319.65        2970.50           2434      201840.00    907425.90
  319.68        2970.75           2438      177483.00    794874.50
  319.71        2971.00           2441      160322.00    716096.30
  319.74        2971.25           2445      137118.00    610252.50
  319.77        2971.50           2449      115122.00    510624.70
  319.80        2971.75           2452       97785.00    432576.30
  319.83        2972.00           2456       77049.00    339770.90
  319.86        2972.25           2459       60360.00    265503.60
  319.89        2972.50           2463       38195.00    167446.70
  319.92        2972.75           2466       21691.00     94857.31
  319.96        2973.00           2470        7163.00     31254.65
  319.99        2973.25           2473        3321.00     14480.54
  320.02        2973.50           2477        2180.00      9502.64
  320.05        2973.75           2481        2001.00      8721.85
  320.08        2974.00           2484        1965.00      8564.83
  320.11        2974.25           2488        1872.00      8159.19
  320.14        2974.50           2491        1835.00      7997.82
  320.17        2974.75           2495        1834.00      7993.45
  320.20        2975.00           2498        1786.00      7784.10
  320.23        2975.25           2502        1813.00      7901.86
  320.26        2975.50           2505        1775.00      7736.12
  320.29        2975.75           2509        1774.00      7731.76
  320.32        2976.00           2512        1726.00      7522.41
  320.35        2976.25           2516        1701.00      7413.38
  320.38        2976.50           2520        1703.00      7422.10
  320.41        2976.75           2523        1714.00      7470.07
  320.44        2977.00           2527        1639.00      7142.97
  320.48        2977.25           2530        1638.00      7138.61
  320.51        2977.50           2534        1627.00      7090.64
  320.54        2977.75           2537        1614.00      7033.94
  320.57        2978.00           2541        1614.00      7033.94
  320.60        2978.25           2544        1581.00      6890.02
  320.63        2978.50           2548        1566.00      6824.60
  320.66        2978.75           2552        1559.00      6794.07
  320.69        2979.00           2555        1507.00      6567.29
  320.72        2979.25           2559        1554.00      6772.27
  320.75        2979.50           2562        1520.00      6623.99
  320.78        2979.75           2566        1539.00      6706.85
  320.81        2980.00           2569        1545.00      6733.01
  320.84        2980.25           2573        1468.00      6397.21
  320.87        2980.50           2577        1483.00      6462.62
  320.90        2980.75           2580        1457.00      6349.23
  320.93        2981.00           2584        1504.00      6554.21
  320.96        2981.25           2587        1482.00      6458.26
  321.00        2981.50           2591        1436.00      6257.65
  321.03        2981.75           2594        1423.00      6200.96
  321.06        2982.00           2598        1454.00      6336.15
  321.09        2982.25           2601        1450.00      6318.71
  321.12        2982.50           2605        1442.00      6283.82
  321.15        2982.75           2609        1443.00      6288.18
  321.18        2983.00           2612        1405.00      6122.46
  321.21        2983.25           2616        1421.00      6192.24
  321.24        2983.50           2619        1442.00      6283.82
  321.27        2983.75           2623        1400.00      6100.66
  321.30        2984.00           2626        1443.00      6288.18
HS scan finished at 05:21:31
end
************************************************************
  HS Scan of (1) Internal mercury lamp
************************************************************
Integration time is 0.2294 seconds per sample
dh291218Reading 51.44 .94 3.03pr1000
************************************************************
Dead Time -------------------------  3.4E-08 
Number of Cycles Used -------------  4 
Starting Wavelength (Angstroms) ---  2950 
Final Wavelength (Angstoms) -------  2984 
Wavelength Increment (Angstroms) --  .25 
Filter Wheel #1 Position ---------- (1) Ground quartz diffuser (ND=2.32)
Filter Wheel #2 Position ---------- (1) Neutral Density 0.494



************************************************************
HS scan start time = 17:07:28
Dark Count =  1 


Time (GMT)  Wavelength (Ang)  Step Number  Raw Counts  Counts/Second

 1028.37        2950.00           2144        1439.00      6269.86
 1028.56        2950.25           2147        1435.00      6252.42
 1028.59        2950.50           2151        1459.00      6357.08
 1028.62        2950.75           2155        1439.00      6269.86
 1028.66        2951.00           2158        1411.00      6147.75
 1028.69        2951.25           2162        1439.00      6269.86
 1028.72        2951.50           2165        1445.00      6296.03
 1028.75        2951.75           2169        1434.00      6248.06
 1028.78        2952.00           2172        1411.00      6147.75
 1028.81        2952.25           2176        1456.00      6344.00
 1028.84        2952.50           2179        1473.00      6418.14
 1028.87        2952.75           2183        1504.00      6553.33
 1028.90        2953.00           2186        1440.00      6274.22
 1028.93        2953.25           2190        1490.00      6492.28
 1028.96        2953.50           2193        1478.00      6439.95
 1028.99        2953.75           2197        1478.00      6439.95
 1029.02        2954.00           2200        1470.00      6405.06
 1029.05        2954.25           2204        1570.00      6841.17
 1029.08        2954.50           2208        1528.00      6658.00
 1029.11        2954.75           2211        1538.00      6701.61
 1029.14        2955.00           2215        1504.00      6553.33
 1029.18        2955.25           2218        1518.00      6614.39
 1029.21        2955.50           2222        1523.00      6636.20
 1029.24        2955.75           2225        1506.00      6562.06
 1029.27        2956.00           2229        1502.00      6544.61
 1029.30        2956.25           2232        1553.00      6767.03
 1029.33        2956.50           2236        1504.00      6553.33
 1029.36        2956.75           2239        1556.00      6780.12
 1029.39        2957.00           2243        1567.00      6828.09
 1029.42        2957.25           2246        1569.00      6836.81
 1029.45        2957.50           2250        1633.00      7115.93
 1029.48        2957.75           2254        1644.00      7163.91
 1029.51        2958.00           2257        1649.00      7185.71
 1029.54        2958.25           2261        1657.00      7220.60
 1029.57        2958.50           2264        1711.00      7456.12
 1029.60        2958.75           2268        1682.00      7329.64
 1029.63        2959.00           2271        1696.00      7390.70
 1029.66        2959.25           2275        1732.00      7547.71
 1029.70        2959.50           2278        1721.00      7499.73
 1029.73        2959.75           2282        1745.00      7604.41
 1029.76        2960.00           2285        1781.00      7761.42
 1029.79        2960.25           2289        1784.00      7774.51
 1029.82        2960.50           2293        1850.00      8062.37
 1029.85        2960.75           2296        1855.00      8084.18
 1029.88        2961.00           2300        1958.00      8533.43
 1029.91        2961.25           2303        2232.00      9728.59
 1029.94        2961.50           2307        4898.00     21362.50
 1029.97        2961.75           2310       11788.00     51471.87
 1030.00        2962.00           2314       27501.00    120369.60
 1030.03        2962.25           2317       43331.00    190108.90
 1030.06        2962.50           2321       66307.00    291924.10
 1030.09        2962.75           2324       83360.00    367953.00
 1030.12        2963.00           2328      103622.00    458806.10
 1030.15        2963.25           2331      119057.00    528396.80
 1030.19        2963.50           2335      140940.00    627632.50
 1030.22        2963.75           2339      165530.00    739957.70
 1030.25        2964.00           2342      183687.00    823458.80
 1030.28        2964.25           2346      206379.00    928496.20
 1030.31        2964.50           2349      223064.00   1006218.00
 1030.34        2964.75           2353      246194.00   1114657.00
 1030.37        2965.00           2356      261153.00   1185226.00
 1030.40        2965.25           2360      280761.00   1278252.00
 1030.43        2965.50           2363      296139.00   1351634.00
 1030.46        2965.75           2367      317388.00   1453652.00
 1030.49        2966.00           2370      332864.00   1528413.00
 1030.52        2966.25           2374      351739.00   1620126.00
 1030.55        2966.50           2378      365444.00   1687088.00
 1030.58        2966.75           2381      368885.00   1703951.00
 1030.61        2967.00           2385      371859.00   1718540.00
 1030.64        2967.25           2388      373078.00   1724525.00
 1030.67        2967.50           2392      372930.00   1723798.00
 1030.71        2967.75           2395      372912.00   1723710.00
 1030.74        2968.00           2399      368492.00   1702024.00
 1030.77        2968.25           2402      360819.00   1664455.00
 1030.80        2968.50           2406      343906.00   1581994.00
 1030.83        2968.75           2409      330021.00   1514650.00
 1030.86        2969.00           2413      310814.00   1422012.00
 1030.89        2969.25           2417      289961.00   1322108.00
 1030.92        2969.50           2420      274348.00   1247761.00
 1030.95        2969.75           2424      253636.00   1149721.00
 1030.98        2970.00           2427      237251.00   1072634.00
 1031.01        2970.25           2431      215021.00    968700.00
 1031.04        2970.50           2434      200567.00    901520.80
 1031.07        2970.75           2438      179244.00    802981.60
 1031.10        2971.00           2441      159379.00    711778.90
 1031.13        2971.25           2445      135890.00    604671.50
 1031.16        2971.50           2449      113260.00    502221.30
 1031.19        2971.75           2452       97303.00    430411.50
 1031.22        2972.00           2456       77252.00    340675.70
 1031.26        2972.25           2459       61073.00    268668.00
 1031.29        2972.50           2463       39512.00    173253.90
 1031.32        2972.75           2466       24449.00    106962.00
 1031.35        2973.00           2470        8580.00     37445.20
 1031.38        2973.25           2473        3663.00     15972.06
 1031.41        2973.50           2477        2095.00      9131.00
 1031.44        2973.75           2481        1957.00      8529.06
 1031.47        2974.00           2484        1864.00      8123.43
 1031.50        2974.25           2488        1835.00      7996.94
 1031.53        2974.50           2491        1784.00      7774.51
 1031.56        2974.75           2495        1820.00      7931.52
 1031.59        2975.00           2498        1779.00      7752.70
 1031.62        2975.25           2502        1697.00      7395.06
 1031.65        2975.50           2505        1741.00      7586.96
 1031.68        2975.75           2509        1679.00      7316.55
 1031.71        2976.00           2512        1674.00      7294.75
 1031.74        2976.25           2516        1687.00      7351.45
 1031.78        2976.50           2520        1633.00      7115.93
 1031.81        2976.75           2523        1597.00      6958.93
 1031.84        2977.00           2527        1599.00      6967.65
 1031.87        2977.25           2530        1570.00      6841.17
 1031.90        2977.50           2534        1571.00      6845.53
 1031.93        2977.75           2537        1588.00      6919.68
 1031.96        2978.00           2541        1526.00      6649.28
 1031.99        2978.25           2544        1498.00      6527.17
 1032.02        2978.50           2548        1547.00      6740.87
 1032.05        2978.75           2552        1462.00      6370.17
 1032.08        2979.00           2555        1464.00      6378.89
 1032.11        2979.25           2559        1462.00      6370.17
 1032.14        2979.50           2562        1481.00      6453.03
 1032.17        2979.75           2566        1453.00      6330.92
 1032.20        2980.00           2569        1432.00      6239.34
 1032.23        2980.25           2573        1449.00      6313.47
 1032.27        2980.50           2577        1436.00      6256.78
 1032.30        2980.75           2580        1400.00      6099.78
 1032.33        2981.00           2584        1390.00      6056.17
 1032.36        2981.25           2587        1394.00      6073.62
 1032.39        2981.50           2591        1439.00      6269.86
 1032.42        2981.75           2594        1391.00      6060.53
 1032.45        2982.00           2598        1405.00      6121.59
 1032.48        2982.25           2601        1379.00      6008.20
 1032.51        2982.50           2605        1378.00      6003.84
 1032.54        2982.75           2609        1414.00      6160.84
 1032.57        2983.00           2612        1366.00      5951.51
 1032.60        2983.25           2616        1359.00      5920.98
 1032.63        2983.50           2619        1363.00      5938.43
 1032.66        2983.75           2623        1359.00      5920.98
 1032.69        2984.00           2626        1346.00      5864.29
HS scan finished at 17:12:55
end
