************************************************************
  HS Scan of (1) Internal mercury lamp
************************************************************
Integration time is 0.2294 seconds per sample
dh261218Reading 51.44 .94 2.96pr1000
************************************************************
Dead Time -------------------------  3.4E-08 
Number of Cycles Used -------------  4 
Starting Wavelength (Angstroms) ---  2950 
Final Wavelength (Angstoms) -------  2984 
Wavelength Increment (Angstroms) --  .25 
Filter Wheel #1 Position ---------- (1) Ground quartz diffuser (ND=2.32)
Filter Wheel #2 Position ---------- (1) Neutral Density 0.494



************************************************************
HS scan start time = 05:15:12
Dark Count =  .9 


Time (GMT)  Wavelength (Ang)  Step Number  Raw Counts  Counts/Second

  316.11        2950.00           2144        1460.00      6361.88
  316.30        2950.25           2147        1508.00      6571.22
  316.33        2950.50           2151        1483.00      6462.19
  316.36        2950.75           2155        1533.00      6680.24
  316.39        2951.00           2158        1506.00      6562.49
  316.42        2951.25           2162        1527.00      6654.08
  316.45        2951.50           2165        1567.00      6828.53
  316.48        2951.75           2169        1522.00      6632.27
  316.51        2952.00           2172        1540.00      6710.77
  316.54        2952.25           2176        1540.00      6710.77
  316.57        2952.50           2179        1537.00      6697.69
  316.61        2952.75           2183        1585.00      6907.03
  316.64        2953.00           2186        1567.00      6828.53
  316.67        2953.25           2190        1559.00      6793.64
  316.70        2953.50           2193        1530.00      6667.16
  316.73        2953.75           2197        1569.00      6837.25
  316.76        2954.00           2200        1562.00      6806.72
  316.79        2954.25           2204        1576.00      6867.78
  316.82        2954.50           2208        1588.00      6920.11
  316.85        2954.75           2211        1654.00      7207.96
  316.88        2955.00           2215        1599.00      6968.09
  316.91        2955.25           2218        1635.00      7125.09
  316.94        2955.50           2222        1666.00      7260.29
  316.97        2955.75           2225        1673.00      7290.82
  317.00        2956.00           2229        1635.00      7125.09
  317.03        2956.25           2232        1688.00      7356.24
  317.06        2956.50           2236        1709.00      7447.83
  317.09        2956.75           2239        1682.00      7330.07
  317.13        2957.00           2243        1722.00      7504.53
  317.16        2957.25           2246        1712.00      7460.92
  317.19        2957.50           2250        1756.00      7652.82
  317.22        2957.75           2254        1746.00      7609.21
  317.25        2958.00           2257        1763.00      7683.35
  317.28        2958.25           2261        1771.00      7718.24
  317.31        2958.50           2264        1784.00      7774.94
  317.34        2958.75           2268        1823.00      7945.04
  317.37        2959.00           2271        1883.00      8206.74
  317.40        2959.25           2275        1869.00      8145.67
  317.43        2959.50           2278        1888.00      8228.54
  317.46        2959.75           2282        1940.00      8455.35
  317.49        2960.00           2285        1928.00      8403.01
  317.52        2960.25           2289        1998.00      8708.33
  317.55        2960.50           2293        2035.00      8869.72
  317.58        2960.75           2296        2089.00      9105.26
  317.61        2961.00           2300        2170.00      9458.58
  317.65        2961.25           2303        2522.00     10994.08
  317.68        2961.50           2307        6216.00     27117.85
  317.71        2961.75           2310       16125.00     70456.72
  317.74        2962.00           2314       36021.00    157863.80
  317.77        2962.25           2317       54475.00    239404.20
  317.80        2962.50           2321       82368.00    363519.90
  317.83        2962.75           2324      101902.00    451072.20
  317.86        2963.00           2328      127934.00    568571.50
  317.89        2963.25           2331      146940.00    654960.50
  317.92        2963.50           2335      174468.00    781002.50
  317.95        2963.75           2339      202365.00    909861.10
  317.98        2964.00           2342      224998.00   1015254.00
  318.01        2964.25           2346      252189.00   1142897.00
  318.04        2964.50           2349      271831.00   1235811.00
  318.07        2964.75           2353      296555.00   1353624.00
  318.10        2965.00           2356      317216.00   1452823.00
  318.13        2965.25           2360      340725.00   1566538.00
  318.17        2965.50           2363      358991.00   1655520.00
  318.20        2965.75           2367      383380.00   1775202.00
  318.23        2966.00           2370      401826.00   1866392.00
  318.26        2966.25           2374      426051.00   1987046.00
  318.29        2966.50           2378      442514.00   2069631.00
  318.32        2966.75           2381      447451.00   2094491.00
  318.35        2967.00           2385      449061.00   2102608.00
  318.38        2967.25           2388      449483.00   2104736.00
  318.41        2967.50           2392      448216.00   2098347.00
  318.44        2967.75           2395      448116.00   2097843.00
  318.47        2968.00           2399      441191.00   2062977.00
  318.50        2968.25           2402      428053.00   1997064.00
  318.53        2968.50           2406      407925.00   1896672.00
  318.56        2968.75           2409      391411.00   1814832.00
  318.59        2969.00           2413      366527.00   1692394.00
  318.62        2969.25           2417      340376.00   1564843.00
  318.65        2969.50           2420      320339.00   1467878.00
  318.69        2969.75           2424      294659.00   1344555.00
  318.72        2970.00           2427      276434.00   1257672.00
  318.75        2970.25           2431      248574.00   1125862.00
  318.78        2970.50           2434      229058.00   1034242.00
  318.81        2970.75           2438      204792.00    921125.90
  318.84        2971.00           2441      184987.00    829456.20
  318.87        2971.25           2445      159299.00    711413.20
  318.90        2971.50           2449      132171.00    587785.80
  318.93        2971.75           2452      110019.00    487608.00
  318.96        2972.00           2456       82433.00    363810.30
  318.99        2972.25           2459       62971.00    277097.50
  319.02        2972.50           2463       39692.00    174048.30
  319.05        2972.75           2466       23109.00    101079.60
  319.08        2973.00           2470        7466.00     32577.92
  319.11        2973.25           2473        3633.00     15841.57
  319.14        2973.50           2477        2348.00     10235.04
  319.17        2973.75           2481        2177.00      9489.11
  319.20        2974.00           2484        2112.00      9205.58
  319.24        2974.25           2488        2026.00      8830.46
  319.27        2974.50           2491        2068.00      9013.66
  319.30        2974.75           2495        2009.00      8756.31
  319.33        2975.00           2498        2015.00      8782.48
  319.36        2975.25           2502        1891.00      8241.63
  319.39        2975.50           2505        1923.00      8381.20
  319.42        2975.75           2509        1886.00      8219.82
  319.45        2976.00           2512        1863.00      8119.50
  319.48        2976.25           2516        1838.00      8010.46
  319.51        2976.50           2520        1846.00      8045.36
  319.54        2976.75           2523        1844.00      8036.63
  319.57        2977.00           2527        1729.00      7535.06
  319.60        2977.25           2530        1702.00      7417.30
  319.63        2977.50           2534        1718.00      7487.08
  319.66        2977.75           2537        1695.00      7386.77
  319.69        2978.00           2541        1735.00      7561.23
  319.72        2978.25           2544        1640.00      7146.90
  319.76        2978.50           2548        1651.00      7194.87
  319.79        2978.75           2552        1660.00      7234.12
  319.82        2979.00           2555        1632.00      7112.01
  319.85        2979.25           2559        1600.00      6972.45
  319.88        2979.50           2562        1608.00      7007.34
  319.92        2979.75           2566        1622.00      7068.39
  319.95        2980.00           2569        1635.00      7125.09
  319.98        2980.25           2573        1592.00      6937.56
  320.01        2980.50           2577        1611.00      7020.42
  320.04        2980.75           2580        1511.00      6584.30
  320.07        2981.00           2584        1552.00      6763.11
  320.10        2981.25           2587        1581.00      6889.58
  320.13        2981.50           2591        1531.00      6671.52
  320.16        2981.75           2594        1545.00      6732.58
  320.19        2982.00           2598        1508.00      6571.22
  320.22        2982.25           2601        1569.00      6837.25
  320.25        2982.50           2605        1508.00      6571.22
  320.28        2982.75           2609        1494.00      6510.16
  320.31        2983.00           2612        1487.00      6479.63
  320.34        2983.25           2616        1515.00      6601.74
  320.37        2983.50           2619        1506.00      6562.49
  320.40        2983.75           2623        1482.00      6457.83
  320.44        2984.00           2626        1457.00      6348.80
HS scan finished at 05:20:39
end
************************************************************
  HS Scan of (1) Internal mercury lamp
************************************************************
Integration time is 0.2294 seconds per sample
dh261218Reading 51.44 .94 3.09pr1000
************************************************************
Dead Time -------------------------  3.4E-08 
Number of Cycles Used -------------  4 
Starting Wavelength (Angstroms) ---  2950 
Final Wavelength (Angstoms) -------  2984 
Wavelength Increment (Angstroms) --  .25 
Filter Wheel #1 Position ---------- (1) Ground quartz diffuser (ND=2.32)
Filter Wheel #2 Position ---------- (1) Neutral Density 0.494



************************************************************
HS scan start time = 17:08:45
Dark Count =  1.1 


Time (GMT)  Wavelength (Ang)  Step Number  Raw Counts  Counts/Second

 1029.64        2950.00           2144        1489.00      6487.48
 1029.84        2950.25           2147        1485.00      6470.04
 1029.87        2950.50           2151        1539.00      6705.54
 1029.90        2950.75           2155        1448.00      6308.68
 1029.93        2951.00           2158        1491.00      6496.20
 1029.96        2951.25           2162        1532.00      6675.01
 1029.99        2951.50           2165        1488.00      6483.12
 1030.02        2951.75           2169        1480.00      6448.23
 1030.05        2952.00           2172        1481.00      6452.59
 1030.08        2952.25           2176        1532.00      6675.01
 1030.11        2952.50           2179        1494.00      6509.29
 1030.14        2952.75           2183        1523.00      6635.76
 1030.17        2953.00           2186        1530.00      6666.29
 1030.20        2953.25           2190        1546.00      6736.07
 1030.23        2953.50           2193        1575.00      6862.54
 1030.26        2953.75           2197        1566.00      6823.29
 1030.29        2954.00           2200        1554.00      6770.96
 1030.33        2954.25           2204        1590.00      6927.96
 1030.36        2954.50           2208        1560.00      6797.12
 1030.39        2954.75           2211        1597.00      6958.49
 1030.42        2955.00           2215        1561.00      6801.49
 1030.45        2955.25           2218        1616.00      7041.36
 1030.48        2955.50           2222        1599.00      6967.21
 1030.51        2955.75           2225        1602.00      6980.30
 1030.54        2956.00           2229        1561.00      6801.49
 1030.57        2956.25           2232        1588.00      6919.24
 1030.60        2956.50           2236        1571.00      6845.10
 1030.63        2956.75           2239        1652.00      7198.36
 1030.66        2957.00           2243        1677.00      7307.40
 1030.69        2957.25           2246        1645.00      7167.83
 1030.72        2957.50           2250        1667.00      7263.78
 1030.75        2957.75           2254        1660.00      7233.25
 1030.78        2958.00           2257        1693.00      7377.18
 1030.81        2958.25           2261        1708.00      7442.60
 1030.85        2958.50           2264        1743.00      7595.25
 1030.88        2958.75           2268        1732.00      7547.27
 1030.91        2959.00           2271        1748.00      7617.06
 1030.94        2959.25           2275        1763.00      7682.48
 1030.97        2959.50           2278        1774.00      7730.45
 1031.00        2959.75           2282        1807.00      7874.38
 1031.03        2960.00           2285        1833.00      7987.78
 1031.06        2960.25           2289        1851.00      8066.29
 1031.09        2960.50           2293        1940.00      8454.48
 1031.12        2960.75           2296        1904.00      8297.46
 1031.15        2961.00           2300        2023.00      8816.51
 1031.18        2961.25           2303        2220.00      9675.81
 1031.21        2961.50           2307        5071.00     22117.33
 1031.24        2961.75           2310       12905.00     56358.55
 1031.27        2962.00           2314       28674.00    125525.40
 1031.30        2962.25           2317       43540.00    191031.40
 1031.33        2962.50           2321       66461.00    292608.50
 1031.37        2962.75           2324       84451.00    372830.10
 1031.40        2963.00           2328      106726.00    472773.80
 1031.43        2963.25           2331      124283.00    552034.00
 1031.46        2963.50           2335      147293.00    656569.00
 1031.49        2963.75           2339      170184.00    761314.50
 1031.52        2964.00           2342      188135.00    843987.40
 1031.55        2964.25           2346      212316.00    956103.60
 1031.58        2964.50           2349      230004.00   1038668.00
 1031.61        2964.75           2353      252912.00   1146306.00
 1031.64        2965.00           2356      270580.00   1229875.00
 1031.67        2965.25           2360      294457.00   1343589.00
 1031.70        2965.50           2363      311129.00   1423526.00
 1031.73        2965.75           2367      330794.00   1518390.00
 1031.76        2966.00           2370      346212.00   1593209.00
 1031.79        2966.25           2374      366639.00   1692942.00
 1031.82        2966.50           2378      383374.00   1775171.00
 1031.85        2966.75           2381      389411.00   1804951.00
 1031.88        2967.00           2385      391460.00   1815073.00
 1031.92        2967.25           2388      391389.00   1814723.00
 1031.95        2967.50           2392      392479.00   1820110.00
 1031.98        2967.75           2395      391506.00   1815301.00
 1032.01        2968.00           2399      385837.00   1787314.00
 1032.04        2968.25           2402      374613.00   1732064.00
 1032.07        2968.50           2406      357430.00   1647893.00
 1032.10        2968.75           2409      343610.00   1580555.00
 1032.13        2969.00           2413      324142.00   1486230.00
 1032.16        2969.25           2417      303136.00   1385146.00
 1032.19        2969.50           2420      287241.00   1309128.00
 1032.22        2969.75           2424      262419.00   1191213.00
 1032.25        2970.00           2427      243691.00   1102883.00
 1032.28        2970.25           2431      221215.00    997583.80
 1032.31        2970.50           2434      204422.00    919407.10
 1032.34        2970.75           2438      182502.00    817994.00
 1032.37        2971.00           2441      166183.00    742952.00
 1032.40        2971.25           2445      143875.00    640993.40
 1032.44        2971.50           2449      119908.00    532242.90
 1032.47        2971.75           2452      102355.00    453107.90
 1032.50        2972.00           2456       77947.00    343776.40
 1032.53        2972.25           2459       60322.00    265333.70
 1032.56        2972.50           2463       38868.00    170413.00
 1032.59        2972.75           2466       24983.00    109306.50
 1032.62        2973.00           2470        9354.00     40827.78
 1032.65        2973.25           2473        3902.00     17014.64
 1032.68        2973.50           2477        2212.00      9640.91
 1032.71        2973.75           2481        2000.00      8716.18
 1032.74        2974.00           2484        1985.00      8650.76
 1032.77        2974.25           2488        1946.00      8480.65
 1032.80        2974.50           2491        1924.00      8384.69
 1032.83        2974.75           2495        1872.00      8157.89
 1032.86        2975.00           2498        1840.00      8018.32
 1032.89        2975.25           2502        1803.00      7856.94
 1032.93        2975.50           2505        1808.00      7878.75
 1032.96        2975.75           2509        1795.00      7822.05
 1032.99        2976.00           2512        1721.00      7499.30
 1033.02        2976.25           2516        1722.00      7503.66
 1033.05        2976.50           2520        1693.00      7377.18
 1033.08        2976.75           2523        1681.00      7324.84
 1033.11        2977.00           2527        1656.00      7215.81
 1033.14        2977.25           2530        1634.00      7119.86
 1033.17        2977.50           2534        1655.00      7211.45
 1033.20        2977.75           2537        1609.00      7010.83
 1033.23        2978.00           2541        1586.00      6910.52
 1033.26        2978.25           2544        1622.00      7067.52
 1033.29        2978.50           2548        1549.00      6749.15
 1033.32        2978.75           2552        1583.00      6897.43
 1033.35        2979.00           2555        1543.00      6722.98
 1033.38        2979.25           2559        1529.00      6661.93
 1033.41        2979.50           2562        1519.00      6618.32
 1033.44        2979.75           2566        1540.00      6709.90
 1033.48        2980.00           2569        1523.00      6635.76
 1033.51        2980.25           2573        1508.00      6570.34
 1033.54        2980.50           2577        1527.00      6653.21
 1033.57        2980.75           2580        1469.00      6400.26
 1033.60        2981.00           2584        1474.00      6422.07
 1033.63        2981.25           2587        1485.00      6470.04
 1033.66        2981.50           2591        1448.00      6308.68
 1033.69        2981.75           2594        1467.00      6391.54
 1033.72        2982.00           2598        1464.00      6378.45
 1033.75        2982.25           2601        1457.00      6347.93
 1033.78        2982.50           2605        1470.00      6404.62
 1033.81        2982.75           2609        1453.00      6330.48
 1033.84        2983.00           2612        1427.00      6217.09
 1033.87        2983.25           2616        1436.00      6256.34
 1033.90        2983.50           2619        1415.00      6164.76
 1033.93        2983.75           2623        1433.00      6243.26
 1033.96        2984.00           2626        1419.00      6182.21
HS scan finished at 17:14:11
end
