************************************************************
  HS Scan of (1) Internal mercury lamp
************************************************************
Integration time is 0.2294 seconds per sample
dh291217Reading 51.44 .94 2.45pr1000
************************************************************
Dead Time -------------------------  3.4E-08 
Number of Cycles Used -------------  4 
Starting Wavelength (Angstroms) ---  2950 
Final Wavelength (Angstoms) -------  2984 
Wavelength Increment (Angstroms) --  .25 
Filter Wheel #1 Position ---------- (1) Ground quartz diffuser (ND=2.32)
Filter Wheel #2 Position ---------- (1) Neutral Density 0.494



************************************************************
HS scan start time = 05:19:05
Dark Count =  .3 


Time (GMT)  Wavelength (Ang)  Step Number  Raw Counts  Counts/Second

  319.98        2950.00           2144          85.00       369.23
  320.18        2950.25           2147          88.00       382.31
  320.21        2950.50           2151          96.00       417.18
  320.24        2950.75           2155          82.00       356.15
  320.27        2951.00           2158          87.00       377.95
  320.30        2951.25           2162          97.00       421.54
  320.33        2951.50           2165         115.00       500.01
  320.36        2951.75           2169          87.00       377.95
  320.39        2952.00           2172          92.00       399.74
  320.42        2952.25           2176         113.00       491.29
  320.45        2952.50           2179          90.00       391.03
  320.48        2952.75           2183          94.00       408.46
  320.51        2953.00           2186         130.00       565.40
  320.54        2953.25           2190          96.00       417.18
  320.57        2953.50           2193          93.00       404.10
  320.60        2953.75           2197         108.00       469.49
  320.64        2954.00           2200          98.00       425.90
  320.67        2954.25           2204         100.00       434.62
  320.70        2954.50           2208          97.00       421.54
  320.73        2954.75           2211         119.00       517.45
  320.76        2955.00           2215          90.00       391.03
  320.79        2955.25           2218         100.00       434.62
  320.82        2955.50           2222          99.00       430.26
  320.85        2955.75           2225         109.00       473.85
  320.88        2956.00           2229          96.00       417.18
  320.91        2956.25           2232         106.00       460.77
  320.94        2956.50           2236         102.00       443.34
  320.97        2956.75           2239         104.00       452.06
  321.00        2957.00           2243         101.00       438.98
  321.03        2957.25           2246         100.00       434.62
  321.06        2957.50           2250         108.00       469.49
  321.09        2957.75           2254         109.00       473.85
  321.12        2958.00           2257         107.00       465.13
  321.16        2958.25           2261         115.00       500.01
  321.19        2958.50           2264         154.00       670.02
  321.22        2958.75           2268         134.00       582.84
  321.25        2959.00           2271         129.00       561.04
  321.28        2959.25           2275         123.00       534.88
  321.31        2959.50           2278         106.00       460.77
  321.34        2959.75           2282         152.00       661.31
  321.37        2960.00           2285         161.00       700.54
  321.40        2960.25           2289         154.00       670.02
  321.44        2960.50           2293         176.00       765.93
  321.47        2960.75           2296         149.00       648.23
  321.50        2961.00           2300         147.00       639.51
  321.53        2961.25           2303         312.00      1358.83
  321.56        2961.50           2307        1065.00      4641.97
  321.59        2961.75           2310        1890.00      8239.88
  321.62        2962.00           2314        3188.00     13902.39
  321.65        2962.25           2317        4123.00     17982.66
  321.68        2962.50           2321        5598.00     24421.76
  321.71        2962.75           2324        6602.00     28806.32
  321.74        2963.00           2328        8029.00     35040.42
  321.78        2963.25           2331        9290.00     40551.52
  321.81        2963.50           2335       10777.00     47052.99
  321.84        2963.75           2339       12419.00     54235.49
  321.87        2964.00           2342       13490.00     58922.20
  321.90        2964.25           2346       14947.00     65300.45
  321.93        2964.50           2349       16086.00     70288.53
  321.96        2964.75           2353       17682.00     77280.82
  321.99        2965.00           2356       18592.00     81269.15
  322.02        2965.25           2360       19861.00     86832.69
  322.05        2965.50           2363       21040.00     92003.57
  322.08        2965.75           2367       22147.00     96860.30
  322.11        2966.00           2370       23443.00    102548.30
  322.14        2966.25           2374       24497.00    107175.80
  322.17        2966.50           2378       25103.00    109837.10
  322.20        2966.75           2381       25453.00    111374.30
  322.23        2967.00           2385       25800.00    112898.50
  322.26        2967.25           2388       25587.00    111962.90
  322.30        2967.50           2392       26160.00    114480.00
  322.33        2967.75           2395       26028.00    113900.10
  322.36        2968.00           2399       25247.00    110469.50
  322.39        2968.25           2402       24293.00    106280.00
  322.42        2968.50           2406       22815.00     99791.80
  322.45        2968.75           2409       21164.00     92547.51
  322.48        2969.00           2413       19746.00     86328.43
  322.51        2969.25           2417       18586.00     81242.85
  322.54        2969.50           2420       17607.00     76952.16
  322.57        2969.75           2424       15779.00     68943.90
  322.60        2970.00           2427       14599.00     63776.78
  322.63        2970.25           2431       13258.00     57906.84
  322.66        2970.50           2434       11990.00     52358.61
  322.69        2970.75           2438       10670.00     46585.07
  322.72        2971.00           2441        9435.00     41185.36
  322.75        2971.25           2445        7846.00     34240.80
  322.79        2971.50           2449        6242.00     27234.01
  322.82        2971.75           2452        5135.00     22400.23
  322.85        2972.00           2456        3683.00     16062.39
  322.88        2972.25           2459        2719.00     11856.13
  322.91        2972.50           2463        1461.00      6368.86
  322.94        2972.75           2466         725.00      3159.45
  322.97        2973.00           2470         243.00      1058.02
  323.00        2973.25           2473         158.00       687.46
  323.03        2973.50           2477         139.00       604.63
  323.06        2973.75           2481         142.00       617.71
  323.09        2974.00           2484         108.00       469.49
  323.12        2974.25           2488         122.00       530.52
  323.15        2974.50           2491         112.00       486.93
  323.18        2974.75           2495         112.00       486.93
  323.21        2975.00           2498         133.00       578.48
  323.24        2975.25           2502         161.00       700.54
  323.27        2975.50           2505         143.00       622.07
  323.30        2975.75           2509         124.00       539.24
  323.34        2976.00           2512         105.00       456.42
  323.37        2976.25           2516         119.00       517.45
  323.40        2976.50           2520         122.00       530.52
  323.43        2976.75           2523         101.00       438.98
  323.46        2977.00           2527          97.00       421.54
  323.49        2977.25           2530          96.00       417.18
  323.52        2977.50           2534         109.00       473.85
  323.55        2977.75           2537         116.00       504.37
  323.58        2978.00           2541         105.00       456.42
  323.61        2978.25           2544         125.00       543.60
  323.64        2978.50           2548         117.00       508.73
  323.67        2978.75           2552          95.00       412.82
  323.70        2979.00           2555          93.00       404.10
  323.73        2979.25           2559          91.00       395.38
  323.76        2979.50           2562          96.00       417.18
  323.79        2979.75           2566          96.00       417.18
  323.83        2980.00           2569          92.00       399.74
  323.86        2980.25           2573          91.00       395.38
  323.89        2980.50           2577          88.00       382.31
  323.92        2980.75           2580          93.00       404.10
  323.95        2981.00           2584          87.00       377.95
  323.98        2981.25           2587          86.00       373.59
  324.01        2981.50           2591          89.00       386.67
  324.04        2981.75           2594          90.00       391.03
  324.07        2982.00           2598          88.00       382.31
  324.10        2982.25           2601          87.00       377.95
  324.13        2982.50           2605          85.00       369.23
  324.16        2982.75           2609          84.00       364.87
  324.19        2983.00           2612          79.00       343.07
  324.22        2983.25           2616          88.00       382.31
  324.25        2983.50           2619          82.00       356.15
  324.28        2983.75           2623          82.00       356.15
  324.31        2984.00           2626          72.00       312.56
HS scan finished at 05:24:32
end
************************************************************
  HS Scan of (1) Internal mercury lamp
************************************************************
Integration time is 0.2294 seconds per sample
dh291217Reading 51.44 .94 2.72pr1000
************************************************************
Dead Time -------------------------  3.4E-08 
Number of Cycles Used -------------  4 
Starting Wavelength (Angstroms) ---  2950 
Final Wavelength (Angstoms) -------  2984 
Wavelength Increment (Angstroms) --  .25 
Filter Wheel #1 Position ---------- (1) Ground quartz diffuser (ND=2.32)
Filter Wheel #2 Position ---------- (1) Neutral Density 0.494



************************************************************
HS scan start time = 17:07:27
Dark Count =  .6 


Time (GMT)  Wavelength (Ang)  Step Number  Raw Counts  Counts/Second

 1028.36        2950.00           2144          88.00       381.00
 1028.55        2950.25           2147          87.00       376.64
 1028.58        2950.50           2151          88.00       381.00
 1028.61        2950.75           2155          83.00       359.20
 1028.64        2951.00           2158          86.00       372.28
 1028.67        2951.25           2162          87.00       376.64
 1028.70        2951.50           2165          86.00       372.28
 1028.73        2951.75           2169         102.00       442.03
 1028.76        2952.00           2172          89.00       385.36
 1028.79        2952.25           2176          80.00       346.12
 1028.82        2952.50           2179          89.00       385.36
 1028.86        2952.75           2183          96.00       415.87
 1028.89        2953.00           2186          98.00       424.59
 1028.92        2953.25           2190         112.00       485.62
 1028.95        2953.50           2193          84.00       363.56
 1028.98        2953.75           2197         118.00       511.78
 1029.01        2954.00           2200          90.00       389.72
 1029.04        2954.25           2204          89.00       385.36
 1029.07        2954.50           2208          92.00       398.44
 1029.10        2954.75           2211          94.00       407.15
 1029.13        2955.00           2215          95.00       411.51
 1029.16        2955.25           2218          92.00       398.44
 1029.19        2955.50           2222          96.00       415.87
 1029.22        2955.75           2225          93.00       402.80
 1029.25        2956.00           2229          89.00       385.36
 1029.28        2956.25           2232         127.00       551.01
 1029.31        2956.50           2236          91.00       394.08
 1029.34        2956.75           2239          82.00       354.84
 1029.37        2957.00           2243         101.00       437.67
 1029.41        2957.25           2246          96.00       415.87
 1029.44        2957.50           2250         109.00       472.54
 1029.47        2957.75           2254          96.00       415.87
 1029.50        2958.00           2257          98.00       424.59
 1029.53        2958.25           2261         119.00       516.14
 1029.56        2958.50           2264          98.00       424.59
 1029.59        2958.75           2268         118.00       511.78
 1029.62        2959.00           2271         107.00       463.83
 1029.65        2959.25           2275         146.00       633.84
 1029.68        2959.50           2278         124.00       537.93
 1029.71        2959.75           2282         163.00       707.95
 1029.74        2960.00           2285         105.00       455.11
 1029.77        2960.25           2289         107.00       463.83
 1029.80        2960.50           2293         142.00       616.40
 1029.83        2960.75           2296         146.00       633.84
 1029.86        2961.00           2300         159.00       690.51
 1029.89        2961.25           2303         330.00      1435.99
 1029.93        2961.50           2307        1081.00      4710.43
 1029.96        2961.75           2310        1965.00      8565.70
 1029.99        2962.00           2314        3209.00     13992.71
 1030.02        2962.25           2317        4164.00     18160.29
 1030.05        2962.50           2321        5562.00     24263.25
 1030.08        2962.75           2324        6549.00     28573.52
 1030.11        2963.00           2328        7781.00     33955.49
 1030.14        2963.25           2331        8723.00     38071.92
 1030.17        2963.50           2335       10143.00     44279.35
 1030.20        2963.75           2339       12205.00     53297.90
 1030.23        2964.00           2342       13565.00     59249.15
 1030.26        2964.25           2346       14691.00     64178.25
 1030.29        2964.50           2349       15896.00     69455.02
 1030.32        2964.75           2353       17522.00     76578.40
 1030.35        2965.00           2356       18577.00     81202.10
 1030.38        2965.25           2360       19780.00     86476.21
 1030.41        2965.50           2363       20661.00     90339.84
 1030.45        2965.75           2367       21919.00     95858.56
 1030.48        2966.00           2370       22674.00     99171.68
 1030.51        2966.25           2374       23791.00    104074.70
 1030.54        2966.50           2378       24629.00    107754.10
 1030.57        2966.75           2381       24789.00    108456.70
 1030.60        2967.00           2385       24903.00    108957.40
 1030.63        2967.25           2388       25235.00    110415.50
 1030.66        2967.50           2392       25132.00    109963.10
 1030.69        2967.75           2395       24344.00    106502.70
 1030.72        2968.00           2399       23501.00    102801.60
 1030.75        2968.25           2402       22998.00    100593.70
 1030.78        2968.50           2406       21387.00     93524.48
 1030.81        2968.75           2409       20477.00     89532.82
 1030.84        2969.00           2413       18830.00     82311.12
 1030.87        2969.25           2417       17376.00     75938.63
 1030.90        2969.50           2420       16342.00     71408.56
 1030.93        2969.75           2424       14835.00     64808.74
 1030.97        2970.00           2427       14108.00     61625.94
 1031.00        2970.25           2431       12378.00     54054.79
 1031.03        2970.50           2434       11092.00     48429.29
 1031.06        2970.75           2438        9711.00     42390.61
 1031.09        2971.00           2441        8630.00     37665.47
 1031.12        2971.25           2445        7112.00     31032.73
 1031.15        2971.50           2449        5871.00     25612.53
 1031.18        2971.75           2452        4823.00     21036.84
 1031.21        2972.00           2456        3495.00     15240.68
 1031.24        2972.25           2459        2341.00     10205.81
 1031.27        2972.50           2463        1104.00      4810.73
 1031.30        2972.75           2466         489.00      2129.19
 1031.33        2973.00           2470         180.00       782.06
 1031.36        2973.25           2473         166.00       721.03
 1031.39        2973.50           2477         131.00       568.45
 1031.42        2973.75           2481         160.00       694.87
 1031.45        2974.00           2484         115.00       498.70
 1031.49        2974.25           2488         147.00       638.20
 1031.52        2974.50           2491         145.00       629.48
 1031.55        2974.75           2495         123.00       533.58
 1031.58        2975.00           2498         112.00       485.62
 1031.61        2975.25           2502         132.00       572.81
 1031.64        2975.50           2505          97.00       420.23
 1031.67        2975.75           2509          96.00       415.87
 1031.70        2976.00           2512          98.00       424.59
 1031.73        2976.25           2516         101.00       437.67
 1031.76        2976.50           2520         123.00       533.58
 1031.79        2976.75           2523          97.00       420.23
 1031.82        2977.00           2527          89.00       385.36
 1031.85        2977.25           2530          99.00       428.95
 1031.88        2977.50           2534          94.00       407.15
 1031.91        2977.75           2537          90.00       389.72
 1031.94        2978.00           2541          99.00       428.95
 1031.97        2978.25           2544          95.00       411.51
 1032.01        2978.50           2548          84.00       363.56
 1032.04        2978.75           2552          95.00       411.51
 1032.07        2979.00           2555          93.00       402.80
 1032.10        2979.25           2559          90.00       389.72
 1032.13        2979.50           2562          86.00       372.28
 1032.16        2979.75           2566          87.00       376.64
 1032.19        2980.00           2569          85.00       367.92
 1032.22        2980.25           2573         107.00       463.83
 1032.25        2980.50           2577          90.00       389.72
 1032.28        2980.75           2580          94.00       407.15
 1032.31        2981.00           2584          88.00       381.00
 1032.34        2981.25           2587          80.00       346.12
 1032.37        2981.50           2591          83.00       359.20
 1032.40        2981.75           2594          94.00       407.15
 1032.43        2982.00           2598          82.00       354.84
 1032.46        2982.25           2601          97.00       420.23
 1032.49        2982.50           2605          82.00       354.84
 1032.53        2982.75           2609          77.00       333.05
 1032.56        2983.00           2612          78.00       337.41
 1032.59        2983.25           2616          75.00       324.33
 1032.62        2983.50           2619          84.00       363.56
 1032.65        2983.75           2623          81.00       350.48
 1032.68        2984.00           2626          77.00       333.05
HS scan finished at 17:12:54
end
