************************************************************
  HS Scan of (1) Internal mercury lamp
************************************************************
Integration time is 0.2294 seconds per sample
dh261217Reading 51.44 .94 2.5pr1000
************************************************************
Dead Time -------------------------  3.4E-08 
Number of Cycles Used -------------  4 
Starting Wavelength (Angstroms) ---  2950 
Final Wavelength (Angstoms) -------  2984 
Wavelength Increment (Angstroms) --  .25 
Filter Wheel #1 Position ---------- (1) Ground quartz diffuser (ND=2.32)
Filter Wheel #2 Position ---------- (1) Neutral Density 0.494



************************************************************
HS scan start time = 05:15:19
Dark Count =  .3 


Time (GMT)  Wavelength (Ang)  Step Number  Raw Counts  Counts/Second

  316.21        2950.00           2144          94.00       408.46
  316.40        2950.25           2147          94.00       408.46
  316.43        2950.50           2151          98.00       425.90
  316.46        2950.75           2155         103.00       447.70
  316.49        2951.00           2158          98.00       425.90
  316.53        2951.25           2162         104.00       452.06
  316.56        2951.50           2165          96.00       417.18
  316.59        2951.75           2169         114.00       495.65
  316.62        2952.00           2172          91.00       395.38
  316.65        2952.25           2176         138.00       600.27
  316.68        2952.50           2179          94.00       408.46
  316.71        2952.75           2183         139.00       604.63
  316.74        2953.00           2186          97.00       421.54
  316.77        2953.25           2190         118.00       513.09
  316.80        2953.50           2193         125.00       543.60
  316.83        2953.75           2197         123.00       534.88
  316.86        2954.00           2200          97.00       421.54
  316.89        2954.25           2204          98.00       425.90
  316.92        2954.50           2208         100.00       434.62
  316.95        2954.75           2211         122.00       530.52
  316.98        2955.00           2215          99.00       430.26
  317.01        2955.25           2218         103.00       447.70
  317.05        2955.50           2222         114.00       495.65
  317.08        2955.75           2225         125.00       543.60
  317.11        2956.00           2229         110.00       478.21
  317.14        2956.25           2232         101.00       438.98
  317.17        2956.50           2236         100.00       434.62
  317.20        2956.75           2239         105.00       456.42
  317.23        2957.00           2243         109.00       473.85
  317.26        2957.25           2246         107.00       465.13
  317.29        2957.50           2250         131.00       569.76
  317.32        2957.75           2254         115.00       500.01
  317.35        2958.00           2257         109.00       473.85
  317.38        2958.25           2261         149.00       648.23
  317.41        2958.50           2264         107.00       465.13
  317.44        2958.75           2268         111.00       482.57
  317.47        2959.00           2271         111.00       482.57
  317.50        2959.25           2275         119.00       517.45
  317.53        2959.50           2278         125.00       543.60
  317.57        2959.75           2282         115.00       500.01
  317.60        2960.00           2285         121.00       526.16
  317.63        2960.25           2289         128.00       556.68
  317.66        2960.50           2293         143.00       622.07
  317.69        2960.75           2296         147.00       639.51
  317.72        2961.00           2300         163.00       709.26
  317.75        2961.25           2303         301.00      1310.87
  317.78        2961.50           2307         950.00      4140.51
  317.81        2961.75           2310        1942.00      8466.69
  317.84        2962.00           2314        3414.00     14888.53
  317.87        2962.25           2317        4623.00     20165.09
  317.90        2962.50           2321        6060.00     26439.19
  317.93        2962.75           2324        7148.00     31191.30
  317.96        2963.00           2328        8890.00     38803.12
  317.99        2963.25           2331       10165.00     44376.85
  318.02        2963.50           2335       11919.00     52048.00
  318.05        2963.75           2339       13560.00     59228.57
  318.09        2964.00           2342       14676.00     64113.89
  318.12        2964.25           2346       16717.00     73052.62
  318.15        2964.50           2349       18052.00     78902.31
  318.18        2964.75           2353       19647.00     85894.33
  318.21        2965.00           2356       20839.00     91121.88
  318.24        2965.25           2360       22419.00     98053.90
  318.27        2965.50           2363       23339.00    102091.80
  318.30        2965.75           2367       24890.00    108901.60
  318.33        2966.00           2370       25970.00    113645.30
  318.36        2966.25           2374       27509.00    120407.80
  318.39        2966.50           2378       28253.00    123678.10
  318.42        2966.75           2381       28473.00    124645.30
  318.45        2967.00           2385       28721.00    125735.60
  318.48        2967.25           2388       29069.00    127265.70
  318.51        2967.50           2392       28815.00    126148.90
  318.54        2967.75           2395       28984.00    126892.00
  318.57        2968.00           2399       28228.00    123568.20
  318.61        2968.25           2402       27369.00    119792.50
  318.64        2968.50           2406       25718.00    112538.30
  318.67        2968.75           2409       24388.00    106697.20
  318.70        2969.00           2413       22906.00    100191.20
  318.73        2969.25           2417       21241.00     92885.30
  318.76        2969.50           2420       20006.00     87468.54
  318.79        2969.75           2424       18204.00     79568.50
  318.82        2970.00           2427       16688.00     72925.58
  318.85        2970.25           2431       14827.00     64775.03
  318.88        2970.50           2434       13462.00     58799.65
  318.91        2970.75           2438       11762.00     51361.20
  318.94        2971.00           2441       10554.00     46077.80
  318.97        2971.25           2445        8908.00     38881.80
  319.00        2971.50           2449        7264.00     31698.05
  319.03        2971.75           2452        5979.00     26085.46
  319.06        2972.00           2456        4495.00     19606.36
  319.09        2972.25           2459        3150.00     13736.58
  319.12        2972.50           2463        1676.00      7306.52
  319.16        2972.75           2466         816.00      3556.23
  319.19        2973.00           2470         280.00      1219.32
  319.22        2973.25           2473         168.00       731.06
  319.25        2973.50           2477         143.00       622.07
  319.28        2973.75           2481         156.00       678.74
  319.31        2974.00           2484         152.00       661.31
  319.34        2974.25           2488         142.00       617.71
  319.37        2974.50           2491         138.00       600.27
  319.40        2974.75           2495         120.00       521.81
  319.43        2975.00           2498         113.00       491.29
  319.46        2975.25           2502         140.00       608.99
  319.49        2975.50           2505         132.00       574.12
  319.52        2975.75           2509         136.00       591.56
  319.55        2976.00           2512         122.00       530.52
  319.58        2976.25           2516         150.00       652.59
  319.61        2976.50           2520         116.00       504.37
  319.65        2976.75           2523          95.00       412.82
  319.68        2977.00           2527         158.00       687.46
  319.71        2977.25           2530         107.00       465.13
  319.74        2977.50           2534         132.00       574.12
  319.77        2977.75           2537         107.00       465.13
  319.80        2978.00           2541         110.00       478.21
  319.83        2978.25           2544          99.00       430.26
  319.86        2978.50           2548         105.00       456.42
  319.89        2978.75           2552         101.00       438.98
  319.92        2979.00           2555         102.00       443.34
  319.95        2979.25           2559          99.00       430.26
  319.98        2979.50           2562         105.00       456.42
  320.01        2979.75           2566          99.00       430.26
  320.04        2980.00           2569          89.00       386.67
  320.07        2980.25           2573          95.00       412.82
  320.10        2980.50           2577          99.00       430.26
  320.13        2980.75           2580          96.00       417.18
  320.17        2981.00           2584          91.00       395.38
  320.20        2981.25           2587         103.00       447.70
  320.23        2981.50           2591          95.00       412.82
  320.26        2981.75           2594          91.00       395.38
  320.29        2982.00           2598          90.00       391.03
  320.32        2982.25           2601          92.00       399.74
  320.35        2982.50           2605          86.00       373.59
  320.38        2982.75           2609          94.00       408.46
  320.41        2983.00           2612         115.00       500.01
  320.44        2983.25           2616          92.00       399.74
  320.47        2983.50           2619          89.00       386.67
  320.50        2983.75           2623          89.00       386.67
  320.53        2984.00           2626          91.00       395.38
HS scan finished at 05:20:45
end
************************************************************
  HS Scan of (1) Internal mercury lamp
************************************************************
Integration time is 0.2294 seconds per sample
dh261217Reading 51.44 .94 2.74pr1000
************************************************************
Dead Time -------------------------  3.4E-08 
Number of Cycles Used -------------  4 
Starting Wavelength (Angstroms) ---  2950 
Final Wavelength (Angstoms) -------  2984 
Wavelength Increment (Angstroms) --  .25 
Filter Wheel #1 Position ---------- (1) Ground quartz diffuser (ND=2.32)
Filter Wheel #2 Position ---------- (1) Neutral Density 0.494



************************************************************
HS scan start time = 17:07:25
Dark Count =  .6 


Time (GMT)  Wavelength (Ang)  Step Number  Raw Counts  Counts/Second

 1028.32        2950.00           2144          83.00       359.20
 1028.52        2950.25           2147          85.00       367.92
 1028.55        2950.50           2151          86.00       372.28
 1028.58        2950.75           2155          79.00       341.77
 1028.61        2951.00           2158          89.00       385.36
 1028.64        2951.25           2162          88.00       381.00
 1028.67        2951.50           2165          92.00       398.44
 1028.70        2951.75           2169          92.00       398.44
 1028.73        2952.00           2172          91.00       394.08
 1028.76        2952.25           2176          87.00       376.64
 1028.79        2952.50           2179          86.00       372.28
 1028.82        2952.75           2183          90.00       389.72
 1028.85        2953.00           2186         102.00       442.03
 1028.88        2953.25           2190          97.00       420.23
 1028.91        2953.50           2193          86.00       372.28
 1028.94        2953.75           2197         100.00       433.31
 1028.98        2954.00           2200          87.00       376.64
 1029.01        2954.25           2204          86.00       372.28
 1029.04        2954.50           2208          90.00       389.72
 1029.07        2954.75           2211          89.00       385.36
 1029.10        2955.00           2215          91.00       394.08
 1029.13        2955.25           2218          92.00       398.44
 1029.16        2955.50           2222          87.00       376.64
 1029.19        2955.75           2225          93.00       402.80
 1029.22        2956.00           2229          98.00       424.59
 1029.25        2956.25           2232         115.00       498.70
 1029.28        2956.50           2236          98.00       424.59
 1029.31        2956.75           2239          92.00       398.44
 1029.34        2957.00           2243         103.00       446.39
 1029.37        2957.25           2246         100.00       433.31
 1029.40        2957.50           2250         102.00       442.03
 1029.43        2957.75           2254         114.00       494.34
 1029.46        2958.00           2257         120.00       520.50
 1029.50        2958.25           2261         110.00       476.90
 1029.53        2958.50           2264         105.00       455.11
 1029.56        2958.75           2268         107.00       463.83
 1029.59        2959.00           2271         117.00       507.42
 1029.62        2959.25           2275         100.00       433.31
 1029.65        2959.50           2278         120.00       520.50
 1029.68        2959.75           2282         108.00       468.19
 1029.71        2960.00           2285         115.00       498.70
 1029.74        2960.25           2289         147.00       638.20
 1029.77        2960.50           2293         120.00       520.50
 1029.80        2960.75           2296         140.00       607.68
 1029.83        2961.00           2300         148.00       642.56
 1029.86        2961.25           2303         313.00      1361.88
 1029.89        2961.50           2307        1069.00      4658.11
 1029.92        2961.75           2310        1922.00      8378.15
 1029.95        2962.00           2314        3271.00     14263.24
 1029.98        2962.25           2317        4296.00     18736.43
 1030.02        2962.50           2321        5880.00     25651.83
 1030.05        2962.75           2324        7104.00     30997.78
 1030.08        2963.00           2328        8995.00     39260.74
 1030.11        2963.25           2331       10087.00     44034.50
 1030.14        2963.50           2335       11564.00     50493.77
 1030.17        2963.75           2339       12882.00     56260.09
 1030.20        2964.00           2342       14003.00     61166.31
 1030.23        2964.25           2346       15648.00     68368.86
 1030.26        2964.50           2349       16767.00     73270.37
 1030.29        2964.75           2353       18337.00     80150.12
 1030.32        2965.00           2356       19537.00     85410.71
 1030.35        2965.25           2360       21048.00     92037.34
 1030.38        2965.50           2363       24116.00    105501.60
 1030.41        2965.75           2367       25584.00    111948.40
 1030.44        2966.00           2370       26332.00    115234.40
 1030.47        2966.25           2374       27300.00    119487.90
 1030.50        2966.50           2378       28066.00    122854.70
 1030.54        2966.75           2381       27954.00    122362.40
 1030.57        2967.00           2385       28171.00    123316.30
 1030.60        2967.25           2388       28112.00    123057.00
 1030.63        2967.50           2392       28196.00    123426.20
 1030.66        2967.75           2395       28039.00    122736.10
 1030.69        2968.00           2399       27148.00    118819.90
 1030.72        2968.25           2402       26133.00    114360.10
 1030.75        2968.50           2406       24488.00    107135.00
 1030.78        2968.75           2409       23238.00    101647.10
 1030.81        2969.00           2413       21667.00     94752.89
 1030.84        2969.25           2417       20025.00     87550.56
 1030.87        2969.50           2420       18866.00     82468.93
 1030.90        2969.75           2424       17263.00     75443.49
 1030.93        2970.00           2427       16076.00     70243.41
 1030.96        2970.25           2431       14405.00     62926.12
 1030.99        2970.50           2434       13280.00     58001.81
 1031.02        2970.75           2438       11529.00     50340.67
 1031.06        2971.00           2441       10220.00     44616.02
 1031.09        2971.25           2445        8560.00     37359.55
 1031.12        2971.50           2449        6852.00     29896.98
 1031.15        2971.75           2452        5622.00     24525.24
 1031.18        2972.00           2456        4004.00     17461.98
 1031.21        2972.25           2459        2889.00     12596.50
 1031.24        2972.50           2463        1556.00      6781.86
 1031.27        2972.75           2466         752.00      3275.87
 1031.30        2973.00           2470         207.00       899.77
 1031.33        2973.25           2473         146.00       633.84
 1031.36        2973.50           2477         161.00       699.23
 1031.39        2973.75           2481         127.00       551.01
 1031.42        2974.00           2484         119.00       516.14
 1031.45        2974.25           2488         135.00       585.89
 1031.48        2974.50           2491         113.00       489.98
 1031.51        2974.75           2495         125.00       542.29
 1031.54        2975.00           2498         132.00       572.81
 1031.58        2975.25           2502         116.00       503.06
 1031.61        2975.50           2505         111.00       481.26
 1031.64        2975.75           2509         108.00       468.19
 1031.67        2976.00           2512         112.00       485.62
 1031.70        2976.25           2516         111.00       481.26
 1031.73        2976.50           2520         101.00       437.67
 1031.76        2976.75           2523          91.00       394.08
 1031.79        2977.00           2527         106.00       459.47
 1031.82        2977.25           2530          98.00       424.59
 1031.85        2977.50           2534          94.00       407.15
 1031.88        2977.75           2537         125.00       542.29
 1031.91        2978.00           2541          97.00       420.23
 1031.94        2978.25           2544          89.00       385.36
 1031.97        2978.50           2548          94.00       407.15
 1032.00        2978.75           2552          89.00       385.36
 1032.03        2979.00           2555          95.00       411.51
 1032.06        2979.25           2559          87.00       376.64
 1032.09        2979.50           2562          90.00       389.72
 1032.13        2979.75           2566          93.00       402.80
 1032.16        2980.00           2569          92.00       398.44
 1032.19        2980.25           2573          89.00       385.36
 1032.22        2980.50           2577          94.00       407.15
 1032.25        2980.75           2580          86.00       372.28
 1032.28        2981.00           2584         115.00       498.70
 1032.31        2981.25           2587          82.00       354.84
 1032.34        2981.50           2591          92.00       398.44
 1032.37        2981.75           2594          94.00       407.15
 1032.40        2982.00           2598          88.00       381.00
 1032.43        2982.25           2601          83.00       359.20
 1032.46        2982.50           2605          85.00       367.92
 1032.49        2982.75           2609          80.00       346.12
 1032.52        2983.00           2612          79.00       341.77
 1032.55        2983.25           2616          85.00       367.92
 1032.58        2983.50           2619          83.00       359.20
 1032.61        2983.75           2623          85.00       367.92
 1032.65        2984.00           2626          79.00       341.77
HS scan finished at 17:12:52
end
