************************************************************
  HS Scan of (1) Internal mercury lamp
************************************************************
Integration time is 0.2294 seconds per sample
dh271218Reading 51.44 .94 2.62pr1000
************************************************************
Dead Time -------------------------  3.4E-08 
Number of Cycles Used -------------  4 
Starting Wavelength (Angstroms) ---  2950 
Final Wavelength (Angstoms) -------  2984 
Wavelength Increment (Angstroms) --  .25 
Filter Wheel #1 Position ---------- (1) Ground quartz diffuser (ND=2.32)
Filter Wheel #2 Position ---------- (1) Neutral Density 0.494



************************************************************
HS scan start time = 05:15:30
Dark Count =  .3 


Time (GMT)  Wavelength (Ang)  Step Number  Raw Counts  Counts/Second

  316.39        2950.00           2144        1610.00      7018.68
  316.59        2950.25           2147        1623.00      7075.37
  316.62        2950.50           2151        1587.00      6918.37
  316.65        2950.75           2155        1623.00      7075.37
  316.68        2951.00           2158        1623.00      7075.37
  316.71        2951.25           2162        1686.00      7350.14
  316.74        2951.50           2165        1640.00      7149.51
  316.77        2951.75           2169        1661.00      7241.10
  316.80        2952.00           2172        1626.00      7088.46
  316.83        2952.25           2176        1657.00      7223.66
  316.86        2952.50           2179        1650.00      7193.13
  316.89        2952.75           2183        1670.00      7280.36
  316.92        2953.00           2186        1691.00      7371.94
  316.95        2953.25           2190        1690.00      7367.58
  316.98        2953.50           2193        1701.00      7415.56
  317.02        2953.75           2197        1740.00      7585.65
  317.05        2954.00           2200        1721.00      7502.79
  317.08        2954.25           2204        1758.00      7664.16
  317.11        2954.50           2208        1708.00      7446.09
  317.14        2954.75           2211        1699.00      7406.83
  317.17        2955.00           2215        1729.00      7537.68
  317.20        2955.25           2218        1725.00      7520.23
  317.23        2955.50           2222        1741.00      7590.01
  317.26        2955.75           2225        1790.00      7803.73
  317.29        2956.00           2229        1768.00      7707.77
  317.32        2956.25           2232        1763.00      7685.97
  317.35        2956.50           2236        1795.00      7825.53
  317.38        2956.75           2239        1798.00      7838.62
  317.41        2957.00           2243        1764.00      7690.33
  317.44        2957.25           2246        1823.00      7947.66
  317.47        2957.50           2250        1820.00      7934.57
  317.50        2957.75           2254        1871.00      8157.01
  317.54        2958.00           2257        1851.00      8069.78
  317.57        2958.25           2261        1828.00      7969.47
  317.60        2958.50           2264        1882.00      8204.99
  317.63        2958.75           2268        1929.00      8409.99
  317.66        2959.00           2271        1933.00      8427.44
  317.69        2959.25           2275        1985.00      8654.25
  317.72        2959.50           2278        2019.00      8802.55
  317.75        2959.75           2282        1986.00      8658.61
  317.78        2960.00           2285        2019.00      8802.55
  317.81        2960.25           2289        2019.00      8802.55
  317.84        2960.50           2293        2086.00      9094.79
  317.87        2960.75           2296        2086.00      9094.79
  317.90        2961.00           2300        2193.00      9561.52
  317.93        2961.25           2303        2654.00     11572.56
  317.96        2961.50           2307        7929.00     34603.46
  317.99        2961.75           2310       17495.00     76461.38
  318.02        2962.00           2314       33466.00    146612.60
  318.06        2962.25           2317       46548.00    204325.20
  318.09        2962.50           2321       69071.00    304223.50
  318.12        2962.75           2324       86364.00    381390.20
  318.15        2963.00           2328      108355.00    480113.30
  318.18        2963.25           2331      121442.00    539182.80
  318.21        2963.50           2335      141257.00    629078.30
  318.24        2963.75           2339      162797.00    727433.80
  318.27        2964.00           2342      178329.00    798771.50
  318.30        2964.25           2346      200026.00    899015.70
  318.33        2964.50           2349      216964.00    977757.80
  318.36        2964.75           2353      237581.00   1074185.00
  318.39        2965.00           2356      252633.00   1144994.00
  318.42        2965.25           2360      272438.00   1238695.00
  318.45        2965.50           2363      285767.00   1302102.00
  318.48        2965.75           2367      303528.00   1387030.00
  318.51        2966.00           2370      318390.00   1458484.00
  318.54        2966.25           2374      336502.00   1546048.00
  318.58        2966.50           2378      350942.00   1616244.00
  318.61        2966.75           2381      354555.00   1633862.00
  318.64        2967.00           2385      355657.00   1639240.00
  318.67        2967.25           2388      356209.00   1641935.00
  318.70        2967.50           2392      355716.00   1639528.00
  318.73        2967.75           2395      354890.00   1635497.00
  318.76        2968.00           2399      348065.00   1602231.00
  318.79        2968.25           2402      336571.00   1546382.00
  318.82        2968.50           2406      319510.00   1463883.00
  318.85        2968.75           2409      306107.00   1399404.00
  318.88        2969.00           2413      288557.00   1315410.00
  318.91        2969.25           2417      268759.00   1221243.00
  318.94        2969.50           2420      254868.00   1155538.00
  318.97        2969.75           2424      233788.00   1056397.00
  319.00        2970.00           2427      217715.00    981258.90
  319.03        2970.25           2431      195187.00    876598.40
  319.06        2970.50           2434      180002.00    806476.40
  319.10        2970.75           2438      158968.00    709901.20
  319.13        2971.00           2441      144715.00    644823.40
  319.16        2971.25           2445      125258.00    556451.90
  319.19        2971.50           2449      104241.00    461593.70
  319.22        2971.75           2452       87282.00    385498.00
  319.25        2972.00           2456       64883.00    285596.30
  319.28        2972.25           2459       49893.00    219118.50
  319.31        2972.50           2463       31155.00    136441.00
  319.34        2972.75           2466       18099.00     79108.31
  319.37        2973.00           2470        6168.00     26910.84
  319.40        2973.25           2473        3110.00     13562.05
  319.43        2973.50           2477        2141.00      9334.70
  319.46        2973.75           2481        2016.00      8789.46
  319.49        2974.00           2484        1981.00      8636.80
  319.52        2974.25           2488        1894.00      8257.33
  319.55        2974.50           2491        1950.00      8501.59
  319.58        2974.75           2495        1933.00      8427.44
  319.62        2975.00           2498        1804.00      7864.79
  319.65        2975.25           2502        1863.00      8122.12
  319.68        2975.50           2505        1814.00      7908.40
  319.71        2975.75           2509        1796.00      7829.90
  319.74        2976.00           2512        1752.00      7637.99
  319.77        2976.25           2516        1712.00      7463.53
  319.80        2976.50           2520        1754.00      7646.71
  319.83        2976.75           2523        1684.00      7341.41
  319.86        2977.00           2527        1657.00      7223.66
  319.89        2977.25           2530        1637.00      7136.43
  319.92        2977.50           2534        1639.00      7145.15
  319.95        2977.75           2537        1653.00      7206.21
  319.98        2978.00           2541        1638.00      7140.79
  320.01        2978.25           2544        1577.00      6874.75
  320.04        2978.50           2548        1585.00      6909.64
  320.07        2978.75           2552        1619.00      7057.93
  320.10        2979.00           2555        1589.00      6927.09
  320.14        2979.25           2559        1538.00      6704.67
  320.17        2979.50           2562        1575.00      6866.03
  320.20        2979.75           2566        1538.00      6704.67
  320.23        2980.00           2569        1549.00      6752.64
  320.26        2980.25           2573        1538.00      6704.67
  320.29        2980.50           2577        1556.00      6783.17
  320.32        2980.75           2580        1460.00      6364.50
  320.35        2981.00           2584        1531.00      6674.14
  320.38        2981.25           2587        1501.00      6543.30
  320.41        2981.50           2591        1506.00      6565.11
  320.44        2981.75           2594        1514.00      6600.00
  320.47        2982.00           2598        1534.00      6687.22
  320.50        2982.25           2601        1512.00      6591.28
  320.53        2982.50           2605        1466.00      6390.67
  320.56        2982.75           2609        1477.00      6438.64
  320.59        2983.00           2612        1487.00      6482.25
  320.62        2983.25           2616        1445.00      6299.08
  320.66        2983.50           2619        1426.00      6216.22
  320.69        2983.75           2623        1434.00      6251.11
  320.72        2984.00           2626        1457.00      6351.42
HS scan finished at 05:20:56
end
************************************************************
  HS Scan of (1) Internal mercury lamp
************************************************************
Integration time is 0.2294 seconds per sample
dh271218Reading 51.44 .94 2.74pr1000
************************************************************
Dead Time -------------------------  3.4E-08 
Number of Cycles Used -------------  4 
Starting Wavelength (Angstroms) ---  2950 
Final Wavelength (Angstoms) -------  2984 
Wavelength Increment (Angstroms) --  .25 
Filter Wheel #1 Position ---------- (1) Ground quartz diffuser (ND=2.32)
Filter Wheel #2 Position ---------- (1) Neutral Density 0.494



************************************************************
HS scan start time = 17:07:27
Dark Count =  .6 


Time (GMT)  Wavelength (Ang)  Step Number  Raw Counts  Counts/Second

 1028.35        2950.00           2144        1043.00      4544.73
 1028.55        2950.25           2147        1044.00      4549.09
 1028.58        2950.50           2151        1067.00      4649.38
 1028.61        2950.75           2155        1032.00      4496.76
 1028.64        2951.00           2158        1047.00      4562.17
 1028.67        2951.25           2162        1051.00      4579.61
 1028.70        2951.50           2165        1042.00      4540.37
 1028.73        2951.75           2169        1054.00      4592.70
 1028.76        2952.00           2172        1039.00      4527.29
 1028.79        2952.25           2176        1043.00      4544.73
 1028.82        2952.50           2179        1068.00      4653.74
 1028.85        2952.75           2183        1014.00      4418.28
 1028.88        2953.00           2186        1063.00      4631.94
 1028.91        2953.25           2190        1048.00      4566.53
 1028.94        2953.50           2193        1047.00      4562.17
 1028.97        2953.75           2197        1065.00      4640.66
 1029.01        2954.00           2200        1098.00      4784.56
 1029.04        2954.25           2204        1106.00      4819.45
 1029.07        2954.50           2208        1073.00      4675.55
 1029.10        2954.75           2211        1083.00      4719.15
 1029.13        2955.00           2215        1078.00      4697.35
 1029.16        2955.25           2218        1122.00      4889.22
 1029.19        2955.50           2222        1097.00      4780.20
 1029.22        2955.75           2225        1135.00      4945.91
 1029.25        2956.00           2229        1109.00      4832.53
 1029.28        2956.25           2232        1129.00      4919.74
 1029.31        2956.50           2236        1116.00      4863.05
 1029.34        2956.75           2239        1122.00      4889.22
 1029.37        2957.00           2243        1122.00      4889.22
 1029.40        2957.25           2246        1177.00      5129.06
 1029.43        2957.50           2250        1178.00      5133.42
 1029.46        2957.75           2254        1147.00      4998.23
 1029.49        2958.00           2257        1137.00      4954.63
 1029.53        2958.25           2261        1189.00      5181.38
 1029.56        2958.50           2264        1197.00      5216.27
 1029.59        2958.75           2268        1229.00      5355.81
 1029.62        2959.00           2271        1186.00      5168.30
 1029.65        2959.25           2275        1233.00      5373.26
 1029.68        2959.50           2278        1216.00      5299.12
 1029.71        2959.75           2282        1268.00      5525.89
 1029.74        2960.00           2285        1265.00      5512.80
 1029.77        2960.25           2289        1346.00      5866.03
 1029.80        2960.50           2293        1296.00      5647.99
 1029.83        2960.75           2296        1302.00      5674.16
 1029.86        2961.00           2300        1362.00      5935.81
 1029.89        2961.25           2303        1485.00      6472.22
 1029.92        2961.50           2307        2633.00     11479.63
 1029.95        2961.75           2310        7229.00     31543.84
 1029.98        2962.00           2314       17093.00     74698.63
 1030.01        2962.25           2317       26173.00    114535.90
 1030.04        2962.50           2321       40769.00    178801.20
 1030.08        2962.75           2324       51696.00    227097.20
 1030.11        2963.00           2328       65320.00    287537.60
 1030.14        2963.25           2331       77321.00    340985.30
 1030.17        2963.50           2335       92992.00    411073.30
 1030.20        2963.75           2339      106670.00    472523.90
 1030.23        2964.00           2342      118321.00    525072.70
 1030.26        2964.25           2346      134912.00    600230.80
 1030.29        2964.50           2349      146817.00    654401.20
 1030.32        2964.75           2353      161326.00    720694.40
 1030.35        2965.00           2356      171866.00    769043.30
 1030.38        2965.25           2360      185650.00    832517.00
 1030.41        2965.50           2363      196419.00    882301.20
 1030.44        2965.75           2367      210299.00    946720.60
 1030.47        2966.00           2370      220323.00    993422.90
 1030.50        2966.25           2374      234207.00   1058359.00
 1030.53        2966.50           2378      244766.00   1107941.00
 1030.56        2966.75           2381      248112.00   1123688.00
 1030.60        2967.00           2385      250385.00   1134395.00
 1030.63        2967.25           2388      250164.00   1133354.00
 1030.66        2967.50           2392      250895.00   1136799.00
 1030.69        2967.75           2395      250091.00   1133010.00
 1030.72        2968.00           2399      248149.00   1123862.00
 1030.75        2968.25           2402      241656.00   1093320.00
 1030.78        2968.50           2406      229262.00   1035198.00
 1030.81        2968.75           2409      219706.00    990543.90
 1030.84        2969.00           2413      206595.00    929501.70
 1030.87        2969.25           2417      193319.00    867952.60
 1030.90        2969.50           2420      181604.00    813856.80
 1030.93        2969.75           2424      165859.00    741468.30
 1030.96        2970.00           2427      155390.00    693535.60
 1030.99        2970.25           2431      140209.00    624308.40
 1031.02        2970.50           2434      129479.00    575576.30
 1031.05        2970.75           2438      115121.00    510621.10
 1031.09        2971.00           2441      103888.00    460004.30
 1031.12        2971.25           2445       89650.00    396098.10
 1031.15        2971.50           2449       74999.00    330628.80
 1031.18        2971.75           2452       63886.00    281164.10
 1031.21        2972.00           2456       49047.00    215374.40
 1031.24        2972.25           2459       37696.00    165247.50
 1031.27        2972.50           2463       24179.00    105778.20
 1031.30        2972.75           2466       15636.00     68316.30
 1031.33        2973.00           2470        6344.00     27678.17
 1031.36        2973.25           2473        2856.00     12452.53
 1031.39        2973.50           2477        1535.00      6690.28
 1031.42        2973.75           2481        1372.00      5979.42
 1031.45        2974.00           2484        1298.00      5656.71
 1031.48        2974.25           2488        1312.00      5717.76
 1031.51        2974.50           2491        1285.00      5600.02
 1031.54        2974.75           2495        1251.00      5451.75
 1031.57        2975.00           2498        1235.00      5381.98
 1031.60        2975.25           2502        1224.00      5334.01
 1031.64        2975.50           2505        1160.00      5054.92
 1031.67        2975.75           2509        1203.00      5242.43
 1031.70        2976.00           2512        1178.00      5133.42
 1031.73        2976.25           2516        1179.00      5137.78
 1031.76        2976.50           2520        1187.00      5172.66
 1031.79        2976.75           2523        1164.00      5072.37
 1031.82        2977.00           2527        1136.00      4950.27
 1031.85        2977.25           2530        1137.00      4954.63
 1031.88        2977.50           2534        1173.00      5111.61
 1031.91        2977.75           2537        1112.00      4845.61
 1031.94        2978.00           2541        1088.00      4740.96
 1031.97        2978.25           2544        1079.00      4701.71
 1032.00        2978.50           2548        1084.00      4723.51
 1032.03        2978.75           2552        1080.00      4706.07
 1032.06        2979.00           2555        1054.00      4592.70
 1032.09        2979.25           2559        1039.00      4527.29
 1032.12        2979.50           2562        1054.00      4592.70
 1032.16        2979.75           2566        1051.00      4579.61
 1032.19        2980.00           2569        1051.00      4579.61
 1032.22        2980.25           2573        1057.00      4605.78
 1032.25        2980.50           2577        1018.00      4435.72
 1032.28        2980.75           2580        1042.00      4540.37
 1032.31        2981.00           2584        1014.00      4418.28
 1032.34        2981.25           2587         983.00      4283.10
 1032.37        2981.50           2591        1041.00      4536.01
 1032.40        2981.75           2594        1022.00      4453.16
 1032.43        2982.00           2598         963.00      4195.89
 1032.46        2982.25           2601         982.00      4278.74
 1032.49        2982.50           2605         991.00      4317.98
 1032.52        2982.75           2609        1005.00      4379.03
 1032.55        2983.00           2612         969.00      4222.05
 1032.58        2983.25           2616        1008.00      4392.11
 1032.61        2983.50           2619         965.00      4204.61
 1032.64        2983.75           2623         971.00      4230.77
 1032.68        2984.00           2626         961.00      4187.17
HS scan finished at 17:12:54
end
