************************************************************
  HS Scan of (1) Internal mercury lamp
************************************************************
Integration time is 0.2294 seconds per sample
dh311217Reading 51.44 .94 3.09pr1000
************************************************************
Dead Time -------------------------  3.4E-08 
Number of Cycles Used -------------  4 
Starting Wavelength (Angstroms) ---  2950 
Final Wavelength (Angstoms) -------  2984 
Wavelength Increment (Angstroms) --  .25 
Filter Wheel #1 Position ---------- (1) Ground quartz diffuser (ND=2.32)
Filter Wheel #2 Position ---------- (1) Neutral Density 0.494



************************************************************
HS scan start time = 05:16:20
Dark Count =  .8 


Time (GMT)  Wavelength (Ang)  Step Number  Raw Counts  Counts/Second

  317.24        2950.00           2144          75.00       323.46
  317.43        2950.25           2147          70.00       301.66
  317.46        2950.50           2151          74.00       319.10
  317.49        2950.75           2155          77.00       332.17
  317.52        2951.00           2158          72.00       310.38
  317.55        2951.25           2162          74.00       319.10
  317.58        2951.50           2165          73.00       314.74
  317.61        2951.75           2169          75.00       323.46
  317.65        2952.00           2172          73.00       314.74
  317.68        2952.25           2176          73.00       314.74
  317.71        2952.50           2179          85.00       367.05
  317.74        2952.75           2183          77.00       332.17
  317.77        2953.00           2186          79.00       340.89
  317.80        2953.25           2190          77.00       332.17
  317.83        2953.50           2193          78.00       336.53
  317.86        2953.75           2197          79.00       340.89
  317.89        2954.00           2200          73.00       314.74
  317.92        2954.25           2204          80.00       345.25
  317.95        2954.50           2208          76.00       327.82
  317.98        2954.75           2211          76.00       327.82
  318.01        2955.00           2215          95.00       410.64
  318.04        2955.25           2218          84.00       362.69
  318.07        2955.50           2222          83.00       358.33
  318.10        2955.75           2225          85.00       367.05
  318.13        2956.00           2229          74.00       319.10
  318.17        2956.25           2232          75.00       323.46
  318.20        2956.50           2236          83.00       358.33
  318.23        2956.75           2239          93.00       401.92
  318.26        2957.00           2243          89.00       384.49
  318.29        2957.25           2246          83.00       358.33
  318.32        2957.50           2250          77.00       332.17
  318.35        2957.75           2254          91.00       393.20
  318.38        2958.00           2257          84.00       362.69
  318.41        2958.25           2261          88.00       380.13
  318.44        2958.50           2264          91.00       393.20
  318.47        2958.75           2268          92.00       397.56
  318.50        2959.00           2271          94.00       406.28
  318.53        2959.25           2275          91.00       393.20
  318.56        2959.50           2278          91.00       393.20
  318.59        2959.75           2282         100.00       432.44
  318.62        2960.00           2285         100.00       432.44
  318.65        2960.25           2289          97.00       419.36
  318.69        2960.50           2293         106.00       458.59
  318.72        2960.75           2296         102.00       441.16
  318.75        2961.00           2300         142.00       615.53
  318.78        2961.25           2303         227.00       986.08
  318.81        2961.50           2307         831.00      3619.45
  318.84        2961.75           2310        1692.00      7374.12
  318.87        2962.00           2314        2924.00     12748.33
  318.90        2962.25           2317        3906.00     17033.40
  318.93        2962.50           2321        5283.00     23044.20
  318.96        2962.75           2324        6226.00     27161.96
  318.99        2963.00           2328        7702.00     33609.44
  319.02        2963.25           2331        8739.00     38140.97
  319.05        2963.50           2335       10109.00     44129.81
  319.08        2963.75           2339       11570.00     50519.14
  319.11        2964.00           2342       12833.00     56044.80
  319.14        2964.25           2346       14312.00     62518.11
  319.17        2964.50           2349       15500.00     67719.83
  319.20        2964.75           2353       16859.00     73672.54
  319.24        2965.00           2356       17798.00     77786.97
  319.27        2965.25           2360       19213.00     83989.28
  319.30        2965.50           2363       20209.00     88356.57
  319.33        2965.75           2367       21645.00     94655.49
  319.36        2966.00           2370       22725.00     99394.62
  319.39        2966.25           2374       23826.00    104227.50
  319.42        2966.50           2378       24700.00    108065.00
  319.45        2966.75           2381       25123.00    109922.70
  319.48        2967.00           2385       25018.00    109461.60
  319.51        2967.25           2388       24888.00    108890.60
  319.54        2967.50           2392       24737.00    108227.50
  319.57        2967.75           2395       24588.00    107573.20
  319.60        2968.00           2399       23704.00    103691.90
  319.63        2968.25           2402       22541.00     98587.09
  319.66        2968.50           2406       21295.00     93119.99
  319.69        2968.75           2409       20352.00     88983.72
  319.72        2969.00           2413       18916.00     82687.25
  319.76        2969.25           2417       17743.00     77545.94
  319.79        2969.50           2420       16488.00     72047.25
  319.82        2969.75           2424       14951.00     65315.78
  319.85        2970.00           2427       14236.00     62185.40
  319.88        2970.25           2431       12631.00     55160.90
  319.91        2970.50           2434       11478.00     50116.71
  319.94        2970.75           2438       10136.00     44247.87
  319.97        2971.00           2441        9006.00     39307.95
  320.00        2971.25           2445        7603.00     33176.90
  320.03        2971.50           2449        6006.00     26201.19
  320.06        2971.75           2452        4866.00     21223.68
  320.09        2972.00           2456        3489.00     15213.62
  320.12        2972.25           2459        2488.00     10846.20
  320.15        2972.50           2463        1309.00      5703.81
  320.18        2972.75           2466         618.00      2690.74
  320.21        2973.00           2470         196.00       850.94
  320.24        2973.25           2473         139.00       602.45
  320.28        2973.50           2477         121.00       523.98
  320.31        2973.75           2481         146.00       632.97
  320.34        2974.00           2484         129.00       558.86
  320.37        2974.25           2488         103.00       445.52
  320.40        2974.50           2491         108.00       467.31
  320.43        2974.75           2495          99.00       428.08
  320.46        2975.00           2498         110.00       476.03
  320.49        2975.25           2502         124.00       537.06
  320.52        2975.50           2505          90.00       388.85
  320.55        2975.75           2509         103.00       445.52
  320.58        2976.00           2512          90.00       388.85
  320.61        2976.25           2516          90.00       388.85
  320.64        2976.50           2520          93.00       401.92
  320.67        2976.75           2523          94.00       406.28
  320.70        2977.00           2527          86.00       371.41
  320.73        2977.25           2530          81.00       349.61
  320.76        2977.50           2534          86.00       371.41
  320.80        2977.75           2537          83.00       358.33
  320.83        2978.00           2541          84.00       362.69
  320.86        2978.25           2544          87.00       375.77
  320.89        2978.50           2548          90.00       388.85
  320.92        2978.75           2552          78.00       336.53
  320.95        2979.00           2555          83.00       358.33
  320.98        2979.25           2559          75.00       323.46
  321.01        2979.50           2562          81.00       349.61
  321.04        2979.75           2566          81.00       349.61
  321.07        2980.00           2569          81.00       349.61
  321.10        2980.25           2573         104.00       449.88
  321.13        2980.50           2577          75.00       323.46
  321.16        2980.75           2580          76.00       327.82
  321.19        2981.00           2584          76.00       327.82
  321.22        2981.25           2587          75.00       323.46
  321.25        2981.50           2591          78.00       336.53
  321.28        2981.75           2594          76.00       327.82
  321.32        2982.00           2598          76.00       327.82
  321.35        2982.25           2601          79.00       340.89
  321.38        2982.50           2605          80.00       345.25
  321.41        2982.75           2609          66.00       284.22
  321.44        2983.00           2612          79.00       340.89
  321.47        2983.25           2616          73.00       314.74
  321.50        2983.50           2619          79.00       340.89
  321.53        2983.75           2623          72.00       310.38
  321.56        2984.00           2626          76.00       327.82
HS scan finished at 05:21:47
end
************************************************************
  HS Scan of (1) Internal mercury lamp
************************************************************
Integration time is 0.2294 seconds per sample
dh311217Reading 51.44 .94 2.88pr1000
************************************************************
Dead Time -------------------------  3.4E-08 
Number of Cycles Used -------------  4 
Starting Wavelength (Angstroms) ---  2950 
Final Wavelength (Angstoms) -------  2984 
Wavelength Increment (Angstroms) --  .25 
Filter Wheel #1 Position ---------- (1) Ground quartz diffuser (ND=2.32)
Filter Wheel #2 Position ---------- (1) Neutral Density 0.494



************************************************************
HS scan start time = 17:07:27
Dark Count =  .6 


Time (GMT)  Wavelength (Ang)  Step Number  Raw Counts  Counts/Second

 1028.34        2950.00           2144          79.00       341.77
 1028.54        2950.25           2147          78.00       337.41
 1028.57        2950.50           2151          82.00       354.84
 1028.60        2950.75           2155          84.00       363.56
 1028.63        2951.00           2158         108.00       468.19
 1028.66        2951.25           2162          71.00       306.89
 1028.69        2951.50           2165          84.00       363.56
 1028.72        2951.75           2169          79.00       341.77
 1028.75        2952.00           2172          86.00       372.28
 1028.78        2952.25           2176          79.00       341.77
 1028.81        2952.50           2179          81.00       350.48
 1028.84        2952.75           2183          81.00       350.48
 1028.87        2953.00           2186          74.00       319.97
 1028.90        2953.25           2190          85.00       367.92
 1028.93        2953.50           2193          77.00       333.05
 1028.96        2953.75           2197          74.00       319.97
 1028.99        2954.00           2200          84.00       363.56
 1029.02        2954.25           2204          82.00       354.84
 1029.06        2954.50           2208          90.00       389.72
 1029.09        2954.75           2211          82.00       354.84
 1029.12        2955.00           2215          84.00       363.56
 1029.15        2955.25           2218          87.00       376.64
 1029.18        2955.50           2222          88.00       381.00
 1029.21        2955.75           2225          85.00       367.92
 1029.24        2956.00           2229         102.00       442.03
 1029.27        2956.25           2232          92.00       398.44
 1029.30        2956.50           2236          89.00       385.36
 1029.33        2956.75           2239          90.00       389.72
 1029.36        2957.00           2243          94.00       407.15
 1029.39        2957.25           2246         114.00       494.34
 1029.42        2957.50           2250          89.00       385.36
 1029.45        2957.75           2254          99.00       428.95
 1029.48        2958.00           2257         119.00       516.14
 1029.51        2958.25           2261          99.00       428.95
 1029.54        2958.50           2264         115.00       498.70
 1029.58        2958.75           2268          89.00       385.36
 1029.61        2959.00           2271         103.00       446.39
 1029.64        2959.25           2275          98.00       424.59
 1029.67        2959.50           2278         118.00       511.78
 1029.70        2959.75           2282         125.00       542.29
 1029.73        2960.00           2285         108.00       468.19
 1029.76        2960.25           2289          99.00       428.95
 1029.79        2960.50           2293         123.00       533.58
 1029.82        2960.75           2296         107.00       463.83
 1029.85        2961.00           2300         148.00       642.56
 1029.88        2961.25           2303         253.00      1100.30
 1029.91        2961.50           2307         891.00      3881.94
 1029.94        2961.75           2310        1619.00      7056.62
 1029.97        2962.00           2314        2733.00     11915.90
 1030.00        2962.25           2317        3618.00     15777.42
 1030.03        2962.50           2321        4797.00     20923.34
 1030.06        2962.75           2324        5741.00     25044.86
 1030.10        2963.00           2328        7116.00     31050.20
 1030.13        2963.25           2331        8426.00     36773.94
 1030.16        2963.50           2335        9675.00     42233.23
 1030.19        2963.75           2339       10979.00     47935.08
 1030.22        2964.00           2342       12022.00     52497.28
 1030.25        2964.25           2346       13757.00     60089.52
 1030.28        2964.50           2349       14885.00     65027.66
 1030.31        2964.75           2353       16509.00     72140.11
 1030.34        2965.00           2356       17581.00     76836.93
 1030.37        2965.25           2360       18846.00     82381.26
 1030.40        2965.50           2363       19736.00     86283.27
 1030.43        2965.75           2367       20905.00     91410.08
 1030.46        2966.00           2370       21794.00     95310.11
 1030.49        2966.25           2374       23017.00    100677.10
 1030.52        2966.50           2378       23810.00    104158.10
 1030.55        2966.75           2381       24053.00    105225.00
 1030.58        2967.00           2385       24087.00    105374.20
 1030.62        2967.25           2388       23970.00    104860.60
 1030.65        2967.50           2392       23978.00    104895.70
 1030.68        2967.75           2395       23633.00    103381.10
 1030.71        2968.00           2399       23250.00    101699.80
 1030.74        2968.25           2402       22350.00     97749.80
 1030.77        2968.50           2406       21000.00     91826.79
 1030.80        2968.75           2409       20238.00     88484.64
 1030.83        2969.00           2413       18838.00     82346.19
 1030.86        2969.25           2417       17449.00     76258.50
 1030.89        2969.50           2420       16545.00     72297.82
 1030.92        2969.75           2424       15323.00     66945.58
 1030.95        2970.00           2427       14242.00     62212.55
 1030.98        2970.25           2431       12546.00     54789.85
 1031.01        2970.50           2434       11392.00     49741.42
 1031.04        2970.75           2438        9874.00     43103.24
 1031.07        2971.00           2441        8793.00     38377.86
 1031.10        2971.25           2445        7442.00     32474.37
 1031.14        2971.50           2449        6063.00     26450.98
 1031.17        2971.75           2452        4881.00     21290.03
 1031.20        2972.00           2456        3450.00     15044.31
 1031.23        2972.25           2459        2513.00     10956.13
 1031.26        2972.50           2463        1378.00      6005.59
 1031.29        2972.75           2466         710.00      3092.74
 1031.32        2973.00           2470         237.00      1030.55
 1031.35        2973.25           2473         149.00       646.92
 1031.38        2973.50           2477         119.00       516.14
 1031.41        2973.75           2481         119.00       516.14
 1031.44        2974.00           2484         106.00       459.47
 1031.47        2974.25           2488         107.00       463.83
 1031.50        2974.50           2491         114.00       494.34
 1031.53        2974.75           2495          94.00       407.15
 1031.56        2975.00           2498         109.00       472.54
 1031.59        2975.25           2502         104.00       450.75
 1031.62        2975.50           2505         125.00       542.29
 1031.65        2975.75           2509         102.00       442.03
 1031.69        2976.00           2512         100.00       433.31
 1031.72        2976.25           2516          91.00       394.08
 1031.75        2976.50           2520          97.00       420.23
 1031.78        2976.75           2523          90.00       389.72
 1031.81        2977.00           2527          93.00       402.80
 1031.84        2977.25           2530         110.00       476.90
 1031.87        2977.50           2534          82.00       354.84
 1031.90        2977.75           2537          85.00       367.92
 1031.93        2978.00           2541         107.00       463.83
 1031.96        2978.25           2544          93.00       402.80
 1031.99        2978.50           2548          90.00       389.72
 1032.02        2978.75           2552          91.00       394.08
 1032.05        2979.00           2555          82.00       354.84
 1032.08        2979.25           2559          82.00       354.84
 1032.11        2979.50           2562          75.00       324.33
 1032.14        2979.75           2566          85.00       367.92
 1032.17        2980.00           2569          82.00       354.84
 1032.21        2980.25           2573          81.00       350.48
 1032.24        2980.50           2577          89.00       385.36
 1032.27        2980.75           2580          73.00       315.61
 1032.30        2981.00           2584          81.00       350.48
 1032.33        2981.25           2587          80.00       346.12
 1032.36        2981.50           2591          77.00       333.05
 1032.40        2981.75           2594          70.00       302.53
 1032.43        2982.00           2598          74.00       319.97
 1032.46        2982.25           2601          75.00       324.33
 1032.49        2982.50           2605          77.00       333.05
 1032.52        2982.75           2609          75.00       324.33
 1032.55        2983.00           2612          77.00       333.05
 1032.58        2983.25           2616          77.00       333.05
 1032.61        2983.50           2619          74.00       319.97
 1032.64        2983.75           2623          77.00       333.05
 1032.67        2984.00           2626          81.00       350.48
HS scan finished at 17:12:54
end
