************************************************************
  HS Scan of (1) Internal mercury lamp
************************************************************
Integration time is 0.2294 seconds per sample
dh311218Reading 51.44 .94 2.96pr1000
************************************************************
Dead Time -------------------------  3.4E-08 
Number of Cycles Used -------------  4 
Starting Wavelength (Angstroms) ---  2950 
Final Wavelength (Angstoms) -------  2984 
Wavelength Increment (Angstroms) --  .25 
Filter Wheel #1 Position ---------- (1) Ground quartz diffuser (ND=2.32)
Filter Wheel #2 Position ---------- (1) Neutral Density 0.494



************************************************************
HS scan start time = 05:16:26
Dark Count =  .7 


Time (GMT)  Wavelength (Ang)  Step Number  Raw Counts  Counts/Second

  317.33        2950.00           2144        1486.00      6476.14
  317.53        2950.25           2147        1485.00      6471.78
  317.56        2950.50           2151        1461.00      6367.12
  317.59        2950.75           2155        1491.00      6497.95
  317.62        2951.00           2158        1498.00      6528.48
  317.65        2951.25           2162        1519.00      6620.06
  317.68        2951.50           2165        1473.00      6419.45
  317.71        2951.75           2169        1471.00      6410.73
  317.74        2952.00           2172        1503.00      6550.28
  317.77        2952.25           2176        1506.00      6563.37
  317.80        2952.50           2179        1480.00      6449.98
  317.83        2952.75           2183        1502.00      6545.92
  317.86        2953.00           2186        1536.00      6694.20
  317.89        2953.25           2190        1514.00      6598.25
  317.92        2953.50           2193        1551.00      6759.62
  317.95        2953.75           2197        1542.00      6720.37
  317.98        2954.00           2200        1535.00      6689.84
  318.01        2954.25           2204        1557.00      6785.79
  318.05        2954.50           2208        1559.00      6794.51
  318.08        2954.75           2211        1590.00      6929.71
  318.11        2955.00           2215        1569.00      6838.12
  318.14        2955.25           2218        1602.00      6982.04
  318.17        2955.50           2222        1588.00      6920.98
  318.20        2955.75           2225        1580.00      6886.09
  318.23        2956.00           2229        1607.00      7003.85
  318.26        2956.25           2232        1611.00      7021.29
  318.29        2956.50           2236        1626.00      7086.71
  318.32        2956.75           2239        1665.00      7256.80
  318.35        2957.00           2243        1639.00      7143.41
  318.38        2957.25           2246        1651.00      7195.75
  318.41        2957.50           2250        1676.00      7304.78
  318.44        2957.75           2254        1703.00      7422.54
  318.47        2958.00           2257        1651.00      7195.75
  318.50        2958.25           2261        1705.00      7431.26
  318.53        2958.50           2264        1701.00      7413.81
  318.57        2958.75           2268        1758.00      7662.42
  318.60        2959.00           2271        1779.00      7754.01
  318.63        2959.25           2275        1777.00      7745.28
  318.66        2959.50           2278        1863.00      8120.38
  318.69        2959.75           2282        1834.00      7993.89
  318.72        2960.00           2285        1806.00      7871.77
  318.75        2960.25           2289        1905.00      8303.56
  318.78        2960.50           2293        1906.00      8307.93
  318.81        2960.75           2296        1964.00      8560.91
  318.84        2961.00           2300        2192.00      9555.42
  318.87        2961.25           2303        3354.00     14624.97
  318.90        2961.50           2307       10842.00     47335.49
  318.93        2961.75           2310       21927.00     95893.22
  318.96        2962.00           2314       40160.00    176113.80
  318.99        2962.25           2317       55953.00    245955.40
  319.02        2962.50           2321       76694.00    338187.60
  319.05        2962.75           2324       92617.00    409391.80
  319.09        2963.00           2328      115023.00    510178.30
  319.12        2963.25           2331      132705.00    590210.10
  319.15        2963.50           2335      157749.00    704322.10
  319.18        2963.75           2339      180566.00    809072.90
  319.21        2964.00           2342      196589.00    883087.90
  319.24        2964.25           2346      218093.00    983019.70
  319.27        2964.50           2349      234231.00   1058471.00
  319.30        2964.75           2353      257879.00   1169752.00
  319.33        2965.00           2356      275351.00   1252527.00
  319.36        2965.25           2360      295664.00   1349363.00
  319.39        2965.50           2363      310999.00   1422903.00
  319.42        2965.75           2367      330227.00   1515648.00
  319.45        2966.00           2370      344789.00   1586289.00
  319.48        2966.25           2374      364187.00   1680935.00
  319.51        2966.50           2378      377724.00   1747358.00
  319.54        2966.75           2381      381270.00   1764809.00
  319.57        2967.00           2385      383726.00   1776908.00
  319.61        2967.25           2388      383283.00   1774725.00
  319.64        2967.50           2392      383384.00   1775222.00
  319.67        2967.75           2395      382232.00   1769547.00
  319.70        2968.00           2399      376827.00   1742947.00
  319.73        2968.25           2402      368421.00   1701677.00
  319.76        2968.50           2406      349690.00   1610143.00
  319.79        2968.75           2409      333137.00   1529737.00
  319.82        2969.00           2413      310182.00   1418975.00
  319.85        2969.25           2417      287329.00   1309549.00
  319.88        2969.50           2420      272180.00   1237469.00
  319.91        2969.75           2424      251294.00   1138679.00
  319.94        2970.00           2427      232187.00   1048893.00
  319.97        2970.25           2431      207303.00    932790.90
  320.00        2970.50           2434      190307.00    854024.40
  320.03        2970.75           2438      166778.00    745683.10
  320.06        2971.00           2441      149157.00    665072.00
  320.09        2971.25           2445      126525.00    562188.30
  320.12        2971.50           2449      103664.00    458996.30
  320.16        2971.75           2452       85928.00    379437.80
  320.19        2972.00           2456       61890.00    272297.00
  320.22        2972.25           2459       45070.00    197791.70
  320.25        2972.50           2463       24460.00    107011.60
  320.28        2972.75           2466       12451.00     54373.75
  320.31        2973.00           2470        4450.00     19408.18
  320.34        2973.25           2473        2545.00     11095.29
  320.37        2973.50           2477        2029.00      8844.42
  320.40        2973.75           2481        1964.00      8560.91
  320.43        2974.00           2484        1924.00      8386.44
  320.46        2974.25           2488        1882.00      8203.25
  320.49        2974.50           2491        1847.00      8050.59
  320.52        2974.75           2495        1765.00      7692.94
  320.55        2975.00           2498        1810.00      7889.21
  320.58        2975.25           2502        1778.00      7749.65
  320.61        2975.50           2505        1771.00      7719.11
  320.64        2975.75           2509        1752.00      7636.25
  320.68        2976.00           2512        1674.00      7296.06
  320.71        2976.25           2516        1687.00      7352.75
  320.74        2976.50           2520        1624.00      7077.99
  320.77        2976.75           2523        1634.00      7121.60
  320.80        2977.00           2527        1620.00      7060.54
  320.83        2977.25           2530        1636.00      7130.33
  320.86        2977.50           2534        1586.00      6912.26
  320.89        2977.75           2537        1569.00      6838.12
  320.92        2978.00           2541        1589.00      6925.34
  320.95        2978.25           2544        1551.00      6759.62
  320.98        2978.50           2548        1564.00      6816.31
  321.01        2978.75           2552        1531.00      6672.39
  321.04        2979.00           2555        1547.00      6742.17
  321.07        2979.25           2559        1504.00      6554.64
  321.10        2979.50           2562        1507.00      6567.73
  321.13        2979.75           2566        1491.00      6497.95
  321.16        2980.00           2569        1503.00      6550.28
  321.20        2980.25           2573        1474.00      6423.81
  321.23        2980.50           2577        1473.00      6419.45
  321.26        2980.75           2580        1469.00      6402.00
  321.29        2981.00           2584        1433.00      6245.01
  321.32        2981.25           2587        1442.00      6284.26
  321.35        2981.50           2591        1432.00      6240.64
  321.38        2981.75           2594        1422.00      6197.03
  321.41        2982.00           2598        1400.00      6101.09
  321.44        2982.25           2601        1434.00      6249.37
  321.47        2982.50           2605        1416.00      6170.87
  321.50        2982.75           2609        1395.00      6079.29
  321.53        2983.00           2612        1389.00      6053.12
  321.56        2983.25           2616        1401.00      6105.45
  321.59        2983.50           2619        1374.00      5987.71
  321.62        2983.75           2623        1379.00      6009.51
  321.65        2984.00           2626        1415.00      6166.51
HS scan finished at 05:21:53
end
************************************************************
  HS Scan of (1) Internal mercury lamp
************************************************************
Integration time is 0.2294 seconds per sample
dh311218Reading 51.44 .94 3.01pr1000
************************************************************
Dead Time -------------------------  3.4E-08 
Number of Cycles Used -------------  4 
Starting Wavelength (Angstroms) ---  2950 
Final Wavelength (Angstoms) -------  2984 
Wavelength Increment (Angstroms) --  .25 
Filter Wheel #1 Position ---------- (1) Ground quartz diffuser (ND=2.32)
Filter Wheel #2 Position ---------- (1) Neutral Density 0.494



************************************************************
HS scan start time = 17:07:27
Dark Count =  .9 


Time (GMT)  Wavelength (Ang)  Step Number  Raw Counts  Counts/Second

 1028.35        2950.00           2144        1391.00      6060.97
 1028.55        2950.25           2147        1408.00      6135.11
 1028.58        2950.50           2151        1407.00      6130.75
 1028.61        2950.75           2155        1419.00      6183.08
 1028.64        2951.00           2158        1426.00      6213.61
 1028.67        2951.25           2162        1450.00      6318.27
 1028.70        2951.50           2165        1432.00      6239.77
 1028.73        2951.75           2169        1462.00      6370.60
 1028.76        2952.00           2172        1461.00      6366.24
 1028.79        2952.25           2176        1434.00      6248.49
 1028.82        2952.50           2179        1453.00      6331.35
 1028.85        2952.75           2183        1447.00      6305.19
 1028.88        2953.00           2186        1459.00      6357.52
 1028.91        2953.25           2190        1461.00      6366.24
 1028.94        2953.50           2193        1495.00      6514.52
 1028.97        2953.75           2197        1478.00      6440.38
 1029.00        2954.00           2200        1480.00      6449.10
 1029.03        2954.25           2204        1478.00      6440.38
 1029.07        2954.50           2208        1479.00      6444.74
 1029.10        2954.75           2211        1530.00      6667.16
 1029.13        2955.00           2215        1448.00      6309.55
 1029.16        2955.25           2218        1506.00      6562.49
 1029.19        2955.50           2222        1468.00      6396.77
 1029.22        2955.75           2225        1543.00      6723.86
 1029.25        2956.00           2229        1547.00      6741.30
 1029.28        2956.25           2232        1535.00      6688.97
 1029.31        2956.50           2236        1512.00      6588.66
 1029.34        2956.75           2239        1551.00      6758.75
 1029.37        2957.00           2243        1546.00      6736.94
 1029.40        2957.25           2246        1565.00      6819.80
 1029.43        2957.50           2250        1582.00      6893.94
 1029.46        2957.75           2254        1604.00      6989.89
 1029.49        2958.00           2257        1619.00      7055.31
 1029.52        2958.25           2261        1620.00      7059.67
 1029.55        2958.50           2264        1696.00      7391.13
 1029.58        2958.75           2268        1679.00      7316.99
 1029.62        2959.00           2271        1672.00      7286.46
 1029.65        2959.25           2275        1702.00      7417.30
 1029.68        2959.50           2278        1651.00      7194.87
 1029.71        2959.75           2282        1784.00      7774.94
 1029.74        2960.00           2285        1717.00      7482.72
 1029.77        2960.25           2289        1756.00      7652.82
 1029.80        2960.50           2293        1760.00      7670.27
 1029.83        2960.75           2296        1830.00      7975.57
 1029.86        2961.00           2300        1920.00      8368.12
 1029.89        2961.25           2303        2086.00      9092.18
 1029.92        2961.50           2307        4576.00     19957.31
 1029.95        2961.75           2310       12219.00     53357.83
 1029.98        2962.00           2314       26373.00    115413.20
 1030.01        2962.25           2317       39584.00    173571.90
 1030.04        2962.50           2321       59728.00    262698.20
 1030.07        2962.75           2324       76222.00    336081.30
 1030.11        2963.00           2328       98694.00    436657.70
 1030.14        2963.25           2331      115839.00    513861.10
 1030.17        2963.50           2335      137998.00    614252.10
 1030.20        2963.75           2339      157425.00    702839.10
 1030.23        2964.00           2342      173973.00    778726.40
 1030.26        2964.25           2346      197311.00    886431.00
 1030.29        2964.50           2349      214124.00    964522.20
 1030.32        2964.75           2353      235414.00   1064017.00
 1030.35        2965.00           2356      249979.00   1132481.00
 1030.38        2965.25           2360      268744.00   1221169.00
 1030.41        2965.50           2363      283014.00   1288980.00
 1030.44        2965.75           2367      303503.00   1386907.00
 1030.47        2966.00           2370      319017.00   1461503.00
 1030.50        2966.25           2374      338660.00   1556513.00
 1030.53        2966.50           2378      354670.00   1634421.00
 1030.56        2966.75           2381      360180.00   1661332.00
 1030.59        2967.00           2385      363447.00   1677312.00
 1030.63        2967.25           2388      363858.00   1679324.00
 1030.66        2967.50           2392      364487.00   1682403.00
 1030.69        2967.75           2395      364137.00   1680689.00
 1030.72        2968.00           2399      362457.00   1672468.00
 1030.75        2968.25           2402      355961.00   1640721.00
 1030.78        2968.50           2406      339584.00   1560998.00
 1030.81        2968.75           2409      326937.00   1499735.00
 1030.84        2969.00           2413      309313.00   1414798.00
 1030.87        2969.25           2417      290906.00   1326621.00
 1030.90        2969.50           2420      275946.00   1255353.00
 1030.93        2969.75           2424      252867.00   1146095.00
 1030.96        2970.00           2427      235498.00   1064411.00
 1030.99        2970.25           2431      214836.00    967838.60
 1031.02        2970.50           2434      198968.00    894108.60
 1031.05        2970.75           2438      177196.00    793552.90
 1031.08        2971.00           2441      160812.00    718339.30
 1031.11        2971.25           2445      138073.00    614593.00
 1031.14        2971.50           2449      112065.00    496831.80
 1031.18        2971.75           2452       93955.00    415390.00
 1031.21        2972.00           2456       71682.00    315845.80
 1031.24        2972.25           2459       54896.00    241269.70
 1031.27        2972.50           2463       34615.00    151669.80
 1031.30        2972.75           2466       21641.00     94637.50
 1031.33        2973.00           2470        8203.00     35798.12
 1031.36        2973.25           2473        3856.00     16814.75
 1031.39        2973.50           2477        2160.00      9414.96
 1031.42        2973.75           2481        1932.00      8420.46
 1031.45        2974.00           2484        1814.00      7905.79
 1031.48        2974.25           2488        1838.00      8010.46
 1031.51        2974.50           2491        1755.00      7648.46
 1031.54        2974.75           2495        1747.00      7613.57
 1031.57        2975.00           2498        1748.00      7617.93
 1031.60        2975.25           2502        1734.00      7556.87
 1031.63        2975.50           2505        1659.00      7229.76
 1031.67        2975.75           2509        1662.00      7242.85
 1031.70        2976.00           2512        1627.00      7090.20
 1031.73        2976.25           2516        1647.00      7177.43
 1031.76        2976.50           2520        1637.00      7133.81
 1031.79        2976.75           2523        1574.00      6859.05
 1031.82        2977.00           2527        1542.00      6719.50
 1031.85        2977.25           2530        1573.00      6854.69
 1031.88        2977.50           2534        1565.00      6819.80
 1031.91        2977.75           2537        1527.00      6654.08
 1031.94        2978.00           2541        1526.00      6649.72
 1031.97        2978.25           2544        1523.00      6636.63
 1032.00        2978.50           2548        1516.00      6606.10
 1032.03        2978.75           2552        1484.00      6466.55
 1032.06        2979.00           2555        1456.00      6344.44
 1032.09        2979.25           2559        1469.00      6401.13
 1032.12        2979.50           2562        1435.00      6252.86
 1032.15        2979.75           2566        1432.00      6239.77
 1032.18        2980.00           2569        1431.00      6235.41
 1032.22        2980.25           2573        1382.00      6021.72
 1032.25        2980.50           2577        1417.00      6174.36
 1032.28        2980.75           2580        1401.00      6104.58
 1032.31        2981.00           2584        1401.00      6104.58
 1032.34        2981.25           2587        1395.00      6078.41
 1032.37        2981.50           2591        1395.00      6078.41
 1032.40        2981.75           2594        1387.00      6043.53
 1032.43        2982.00           2598        1345.00      5860.37
 1032.46        2982.25           2601        1395.00      6078.41
 1032.49        2982.50           2605        1366.00      5951.95
 1032.52        2982.75           2609        1368.00      5960.67
 1032.55        2983.00           2612        1375.00      5991.19
 1032.58        2983.25           2616        1332.00      5803.67
 1032.61        2983.50           2619        1338.00      5829.84
 1032.64        2983.75           2623        1338.00      5829.84
 1032.67        2984.00           2626        1295.00      5642.32
HS scan finished at 17:12:54
end
