************************************************************
HS Scan of 
************************************************************
Integration time is 0.2294 seconds per sample
dh17619El Arenosillo 37.1  6.73  2.94pr1000
************************************************************
Dead Time -------------------------  3.6E-8
Number of Cycles Used -------------  4
Starting Wavelength (Angstroms) ---  2950
Final Wavelength (Angstoms) -------  2984
Wavelength Increment (Angstroms) --  0.25
Filter Wheel #1 Position ---------- (1) Ground quartz diffuser (ND = 2.32)
Filter Wheel #2 Position ---------- (1) Neutral density 0.494
 
 
 
************************************************************
HS scan start time = 21:49:01
Dark Count =  0.95
 
 
Time (GMT)  Wavelength (Ang)  Step Number  Raw Counts  Counts/Second
 
1303.68        2950           2153           180.00         784.68         
1303.72        2950           2157           202.00         880.59         
1303.75        2951           2160           185.00         806.48         
1303.79        2951           2164           201.00         876.23         
1303.83        2951           2167           177.00         771.60         
1303.87        2951           2171           195.00         850.07         
1303.91        2952           2174           206.00         898.02         
1303.95        2952           2178           199.00         867.51         
1303.99        2952           2181           186.00         810.83         
1304.03        2952           2185           196.00         854.43         
1304.07        2953           2188           197.00         858.79         
1304.11        2953           2192           194.00         845.71         
1304.15        2953           2195           199.00         867.51         
1304.19        2953           2199           188.00         819.55         
1304.23        2954           2202           190.00         828.27         
1304.27        2954           2206           198.00         863.15         
1304.30        2954           2209           202.00         880.59         
1304.34        2954           2213           197.00         858.79         
1304.38        2955           2216           205.00         893.66         
1304.42        2955           2220           201.00         876.23         
1304.46        2955           2223           216.00         941.62         
1304.50        2955           2227           215.00         937.26         
1304.54        2956           2230           215.00         937.26         
1304.58        2956           2234           217.00         945.98         
1304.62        2956           2237           215.00         937.26         
1304.66        2956           2241           204.00         889.30         
1304.70        2957           2244           215.00         937.26         
1304.74        2957           2248           200.00         871.87         
1304.78        2957           2251           218.00         950.34         
1304.82        2957           2255           222.00         967.78         
1304.86        2958           2258           214.00         932.90         
1304.89        2958           2262           222.00         967.78         
1304.93        2958           2265           215.00         937.26         
1304.97        2958           2269           245.00         1068.04        
1305.01        2959           2272           239.00         1041.89        
1305.05        2959           2276           235.00         1024.45        
1305.09        2959           2279           231.00         1007.01        
1305.13        2959           2283           252.00         1098.56        
1305.17        2960           2286           265.00         1155.24        
1305.21        2960           2290           253.00         1102.92        
1305.25        2960           2293           258.00         1124.72        
1305.29        2960           2297           269.00         1172.67        
1305.33        2961           2300           271.00         1181.39        
1305.37        2961           2304           312.00         1360.14        
1305.41        2961           2307           458.00         1996.66        
1305.45        2961           2311           991.00         4320.64        
1305.48        2962           2314           1810.00        7892.39        
1305.52        2962           2318           3312.00        14445.17       
1305.56        2962           2322           5565.00        24280.15       
1305.60        2962           2325           7181.00        31338.74       
1305.64        2963           2329           9129.00        39852.25       
1305.68        2963           2332           10741.00       46901.27       
1305.72        2963           2336           13097.00       57210.12       
1305.76        2963           2339           15021.00       65634.41       
1305.80        2964           2343           17437.00       76220.19       
1305.84        2964           2346           19596.00       85686.75       
1305.88        2964           2350           22635.00       99022.81       
1305.92        2964           2353           24554.00       107450.59      
1305.96        2965           2357           27471.00       120271.15      
1306.00        2965           2360           29231.00       128012.29      
1306.03        2965           2364           31878.00       139662.96      
1306.07        2965           2367           34182.00       149811.90      
1306.11        2966           2371           37386.00       163937.64      
1306.15        2966           2374           39458.00       173080.32      
1306.19        2966           2378           41769.00       183284.71      
1306.23        2966           2381           43099.00       189160.84      
1306.27        2967           2385           44542.00       195539.04      
1306.31        2967           2388           45062.00       197838.21      
1306.35        2967           2392           45646.00       200420.81      
1306.39        2967           2395           45566.00       200067.00      
1306.43        2968           2399           45595.00       200195.25      
1306.47        2968           2402           45153.00       198240.60      
1306.51        2968           2406           43884.00       192630.25      
1306.55        2968           2409           43185.00       189540.89      
1306.59        2969           2413           41592.00       182502.89      
1306.62        2969           2416           39890.00       174987.28      
1306.66        2969           2420           37636.00       165040.45      
1306.70        2969           2423           35717.00       156577.58      
1306.74        2970           2427           33180.00       145397.25      
1306.78        2970           2430           31144.00       136431.30      
1306.82        2970           2434           28219.00       123560.61      
1306.86        2970           2438           25825.00       113035.32      
1306.90        2971           2441           24045.00       105214.68      
1306.94        2971           2445           21313.00       93219.90       
1306.98        2971           2448           18993.00       83042.13       
1307.02        2971           2452           16014.00       69984.29       
1307.06        2972           2455           14005.00       61185.19       
1307.10        2972           2459           11587.00       50602.12       
1307.14        2972           2462           9490.00        41430.54       
1307.18        2972           2466           7051.00        30770.77       
1307.21        2973           2469           5249.00        22900.30       
1307.25        2973           2473           3177.00        13856.08       
1307.29        2973           2476           1942.00        8468.14        
1307.33        2973           2480           995.00         4338.08        
1307.37        2974           2483           694.00         3025.61        
1307.41        2974           2487           456.00         1987.94        
1307.45        2974           2490           347.00         1512.72        
1307.49        2974           2494           301.00         1312.18        
1307.53        2975           2497           278.00         1211.91        
1307.57        2975           2501           269.00         1172.67        
1307.61        2975           2504           262.00         1142.16        
1307.65        2975           2508           276.00         1203.19        
1307.69        2976           2511           240.00         1046.25        
1307.73        2976           2515           241.00         1050.61        
1307.77        2976           2519           241.00         1050.61        
1307.80        2976           2522           229.00         998.29         
1307.84        2977           2526           233.00         1015.73        
1307.88        2977           2529           241.00         1050.61        
1307.92        2977           2533           217.00         945.98         
1307.96        2977           2536           201.00         876.23         
1308.00        2978           2540           240.00         1046.25        
1308.04        2978           2543           212.00         924.18         
1308.08        2978           2547           207.00         902.38         
1308.12        2978           2550           186.00         810.83         
1308.16        2979           2554           205.00         893.66         
1308.20        2979           2557           200.00         871.87         
1308.24        2979           2561           206.00         898.02         
1308.28        2979           2564           190.00         828.27         
1308.32        2980           2568           201.00         876.23         
1308.36        2980           2571           210.00         915.46         
1308.39        2980           2575           201.00         876.23         
1308.43        2980           2578           208.00         906.74         
1308.47        2981           2582           196.00         854.43         
1308.51        2981           2586           198.00         863.15         
1308.55        2981           2589           207.00         902.38         
1308.59        2981           2593           184.00         802.12         
1308.63        2982           2596           207.00         902.38         
1308.67        2982           2600           193.00         841.35         
1308.71        2982           2603           189.00         823.91         
1308.75        2982           2607           188.00         819.55         
1308.79        2983           2610           188.00         819.55         
1308.83        2983           2614           191.00         832.63         
1308.87        2983           2617           180.00         784.68         
1308.91        2983           2621           189.00         823.91         
1308.94        2984           2624           173.00         754.16         
1308.98        2984           2628           188.00         819.55         
1309.02        2984           2631           183.00         797.76         
HS scan finished at 21:49:01
end
