************************************************************
  HL Scan of (1) Internal mercury lamp
************************************************************
Integration time is 0.2294 seconds per sample
dh170519Izana 28.3081 16.4992 2.857833pr770
************************************************************
Dead Time -------------------------  2.7E-08 
Number of Cycles Used -------------  4 
Starting Wavelength (Angstroms) ---  3331 
Final Wavelength (Angstoms) -------  3351 
Wavelength Increment (Angstroms) --  .25 
Filter Wheel #1 Position ---------- (1) Ground quartz diffuser (ND=2.32)
Filter Wheel #2 Position ---------- 



************************************************************
HL scan start time = 04:30:07
Dark Count =  5.7 


Time (GMT)  Wavelength (Ang)  Step Number  Raw Counts  Counts/Second

  270.60        3331.00           6593          45.00       171.32
  270.82        3331.25           6597          45.00       171.32
  270.86        3331.50           6600          43.00       162.60
  270.89        3331.75           6604          38.00       140.80
  270.92        3332.00           6608          43.00       162.60
  270.95        3332.25           6612          38.00       140.80
  270.98        3332.50           6615          41.00       153.88
  271.01        3332.75           6619          42.00       158.24
  271.05        3333.00           6623          39.00       145.16
  271.08        3333.25           6627          47.00       180.04
  271.11        3333.50           6630          56.00       219.27
  271.14        3333.75           6634          44.00       166.96
  271.17        3334.00           6638          66.00       262.86
  271.20        3334.25           6642          82.00       332.61
  271.23        3334.50           6645          97.00       398.00
  271.27        3334.75           6649         115.00       476.47
  271.30        3335.00           6653         129.00       537.50
  271.33        3335.25           6656         147.00       615.96
  271.36        3335.50           6660         157.00       659.56
  271.39        3335.75           6664         193.00       816.50
  271.42        3336.00           6668         440.00      1893.30
  271.45        3336.25           6671        1028.00      4456.95
  271.49        3336.50           6675        1974.00      8582.20
  271.52        3336.75           6679        3289.00     14318.09
  271.55        3337.00           6683        4860.00     21172.95
  271.58        3337.25           6686        5575.00     24293.61
  271.61        3337.50           6690        6740.00     29379.44
  271.65        3337.75           6694        8059.00     35139.26
  271.68        3338.00           6698        9718.00     42386.32
  271.71        3338.25           6701       11160.00     48687.77
  271.74        3338.50           6705       13312.00     58095.86
  271.77        3338.75           6709       14758.00     64420.15
  271.80        3339.00           6712       16392.00     71569.30
  271.84        3339.25           6716       18048.00     78817.52
  271.87        3339.50           6720       19462.00     85008.76
  271.90        3339.75           6724       20814.00     90930.47
  271.93        3340.00           6727       21618.00     94452.87
  271.96        3340.25           6731       22943.00    100259.30
  271.99        3340.50           6735       23928.00    104576.90
  272.03        3340.75           6739       25201.00    110158.50
  272.06        3341.00           6742       26214.00    114601.20
  272.09        3341.25           6746       27138.00    118654.60
  272.12        3341.50           6750       27563.00    120519.30
  272.15        3341.75           6754       27263.00    119203.00
  272.19        3342.00           6757       26482.00    115776.80
  272.22        3342.25           6761       24939.00    109009.60
  272.25        3342.50           6765       23052.00    100737.00
  272.28        3342.75           6769       21598.00     94365.24
  272.31        3343.00           6772       20841.00     91048.75
  272.34        3343.25           6776       20032.00     87505.11
  272.37        3343.50           6780       18356.00     80165.93
  272.41        3343.75           6784       16877.00     73691.82
  272.44        3344.00           6787       15886.00     69355.13
  272.47        3344.25           6791       14419.00     62937.29
  272.50        3344.50           6795       12886.00     56233.09
  272.53        3344.75           6799       11375.00     49627.48
  272.57        3345.00           6802       10140.00     44230.21
  272.60        3345.25           6806        8548.00     37275.08
  272.63        3345.50           6810        7039.00     30684.96
  272.66        3345.75           6814        5482.00     23887.68
  272.69        3346.00           6817        3874.00     16870.37
  272.73        3346.25           6821        2817.00     12259.07
  272.76        3346.50           6825        1446.00      6279.62
  272.79        3346.75           6828         714.00      3087.88
  272.82        3347.00           6832         311.00      1330.91
  272.85        3347.25           6836         128.00       533.14
  272.89        3347.50           6840          93.00       380.56
  272.92        3347.75           6843          79.00       319.53
  272.95        3348.00           6847          72.00       289.02
  272.98        3348.25           6851          54.00       210.55
  273.01        3348.50           6855          54.00       210.55
  273.04        3348.75           6858          54.00       210.55
  273.08        3349.00           6862          53.00       206.19
  273.11        3349.25           6866          50.00       193.11
  273.14        3349.50           6870          40.00       149.52
  273.17        3349.75           6873          40.00       149.52
  273.20        3350.00           6877          36.00       132.08
  273.23        3350.25           6881          46.00       175.68
  273.26        3350.50           6885          45.00       171.32
  273.30        3350.75           6888          57.00       223.63
  273.33        3351.00           6892          42.00       158.24
HL scan finished at 04:34:10
end
************************************************************
  HL Scan of (1) Internal mercury lamp
************************************************************
Integration time is 0.2294 seconds per sample
dh170519Izana 28.3081 16.4992 2.911481pr770
************************************************************
Dead Time -------------------------  2.7E-08 
Number of Cycles Used -------------  4 
Starting Wavelength (Angstroms) ---  3331 
Final Wavelength (Angstoms) -------  3351 
Wavelength Increment (Angstroms) --  .25 
Filter Wheel #1 Position ---------- (1) Ground quartz diffuser (ND=2.32)
Filter Wheel #2 Position ---------- 



************************************************************
HL scan start time = 21:41:22
Dark Count =  9.8 


Time (GMT)  Wavelength (Ang)  Step Number  Raw Counts  Counts/Second

 1301.86        3331.00           6593          49.00       170.88
 1302.08        3331.25           6597          46.00       157.80
 1302.11        3331.50           6600          35.00       109.85
 1302.14        3331.75           6604          50.00       175.24
 1302.17        3332.00           6608          43.00       144.73
 1302.21        3332.25           6612          40.00       131.65
 1302.24        3332.50           6615          43.00       144.73
 1302.27        3332.75           6619          44.00       149.09
 1302.30        3333.00           6623          43.00       144.73
 1302.33        3333.25           6627          51.00       179.60
 1302.36        3333.50           6630          43.00       144.73
 1302.39        3333.75           6634          53.00       188.32
 1302.43        3334.00           6638          62.00       227.55
 1302.46        3334.25           6642          78.00       297.30
 1302.49        3334.50           6645         105.00       415.00
 1302.52        3334.75           6649         193.00       798.62
 1302.55        3335.00           6653         144.00       585.01
 1302.58        3335.25           6656         156.00       637.33
 1302.61        3335.50           6660         178.00       733.23
 1302.65        3335.75           6664         194.00       802.98
 1302.68        3336.00           6668         563.00      2411.67
 1302.71        3336.25           6671        1318.00      5703.58
 1302.74        3336.50           6675        2529.00     10984.95
 1302.77        3336.75           6679        3989.00     17354.25
 1302.81        3337.00           6683        5328.00     23197.61
 1302.84        3337.25           6686        5966.00     25982.48
 1302.87        3337.50           6690        7073.00     30815.52
 1302.90        3337.75           6694        8259.00     35994.87
 1302.93        3338.00           6698       10071.00     43910.80
 1302.97        3338.25           6701       11633.00     50737.29
 1303.00        3338.50           6705       13637.00     59499.17
 1303.03        3338.75           6709       15573.00     67967.68
 1303.06        3339.00           6712       16857.00     73586.34
 1303.09        3339.25           6716       18443.00     80528.87
 1303.12        3339.50           6720       20023.00     87447.74
 1303.16        3339.75           6724       21667.00     94649.59
 1303.19        3340.00           6727       22750.00     99395.42
 1303.22        3340.25           6731       24064.00    105155.20
 1303.25        3340.50           6735       24841.00    108561.90
 1303.28        3340.75           6739       25597.00    111877.10
 1303.32        3341.00           6742       26698.00    116706.30
 1303.35        3341.25           6746       27461.00    120053.70
 1303.38        3341.50           6750       28057.00    122668.90
 1303.41        3341.75           6754       27606.00    120689.90
 1303.44        3342.00           6757       26965.00    117877.60
 1303.47        3342.25           6761       25595.00    111868.40
 1303.51        3342.50           6765       23694.00    103533.10
 1303.54        3342.75           6769       22067.00     96402.29
 1303.57        3343.00           6772       21289.00     92993.44
 1303.60        3343.25           6776       20381.00     89015.78
 1303.63        3343.50           6780       18858.00     82345.91
 1303.66        3343.75           6784       17408.00     75997.99
 1303.70        3344.00           6787       16239.00     70881.83
 1303.73        3344.25           6791       14853.00     64817.79
 1303.76        3344.50           6795       13319.00     58108.53
 1303.79        3344.75           6799       11583.00     50518.74
 1303.82        3345.00           6802       10348.00     45121.20
 1303.85        3345.25           6806        8680.00     37833.75
 1303.89        3345.50           6810        7069.00     30798.05
 1303.92        3345.75           6814        5589.00     24336.83
 1303.95        3346.00           6817        3947.00     17170.99
 1303.98        3346.25           6821        2871.00     12476.74
 1304.01        3346.50           6825        1383.00      5987.02
 1304.05        3346.75           6828         683.00      2934.84
 1304.08        3347.00           6832         271.00      1138.66
 1304.11        3347.25           6836         109.00       432.44
 1304.14        3347.50           6840          79.00       301.66
 1304.17        3347.75           6843          66.00       244.99
 1304.20        3348.00           6847          53.00       188.32
 1304.24        3348.25           6851          59.00       214.47
 1304.27        3348.50           6855          50.00       175.24
 1304.30        3348.75           6858          48.00       166.52
 1304.33        3349.00           6862          45.00       153.44
 1304.36        3349.25           6866          54.00       192.68
 1304.39        3349.50           6870          50.00       175.24
 1304.42        3349.75           6873          50.00       175.24
 1304.46        3350.00           6877          50.00       175.24
 1304.49        3350.25           6881          47.00       162.16
 1304.52        3350.50           6885          42.00       140.37
 1304.55        3350.75           6888          63.00       231.91
 1304.58        3351.00           6892          45.00       153.44
HL scan finished at 21:45:25
end
