************************************************************
  HL Scan of (1) Internal mercury lamp
************************************************************
Integration time is 0.2294 seconds per sample
dh160519Izana 28.3081 16.4992 2.857833pr770
************************************************************
Dead Time -------------------------  2.7E-08 
Number of Cycles Used -------------  4 
Starting Wavelength (Angstroms) ---  3331 
Final Wavelength (Angstoms) -------  3351 
Wavelength Increment (Angstroms) --  .25 
Filter Wheel #1 Position ---------- (1) Ground quartz diffuser (ND=2.32)
Filter Wheel #2 Position ---------- 



************************************************************
HL scan start time = 04:30:07
Dark Count =  5.6 


Time (GMT)  Wavelength (Ang)  Step Number  Raw Counts  Counts/Second

  270.60        3331.00           6593          41.00       154.32
  270.83        3331.25           6597          48.00       184.83
  270.86        3331.50           6600          44.00       167.39
  270.89        3331.75           6604          41.00       154.32
  270.92        3332.00           6608          43.00       163.03
  270.95        3332.25           6612          43.00       163.03
  270.98        3332.50           6615          45.00       171.75
  271.01        3332.75           6619          44.00       167.39
  271.05        3333.00           6623          44.00       167.39
  271.08        3333.25           6627          38.00       141.24
  271.11        3333.50           6630          46.00       176.11
  271.14        3333.75           6634          56.00       219.70
  271.17        3334.00           6638          76.00       306.89
  271.20        3334.25           6642          87.00       354.84
  271.23        3334.50           6645         114.00       472.54
  271.27        3334.75           6649         123.00       511.78
  271.30        3335.00           6653         150.00       629.48
  271.33        3335.25           6656         157.00       659.99
  271.36        3335.50           6660         188.00       795.13
  271.39        3335.75           6664         227.00       965.15
  271.42        3336.00           6668         576.00      2486.65
  271.46        3336.25           6671        1337.00      5804.75
  271.49        3336.50           6675        2528.00     10998.91
  271.52        3336.75           6679        3984.00     17350.76
  271.55        3337.00           6683        5204.00     22674.73
  271.58        3337.25           6686        5740.00     25014.27
  271.62        3337.50           6690        7062.00     30785.83
  271.65        3337.75           6694        8426.00     36742.63
  271.68        3338.00           6698       10206.00     44519.05
  271.71        3338.25           6701       11708.00     51083.49
  271.74        3338.50           6705       13814.00     60291.62
  271.77        3338.75           6709       15533.00     67811.06
  271.81        3339.00           6712       17114.00     74729.54
  271.84        3339.25           6716       18857.00     82359.93
  271.87        3339.50           6720       20486.00     89494.10
  271.90        3339.75           6724       21953.00     95921.18
  271.93        3340.00           6727       23039.00    100680.50
  271.96        3340.25           6731       24367.00    106502.00
  272.00        3340.50           6735       25074.00    109602.00
  272.03        3340.75           6739       26299.00    114974.50
  272.06        3341.00           6742       27231.00    119063.10
  272.09        3341.25           6746       28267.00    123608.90
  272.12        3341.50           6750       28636.00    125228.30
  272.15        3341.75           6754       28482.00    124552.40
  272.19        3342.00           6757       27819.00    121643.00
  272.22        3342.25           6761       26308.00    115014.00
  272.25        3342.50           6765       24163.00    105607.60
  272.28        3342.75           6769       22415.00     97945.69
  272.31        3343.00           6772       21408.00     93533.21
  272.35        3343.25           6776       20770.00     90738.16
  272.38        3343.50           6780       19432.00     84877.81
  272.41        3343.75           6784       17895.00     78148.16
  272.44        3344.00           6787       16665.00     72764.44
  272.47        3344.25           6791       14959.00     65299.86
  272.50        3344.50           6795       13424.00     58586.07
  272.54        3344.75           6799       11793.00     51455.05
  272.57        3345.00           6802       10597.00     46227.68
  272.60        3345.25           6806        8906.00     38839.32
  272.63        3345.50           6810        7242.00     31571.80
  272.66        3345.75           6814        5637.00     24564.68
  272.69        3346.00           6817        3901.00     16988.61
  272.73        3346.25           6821        2811.00     12233.33
  272.76        3346.50           6825        1427.00      6197.20
  272.79        3346.75           6828         674.00      2913.92
  272.82        3347.00           6832         287.00      1226.72
  272.86        3347.25           6836         135.00       564.09
  272.89        3347.50           6840          88.00       359.20
  272.93        3347.75           6843          66.00       263.30
  272.96        3348.00           6847          68.00       272.02
  272.99        3348.25           6851          59.00       232.78
  273.02        3348.50           6855          52.00       202.27
  273.05        3348.75           6858          60.00       237.14
  273.08        3349.00           6862          49.00       189.19
  273.11        3349.25           6866          45.00       171.75
  273.15        3349.50           6870          43.00       163.03
  273.18        3349.75           6873          47.00       180.47
  273.21        3350.00           6877          50.00       193.55
  273.24        3350.25           6881          51.00       197.91
  273.27        3350.50           6885          47.00       180.47
  273.30        3350.75           6888          41.00       154.32
  273.33        3351.00           6892          41.00       154.32
HL scan finished at 04:34:10
end
************************************************************
  HL Scan of (1) Internal mercury lamp
************************************************************
Integration time is 0.2294 seconds per sample
dh160519Izana 28.3081 16.4992 2.911481pr770
************************************************************
Dead Time -------------------------  2.7E-08 
Number of Cycles Used -------------  4 
Starting Wavelength (Angstroms) ---  3331 
Final Wavelength (Angstoms) -------  3351 
Wavelength Increment (Angstroms) --  .25 
Filter Wheel #1 Position ---------- (1) Ground quartz diffuser (ND=2.32)
Filter Wheel #2 Position ---------- 



************************************************************
HL scan start time = 21:41:22
Dark Count =  6.2 


Time (GMT)  Wavelength (Ang)  Step Number  Raw Counts  Counts/Second

 1301.86        3331.00           6593          36.00       129.90
 1302.08        3331.25           6597          50.00       190.93
 1302.11        3331.50           6600          45.00       169.14
 1302.14        3331.75           6604          42.00       156.06
 1302.17        3332.00           6608          40.00       147.34
 1302.20        3332.25           6612          47.00       177.86
 1302.24        3332.50           6615          48.00       182.22
 1302.27        3332.75           6619          52.00       199.65
 1302.30        3333.00           6623          52.00       199.65
 1302.33        3333.25           6627          47.00       177.86
 1302.36        3333.50           6630          50.00       190.93
 1302.39        3333.75           6634          54.00       208.37
 1302.43        3334.00           6638          69.00       273.76
 1302.46        3334.25           6642          78.00       312.99
 1302.49        3334.50           6645         103.00       421.98
 1302.52        3334.75           6649         113.00       465.57
 1302.55        3335.00           6653         143.00       596.35
 1302.58        3335.25           6656         158.00       661.74
 1302.61        3335.50           6660         182.00       766.36
 1302.65        3335.75           6664         207.00       875.35
 1302.68        3336.00           6668         402.00      1725.45
 1302.71        3336.25           6671        1054.00      4568.13
 1302.74        3336.50           6675        2303.00     10014.91
 1302.77        3336.75           6679        3727.00     16226.81
 1302.80        3337.00           6683        4785.00     20843.46
 1302.84        3337.25           6686        5288.00     23038.74
 1302.87        3337.50           6690        6259.00     27277.27
 1302.90        3337.75           6694        7862.00     34276.70
 1302.93        3338.00           6698        9846.00     42943.40
 1302.96        3338.25           6701       11177.00     48759.88
 1303.00        3338.50           6705       13166.00     57455.23
 1303.03        3338.75           6709       15144.00     66106.55
 1303.06        3339.00           6712       16055.00     70092.43
 1303.09        3339.25           6716       18110.00     79086.75
 1303.12        3339.50           6720       19656.00     85856.16
 1303.15        3339.75           6724       21394.00     93469.25
 1303.19        3340.00           6727       22676.00     99086.88
 1303.22        3340.25           6731       23527.00    102816.90
 1303.25        3340.50           6735       24591.00    107481.50
 1303.28        3340.75           6739       25534.00    111616.60
 1303.31        3341.00           6742       26603.00    116305.40
 1303.34        3341.25           6746       27691.00    121078.70
 1303.38        3341.50           6750       28112.00    122926.10
 1303.41        3341.75           6754       28104.00    122891.00
 1303.44        3342.00           6757       27380.00    119714.10
 1303.47        3342.25           6761       25843.00    112971.80
 1303.50        3342.50           6765       24025.00    105000.00
 1303.53        3342.75           6769       22635.00     98907.21
 1303.57        3343.00           6772       21726.00     94923.88
 1303.60        3343.25           6776       20584.00     89920.76
 1303.63        3343.50           6780       19383.00     84660.61
 1303.66        3343.75           6784       17937.00     78329.40
 1303.69        3344.00           6787       16880.00     73702.77
 1303.72        3344.25           6791       15112.00     65966.56
 1303.76        3344.50           6795       13591.00     59313.75
 1303.79        3344.75           6799       12045.00     52554.04
 1303.82        3345.00           6802       10915.00     47614.79
 1303.85        3345.25           6806        9241.00     40300.15
 1303.88        3345.50           6810        7410.00     32302.79
 1303.92        3345.75           6814        5301.00     23095.48
 1303.95        3346.00           6817        4329.00     18853.53
 1303.98        3346.25           6821        3078.00     13395.43
 1304.01        3346.50           6825        1656.00      7193.20
 1304.04        3346.75           6828         860.00      3722.26
 1304.08        3347.00           6832         370.00      1585.94
 1304.11        3347.25           6836         141.00       587.63
 1304.14        3347.50           6840          89.00       360.95
 1304.17        3347.75           6843          77.00       308.63
 1304.20        3348.00           6847          67.00       265.04
 1304.23        3348.25           6851          52.00       199.65
 1304.27        3348.50           6855          49.00       186.57
 1304.30        3348.75           6858          52.00       199.65
 1304.33        3349.00           6862          51.00       195.29
 1304.36        3349.25           6866          50.00       190.93
 1304.39        3349.50           6870          51.00       195.29
 1304.43        3349.75           6873          53.00       204.01
 1304.46        3350.00           6877          49.00       186.57
 1304.49        3350.25           6881          51.00       195.29
 1304.52        3350.50           6885          51.00       195.29
 1304.55        3350.75           6888          44.00       164.78
 1304.58        3351.00           6892          50.00       190.93
HL scan finished at 21:45:25
end
