************************************************************
  HL Scan of (1) Internal mercury lamp
************************************************************
Integration time is 0.2294 seconds per sample
dh180519Izana 28.3081 16.4992 2.857833pr770
************************************************************
Dead Time -------------------------  2.7E-08 
Number of Cycles Used -------------  4 
Starting Wavelength (Angstroms) ---  3331 
Final Wavelength (Angstoms) -------  3351 
Wavelength Increment (Angstroms) --  .25 
Filter Wheel #1 Position ---------- (1) Ground quartz diffuser (ND=2.32)
Filter Wheel #2 Position ---------- 



************************************************************
HL scan start time = 02:02:08
Dark Count =  9.5 


Time (GMT)  Wavelength (Ang)  Step Number  Raw Counts  Counts/Second

  122.61        3331.00           6593          43.00       146.03
  122.83        3331.25           6597          40.00       132.96
  122.87        3331.50           6600          40.00       132.96
  122.90        3331.75           6604          49.00       172.19
  122.93        3332.00           6608          47.00       163.47
  122.96        3332.25           6612          39.00       128.60
  122.99        3332.50           6615          41.00       137.32
  123.02        3332.75           6619          42.00       141.67
  123.05        3333.00           6623          51.00       180.91
  123.08        3333.25           6627          45.00       154.75
  123.12        3333.50           6630          45.00       154.75
  123.15        3333.75           6634          54.00       193.99
  123.18        3334.00           6638          65.00       241.94
  123.21        3334.25           6642          72.00       272.45
  123.24        3334.50           6645          90.00       350.92
  123.27        3334.75           6649         125.00       503.49
  123.31        3335.00           6653         138.00       560.17
  123.34        3335.25           6656         159.00       651.71
  123.37        3335.50           6660         174.00       717.10
  123.40        3335.75           6664         195.00       808.65
  123.43        3336.00           6668         350.00      1484.37
  123.46        3336.25           6671         916.00      3952.03
  123.49        3336.50           6675        1965.00      8526.37
  123.53        3336.75           6679        3322.00     14445.48
  123.56        3337.00           6683        4580.00     19934.44
  123.59        3337.25           6686        5434.00     23661.58
  123.62        3337.50           6690        6826.00     29738.34
  123.65        3337.75           6694        8299.00     36170.88
  123.68        3338.00           6698       10330.00     45043.85
  123.72        3338.25           6701       11622.00     50690.52
  123.75        3338.50           6705       13567.00     59194.36
  123.78        3338.75           6709       15606.00     68113.38
  123.81        3339.00           6712       16891.00     73736.46
  123.84        3339.25           6716       18735.00     81808.68
  123.87        3339.50           6720       20237.00     88386.36
  123.91        3339.75           6724       21884.00     95601.72
  123.94        3340.00           6727       22896.00    100036.60
  123.97        3340.25           6731       24139.00    105485.30
  124.00        3340.50           6735       24950.00    109041.10
  124.03        3340.75           6739       26324.00    115067.10
  124.06        3341.00           6742       27289.00    119300.40
  124.10        3341.25           6746       28544.00    124807.40
  124.13        3341.50           6750       28988.00    126756.10
  124.16        3341.75           6754       28944.00    126563.00
  124.19        3342.00           6757       28266.00    123587.40
  124.22        3342.25           6761       26597.00    116264.60
  124.25        3342.50           6765       24482.00    106989.10
  124.29        3342.75           6769       22760.00     99440.57
  124.32        3343.00           6772       21985.00     96044.30
  124.35        3343.25           6776       21369.00     93345.26
  124.38        3343.50           6780       19742.00     86218.35
  124.41        3343.75           6784       17989.00     78542.59
  124.45        3344.00           6787       16880.00     73688.31
  124.48        3344.25           6791       15252.00     66564.60
  124.51        3344.50           6795       13825.00     60322.67
  124.54        3344.75           6799       12178.00     53121.04
  124.57        3345.00           6802       10904.00     47552.30
  124.61        3345.25           6806        9172.00     39984.30
  124.64        3345.50           6810        7574.00     33004.55
  124.67        3345.75           6814        6062.00     26402.86
  124.70        3346.00           6817        4259.00     18533.68
  124.73        3346.25           6821        3231.00     14048.48
  124.76        3346.50           6825        1619.00      7017.46
  124.79        3346.75           6828         838.00      3611.95
  124.83        3347.00           6832         348.00      1475.65
  124.86        3347.25           6836         143.00       581.96
  124.89        3347.50           6840          98.00       385.79
  124.92        3347.75           6843          75.00       285.53
  124.95        3348.00           6847          61.00       224.50
  124.98        3348.25           6851          57.00       207.06
  125.01        3348.50           6855          57.00       207.06
  125.05        3348.75           6858          46.00       159.11
  125.08        3349.00           6862          45.00       154.75
  125.11        3349.25           6866          50.00       176.55
  125.14        3349.50           6870          69.00       259.37
  125.17        3349.75           6873          49.00       172.19
  125.21        3350.00           6877          51.00       180.91
  125.24        3350.25           6881          49.00       172.19
  125.27        3350.50           6885          50.00       176.55
  125.30        3350.75           6888          45.00       154.75
  125.33        3351.00           6892          40.00       132.96
HL scan finished at 02:06:10
end
************************************************************
  HL Scan of (1) Internal mercury lamp
************************************************************
Integration time is 0.2294 seconds per sample
dh180519Izana 28.3081 16.4992 2.857833pr770
************************************************************
Dead Time -------------------------  2.7E-08 
Number of Cycles Used -------------  4 
Starting Wavelength (Angstroms) ---  3331 
Final Wavelength (Angstoms) -------  3351 
Wavelength Increment (Angstroms) --  .25 
Filter Wheel #1 Position ---------- (1) Ground quartz diffuser (ND=2.32)
Filter Wheel #2 Position ---------- 



************************************************************
HL scan start time = 04:29:00
Dark Count =  6.7 


Time (GMT)  Wavelength (Ang)  Step Number  Raw Counts  Counts/Second

  269.49        3331.00           6593          58.00       223.63
  269.71        3331.25           6597          42.00       153.88
  269.74        3331.50           6600          40.00       145.16
  269.77        3331.75           6604          36.00       127.72
  269.80        3332.00           6608          44.00       162.60
  269.83        3332.25           6612          54.00       206.19
  269.87        3332.50           6615          48.00       180.04
  269.90        3332.75           6619          43.00       158.24
  269.93        3333.00           6623          48.00       180.04
  269.96        3333.25           6627          44.00       162.60
  269.99        3333.50           6630          45.00       166.96
  270.02        3333.75           6634          52.00       197.47
  270.06        3334.00           6638          60.00       232.35
  270.09        3334.25           6642          73.00       289.02
  270.12        3334.50           6645          94.00       380.56
  270.15        3334.75           6649         118.00       485.19
  270.18        3335.00           6653         135.00       559.29
  270.21        3335.25           6656         148.00       615.96
  270.25        3335.50           6660         170.00       711.87
  270.28        3335.75           6664         197.00       829.57
  270.31        3336.00           6668         446.00      1915.09
  270.34        3336.25           6671        1040.00      4504.91
  270.37        3336.50           6675        2024.00      8795.90
  270.40        3336.75           6679        3511.00     15282.24
  270.44        3337.00           6683        4922.00     21439.17
  270.47        3337.25           6686        5613.00     24455.11
  270.50        3337.50           6690        6955.00     30313.82
  270.53        3337.75           6694        8262.00     36021.51
  270.56        3338.00           6698       10200.00     44488.02
  270.59        3338.25           6701       11381.00     49649.34
  270.63        3338.50           6705       13256.00     57846.60
  270.66        3338.75           6709       15240.00     66524.35
  270.69        3339.00           6712       16632.00     72615.21
  270.72        3339.25           6716       18313.00     79973.29
  270.75        3339.50           6720       19753.00     86278.79
  270.78        3339.75           6724       21085.00     92113.29
  270.82        3340.00           6727       22096.00     96542.96
  270.85        3340.25           6731       23373.00    102139.60
  270.88        3340.50           6735       24519.00    107163.60
  270.91        3340.75           6739       25660.00    112167.00
  270.94        3341.00           6742       26792.00    117132.30
  270.97        3341.25           6746       27533.00    120383.20
  271.01        3341.50           6750       27931.00    122129.60
  271.04        3341.75           6754       27900.00    121993.60
  271.07        3342.00           6757       27008.00    118079.90
  271.10        3342.25           6761       25485.00    111399.50
  271.13        3342.50           6765       23169.00    101245.40
  271.17        3342.75           6769       21686.00     94746.44
  271.20        3343.00           6772       21019.00     91824.15
  271.23        3343.25           6776       20124.00     87903.68
  271.26        3343.50           6780       18543.00     80980.27
  271.29        3343.75           6784       17116.00     74733.48
  271.32        3344.00           6787       16172.00     70602.20
  271.36        3344.25           6791       14607.00     63755.26
  271.39        3344.50           6795       13157.00     57413.70
  271.42        3344.75           6799       11526.00     50283.13
  271.45        3345.00           6802       10336.00     45082.31
  271.48        3345.25           6806        8868.00     38668.51
  271.52        3345.50           6810        7049.00     30724.26
  271.55        3345.75           6814        5583.00     24324.17
  271.58        3346.00           6817        3926.00     17092.89
  271.61        3346.25           6821        2871.00     12490.26
  271.64        3346.50           6825        1511.00      6558.70
  271.67        3346.75           6828         748.00      3231.76
  271.70        3347.00           6832         321.00      1370.15
  271.74        3347.25           6836         130.00       537.50
  271.77        3347.50           6840          85.00       341.33
  271.80        3347.75           6843          76.00       302.09
  271.83        3348.00           6847          68.00       267.22
  271.86        3348.25           6851          59.00       227.99
  271.89        3348.50           6855          66.00       258.50
  271.92        3348.75           6858          59.00       227.99
  271.95        3349.00           6862          48.00       180.04
  271.99        3349.25           6866          48.00       180.04
  272.02        3349.50           6870          53.00       201.83
  272.05        3349.75           6873          54.00       206.19
  272.08        3350.00           6877          56.00       214.91
  272.11        3350.25           6881          48.00       180.04
  272.14        3350.50           6885          41.00       149.52
  272.17        3350.75           6888          47.00       175.68
  272.21        3351.00           6892          46.00       171.32
HL scan finished at 04:33:03
end
************************************************************
  HL Scan of (1) Internal mercury lamp
************************************************************
Integration time is 0.2294 seconds per sample
dh180519Izana 28.3081 16.4992 2.911481pr770
************************************************************
Dead Time -------------------------  2.7E-08 
Number of Cycles Used -------------  4 
Starting Wavelength (Angstroms) ---  3331 
Final Wavelength (Angstoms) -------  3351 
Wavelength Increment (Angstroms) --  .25 
Filter Wheel #1 Position ---------- (1) Ground quartz diffuser (ND=2.32)
Filter Wheel #2 Position ---------- 



************************************************************
HL scan start time = 21:40:27
Dark Count =  6 


Time (GMT)  Wavelength (Ang)  Step Number  Raw Counts  Counts/Second

 1300.94        3331.00           6593          39.00       143.85
 1301.16        3331.25           6597          41.00       152.57
 1301.19        3331.50           6600          47.00       178.73
 1301.22        3331.75           6604          48.00       183.09
 1301.26        3332.00           6608          41.00       152.57
 1301.29        3332.25           6612          44.00       165.65
 1301.32        3332.50           6615          41.00       152.57
 1301.35        3332.75           6619          43.00       161.29
 1301.38        3333.00           6623          48.00       183.09
 1301.41        3333.25           6627          45.00       170.01
 1301.44        3333.50           6630          58.00       226.68
 1301.48        3333.75           6634          54.00       209.24
 1301.51        3334.00           6638          68.00       270.27
 1301.54        3334.25           6642          87.00       353.10
 1301.57        3334.50           6645          93.00       379.25
 1301.60        3334.75           6649         110.00       453.36
 1301.63        3335.00           6653         134.00       557.99
 1301.67        3335.25           6656         151.00       632.09
 1301.70        3335.50           6660         169.00       710.56
 1301.73        3335.75           6664         190.00       802.11
 1301.76        3336.00           6668         418.00      1796.08
 1301.79        3336.25           6671        1109.00      4808.82
 1301.82        3336.50           6675        2283.00      9928.56
 1301.85        3336.75           6679        3708.00     16144.79
 1301.89        3337.00           6683        4828.00     21031.99
 1301.92        3337.25           6686        5575.00     24292.30
 1301.95        3337.50           6690        6834.00     29788.56
 1301.98        3337.75           6694        8452.00     36854.44
 1302.01        3338.00           6698       10274.00     44814.44
 1302.04        3338.25           6701       11683.00     50972.46
 1302.08        3338.50           6705       13718.00     59870.03
 1302.11        3338.75           6709       15454.00     67463.66
 1302.14        3339.00           6712       16673.00     72797.70
 1302.17        3339.25           6716       18173.00     79363.43
 1302.20        3339.50           6720       19892.00     86890.62
 1302.23        3339.75           6724       21486.00     93873.21
 1302.27        3340.00           6727       22600.00     98754.69
 1302.30        3340.25           6731       23668.00    103435.80
 1302.33        3340.50           6735       24540.00    107258.70
 1302.36        3340.75           6739       25375.00    110920.20
 1302.39        3341.00           6742       26535.00    116008.00
 1302.42        3341.25           6746       27422.00    119899.30
 1302.46        3341.50           6750       28001.00    122439.90
 1302.49        3341.75           6754       27592.00    120645.20
 1302.52        3342.00           6757       26718.00    116810.70
 1302.55        3342.25           6761       25390.00    110986.00
 1302.58        3342.50           6765       23474.00    102585.40
 1302.61        3342.75           6769       21557.00     94184.28
 1302.65        3343.00           6772       20963.00     91581.88
 1302.68        3343.25           6776       20185.00     88173.93
 1302.71        3343.50           6780       18638.00     81399.28
 1302.74        3343.75           6784       17265.00     75388.70
 1302.77        3344.00           6787       16008.00     69887.65
 1302.80        3344.25           6791       14457.00     63102.19
 1302.84        3344.50           6795       12866.00     56144.33
 1302.87        3344.75           6799       11340.00     49473.19
 1302.90        3345.00           6802       10161.00     44320.66
 1302.93        3345.25           6806        8446.00     36828.24
 1302.96        3345.50           6810        6801.00     29644.47
 1302.99        3345.75           6814        5355.00     23332.04
 1303.03        3346.00           6817        3800.00     16546.19
 1303.06        3346.25           6821        2789.00     12135.62
 1303.09        3346.50           6825        1404.00      6095.16
 1303.12        3346.75           6828         695.00      3003.73
 1303.15        3347.00           6832         274.00      1168.30
 1303.18        3347.25           6836         127.00       527.47
 1303.21        3347.50           6840          90.00       366.18
 1303.25        3347.75           6843          75.00       300.79
 1303.28        3348.00           6847          71.00       283.35
 1303.31        3348.25           6851          53.00       204.88
 1303.34        3348.50           6855          50.00       191.81
 1303.37        3348.75           6858          50.00       191.81
 1303.40        3349.00           6862          47.00       178.73
 1303.44        3349.25           6866          41.00       152.57
 1303.47        3349.50           6870          48.00       183.09
 1303.50        3349.75           6873          48.00       183.09
 1303.53        3350.00           6877          46.00       174.37
 1303.56        3350.25           6881          38.00       139.49
 1303.59        3350.50           6885          41.00       152.57
 1303.62        3350.75           6888          40.00       148.21
 1303.65        3351.00           6892          49.00       187.45
HL scan finished at 21:44:30
end
