************************************************************
  HL Scan of (1) Internal mercury lamp
************************************************************
Integration time is 0.2294 seconds per sample
dh190519Izana 28.3081 16.4992 2.857833pr770
************************************************************
Dead Time -------------------------  2.7E-08 
Number of Cycles Used -------------  4 
Starting Wavelength (Angstroms) ---  3331 
Final Wavelength (Angstoms) -------  3351 
Wavelength Increment (Angstroms) --  .25 
Filter Wheel #1 Position ---------- (1) Ground quartz diffuser (ND=2.32)
Filter Wheel #2 Position ---------- 



************************************************************
HL scan start time = 04:28:04
Dark Count =  6 


Time (GMT)  Wavelength (Ang)  Step Number  Raw Counts  Counts/Second

  268.54        3331.00           6593          38.00       139.49
  268.77        3331.25           6597          49.00       187.45
  268.80        3331.50           6600          40.00       148.21
  268.83        3331.75           6604          39.00       143.85
  268.86        3332.00           6608          41.00       152.57
  268.89        3332.25           6612          43.00       161.29
  268.92        3332.50           6615          45.00       170.01
  268.96        3332.75           6619          43.00       161.29
  268.99        3333.00           6623          47.00       178.73
  269.02        3333.25           6627          49.00       187.45
  269.05        3333.50           6630          46.00       174.37
  269.08        3333.75           6634          45.00       170.01
  269.11        3334.00           6638          71.00       283.35
  269.15        3334.25           6642          76.00       305.15
  269.18        3334.50           6645         109.00       449.00
  269.21        3334.75           6649         120.00       496.96
  269.24        3335.00           6653         148.00       619.02
  269.27        3335.25           6656         161.00       675.69
  269.30        3335.50           6660         169.00       710.56
  269.34        3335.75           6664         175.00       736.72
  269.37        3336.00           6668         491.00      2114.33
  269.40        3336.25           6671        1193.00      5175.09
  269.43        3336.50           6675        2285.00      9937.28
  269.46        3336.75           6679        3670.00     15978.99
  269.49        3337.00           6683        5002.00     21791.37
  269.52        3337.25           6686        5852.00     25501.43
  269.56        3337.50           6690        7008.00     30548.29
  269.59        3337.75           6694        8305.00     36212.38
  269.62        3338.00           6698       10195.00     44469.23
  269.65        3338.25           6701       11433.00     49879.69
  269.68        3338.50           6705       13462.00     58750.49
  269.71        3338.75           6709       15334.00     66938.66
  269.74        3339.00           6712       16360.00     71427.95
  269.78        3339.25           6716       18005.00     78627.96
  269.81        3339.50           6720       19729.00     86176.74
  269.84        3339.75           6724       21304.00     93075.81
  269.87        3340.00           6727       22414.00     97939.56
  269.90        3340.25           6731       23585.00    103072.00
  269.94        3340.50           6735       24552.00    107311.40
  269.97        3340.75           6739       25755.00    112586.70
  270.00        3341.00           6742       26911.00    117657.40
  270.03        3341.25           6746       27749.00    121334.10
  270.06        3341.50           6750       28214.00    123374.60
  270.09        3341.75           6754       27962.00    122268.70
  270.13        3342.00           6757       27186.00    118863.90
  270.16        3342.25           6761       25588.00    111854.30
  270.19        3342.50           6765       23695.00    103554.20
  270.22        3342.75           6769       21828.00     95371.69
  270.25        3343.00           6772       21369.00     93360.59
  270.28        3343.25           6776       20693.00     90399.10
  270.32        3343.50           6780       18875.00     82437.00
  270.35        3343.75           6784       17469.00     76281.62
  270.38        3344.00           6787       16277.00     71064.74
  270.41        3344.25           6791       14912.00     65092.51
  270.44        3344.50           6795       13360.00     58304.44
  270.47        3344.75           6799       11717.00     51121.08
  270.51        3345.00           6802       10499.00     45797.66
  270.54        3345.25           6806        8705.00     37959.55
  270.57        3345.50           6810        7180.00     31299.33
  270.60        3345.75           6814        5792.00     25239.52
  270.63        3346.00           6817        4017.00     17493.00
  270.66        3346.25           6821        2888.00     12567.47
  270.70        3346.50           6825        1441.00      6256.51
  270.73        3346.75           6828         707.00      3056.05
  270.76        3347.00           6832         296.00      1264.21
  270.79        3347.25           6836         115.00       475.16
  270.82        3347.50           6840          80.00       322.58
  270.86        3347.75           6843          69.00       274.63
  270.89        3348.00           6847          66.00       261.55
  270.92        3348.25           6851          46.00       174.37
  270.95        3348.50           6855          51.00       196.16
  270.98        3348.75           6858          45.00       170.01
  271.01        3349.00           6862          55.00       213.60
  271.04        3349.25           6866          46.00       174.37
  271.08        3349.50           6870          48.00       183.09
  271.11        3349.75           6873          46.00       174.37
  271.14        3350.00           6877          50.00       191.81
  271.17        3350.25           6881          41.00       152.57
  271.20        3350.50           6885          41.00       152.57
  271.23        3350.75           6888          45.00       170.01
  271.27        3351.00           6892          45.00       170.01
HL scan finished at 04:32:06
end
************************************************************
  HL Scan of (1) Internal mercury lamp
************************************************************
Integration time is 0.2294 seconds per sample
dh190519Izana 28.3081 16.4992 2.911481pr770
************************************************************
Dead Time -------------------------  2.7E-08 
Number of Cycles Used -------------  4 
Starting Wavelength (Angstroms) ---  3331 
Final Wavelength (Angstoms) -------  3351 
Wavelength Increment (Angstroms) --  .25 
Filter Wheel #1 Position ---------- (1) Ground quartz diffuser (ND=2.32)
Filter Wheel #2 Position ---------- 



************************************************************
HL scan start time = 21:39:26
Dark Count =  7.3 


Time (GMT)  Wavelength (Ang)  Step Number  Raw Counts  Counts/Second

 1299.91        3331.00           6593          42.00       151.26
 1300.13        3331.25           6597          47.00       173.06
 1300.16        3331.50           6600          42.00       151.26
 1300.20        3331.75           6604          37.00       129.47
 1300.23        3332.00           6608          46.00       168.70
 1300.26        3332.25           6612          39.00       138.19
 1300.29        3332.50           6615          62.00       238.45
 1300.32        3332.75           6619          48.00       177.42
 1300.35        3333.00           6623          37.00       129.47
 1300.39        3333.25           6627          46.00       168.70
 1300.42        3333.50           6630          45.00       164.34
 1300.45        3333.75           6634          58.00       221.01
 1300.48        3334.00           6638          59.00       225.37
 1300.51        3334.25           6642          82.00       325.63
 1300.54        3334.50           6645          85.00       338.71
 1300.57        3334.75           6649         117.00       478.21
 1300.61        3335.00           6653         129.00       530.52
 1300.64        3335.25           6656         169.00       704.90
 1300.67        3335.50           6660         161.00       670.02
 1300.70        3335.75           6664         179.00       748.49
 1300.73        3336.00           6668         406.00      1738.09
 1300.76        3336.25           6671        1018.00      4406.37
 1300.80        3336.50           6675        2077.00      9024.43
 1300.83        3336.75           6679        3514.00     15292.71
 1300.86        3337.00           6683        4552.00     19821.85
 1300.89        3337.25           6686        5392.00     23487.87
 1300.92        3337.50           6690        6674.00     29084.30
 1300.95        3337.75           6694        8058.00     35127.90
 1300.99        3338.00           6698       10144.00     44240.70
 1301.02        3338.25           6701       11460.00     49992.02
 1301.05        3338.50           6705       13340.00     58211.30
 1301.08        3338.75           6709       15074.00     65795.50
 1301.11        3339.00           6712       16469.00     71899.25
 1301.15        3339.25           6716       18120.00     79125.71
 1301.18        3339.50           6720       19722.00     86140.39
 1301.21        3339.75           6724       21278.00     92956.19
 1301.24        3340.00           6727       22118.00     96636.72
 1301.27        3340.25           6731       23289.00    101768.80
 1301.31        3340.50           6735       24174.00    105648.40
 1301.34        3340.75           6739       25188.00    110094.40
 1301.37        3341.00           6742       26363.00    115247.80
 1301.40        3341.25           6746       27396.00    119779.50
 1301.43        3341.50           6750       27801.00    121556.50
 1301.46        3341.75           6754       27588.00    120621.90
 1301.50        3342.00           6757       26838.00    117331.50
 1301.53        3342.25           6761       25476.00    111357.40
 1301.56        3342.50           6765       23309.00    101856.40
 1301.59        3342.75           6769       21571.00     94239.92
 1301.62        3343.00           6772       20819.00     90945.37
 1301.65        3343.25           6776       20099.00     87791.55
 1301.69        3343.50           6780       18715.00     81730.72
 1301.72        3343.75           6784       17061.00     74490.12
 1301.75        3344.00           6787       15904.00     69426.88
 1301.78        3344.25           6791       14442.00     63030.89
 1301.81        3344.50           6795       13058.00     56978.17
 1301.84        3344.75           6799       11433.00     49874.01
 1301.88        3345.00           6802       10214.00     44546.58
 1301.91        3345.25           6806        8607.00     37525.80
 1301.94        3345.50           6810        6963.00     30346.13
 1301.97        3345.75           6814        5643.00     24583.45
 1302.00        3346.00           6817        4037.00     17574.60
 1302.04        3346.25           6821        2812.00     12230.28
 1302.07        3346.50           6825        1463.00      6346.77
 1302.10        3346.75           6828         709.00      3059.10
 1302.13        3347.00           6832         316.00      1345.73
 1302.16        3347.25           6836         127.00       521.80
 1302.19        3347.50           6840          87.00       347.43
 1302.23        3347.75           6843          80.00       316.92
 1302.26        3348.00           6847          63.00       242.81
 1302.29        3348.25           6851          59.00       225.37
 1302.32        3348.50           6855          56.00       212.29
 1302.35        3348.75           6858          54.00       203.58
 1302.38        3349.00           6862          42.00       151.26
 1302.41        3349.25           6866          48.00       177.42
 1302.45        3349.50           6870          47.00       173.06
 1302.48        3349.75           6873          42.00       151.26
 1302.51        3350.00           6877          48.00       177.42
 1302.54        3350.25           6881          56.00       212.29
 1302.57        3350.50           6885          47.00       173.06
 1302.60        3350.75           6888          44.00       159.98
 1302.63        3351.00           6892          41.00       146.91
HL scan finished at 21:43:28
end
