************************************************************
  HL Scan of (1) Internal mercury lamp
************************************************************
Integration time is 0.2294 seconds per sample
dh150519Izana 28.3081 16.4992 2.857833pr770
************************************************************
Dead Time -------------------------  2.7E-08 
Number of Cycles Used -------------  4 
Starting Wavelength (Angstroms) ---  3331 
Final Wavelength (Angstoms) -------  3351 
Wavelength Increment (Angstroms) --  .25 
Filter Wheel #1 Position ---------- (1) Ground quartz diffuser (ND=2.32)
Filter Wheel #2 Position ---------- 



************************************************************
HL scan start time = 04:31:06
Dark Count =  6.4 


Time (GMT)  Wavelength (Ang)  Step Number  Raw Counts  Counts/Second

  271.59        3331.00           6593          39.00       142.11
  271.81        3331.25           6597          46.00       172.63
  271.84        3331.50           6600          47.00       176.98
  271.88        3331.75           6604          45.00       168.27
  271.91        3332.00           6608          43.00       159.55
  271.94        3332.25           6612          39.00       142.11
  271.97        3332.50           6615          42.00       155.19
  272.00        3332.75           6619          43.00       159.55
  272.03        3333.00           6623          46.00       172.63
  272.06        3333.25           6627          47.00       176.98
  272.10        3333.50           6630          46.00       172.63
  272.13        3333.75           6634          56.00       216.22
  272.16        3334.00           6638          67.00       264.17
  272.19        3334.25           6642          82.00       329.56
  272.22        3334.50           6645          91.00       368.79
  272.25        3334.75           6649         121.00       499.57
  272.28        3335.00           6653         146.00       608.55
  272.32        3335.25           6656         155.00       647.79
  272.35        3335.50           6660         167.00       700.10
  272.38        3335.75           6664         191.00       804.73
  272.41        3336.00           6668         439.00      1885.89
  272.44        3336.25           6671        1104.00      4785.27
  272.47        3336.50           6675        2144.00      9320.57
  272.51        3336.75           6679        3625.00     15780.92
  272.54        3337.00           6683        4846.00     21108.80
  272.57        3337.25           6686        5842.00     25456.03
  272.60        3337.50           6690        6962.00     30345.69
  272.63        3337.75           6694        8390.00     36581.89
  272.66        3338.00           6698       10328.00     45048.66
  272.70        3338.25           6701       11629.00     50734.67
  272.73        3338.50           6705       13695.00     59767.69
  272.76        3338.75           6709       15330.00     66919.40
  272.79        3339.00           6712       16750.00     73132.93
  272.82        3339.25           6716       18483.00     80718.88
  272.86        3339.50           6720       20111.00     87848.06
  272.89        3339.75           6724       21470.00     93801.34
  272.92        3340.00           6727       22523.00     98415.49
  272.95        3340.25           6731       23827.00    104131.10
  272.98        3340.50           6735       24572.00    107397.30
  273.01        3340.75           6739       25901.00    113225.30
  273.04        3341.00           6742       27005.00    118068.00
  273.08        3341.25           6746       27790.00    121512.20
  273.11        3341.50           6750       28438.00    124355.80
  273.14        3341.75           6754       28064.00    122714.60
  273.17        3342.00           6757       27151.00    118708.60
  273.20        3342.25           6761       25772.00    112659.50
  273.24        3342.50           6765       23580.00    103048.30
  273.27        3342.75           6769       21830.00     95378.69
  273.30        3343.00           6772       21245.00     92815.56
  273.33        3343.25           6776       20433.00     89258.44
  273.36        3343.50           6780       18829.00     82233.82
  273.39        3343.75           6784       17181.00     75019.29
  273.43        3344.00           6787       16265.00     71010.47
  273.46        3344.25           6791       14680.00     64075.89
  273.49        3344.50           6795       13261.00     57869.78
  273.52        3344.75           6799       11428.00     49856.09
  273.55        3345.00           6802       10436.00     45520.60
  273.58        3345.25           6806        8649.00     37713.19
  273.62        3345.50           6810        7209.00     31424.21
  273.65        3345.75           6814        5578.00     24303.65
  273.68        3346.00           6817        3854.00     16780.05
  273.71        3346.25           6821        2798.00     12173.14
  273.74        3346.50           6825        1455.00      6315.81
  273.78        3346.75           6828         712.00      3076.11
  273.81        3347.00           6832         300.00      1279.90
  273.84        3347.25           6836         122.00       503.93
  273.87        3347.50           6840          91.00       368.79
  273.90        3347.75           6843          81.00       325.20
  273.93        3348.00           6847          60.00       233.65
  273.96        3348.25           6851          62.00       242.37
  274.00        3348.50           6855          54.00       207.50
  274.03        3348.75           6858          57.00       220.58
  274.06        3349.00           6862          46.00       172.63
  274.09        3349.25           6866          52.00       198.78
  274.12        3349.50           6870          46.00       172.63
  274.15        3349.75           6873          42.00       155.19
  274.18        3350.00           6877          40.00       146.47
  274.21        3350.25           6881          41.00       150.83
  274.25        3350.50           6885          56.00       216.22
  274.28        3350.75           6888          39.00       142.11
  274.31        3351.00           6892          39.00       142.11
HL scan finished at 04:35:09
end
************************************************************
  HL Scan of (1) Internal mercury lamp
************************************************************
Integration time is 0.2294 seconds per sample
dh150519Izana 28.3081 16.4992 2.857833pr770
************************************************************
Dead Time -------------------------  2.7E-08 
Number of Cycles Used -------------  4 
Starting Wavelength (Angstroms) ---  3331 
Final Wavelength (Angstoms) -------  3351 
Wavelength Increment (Angstroms) --  .25 
Filter Wheel #1 Position ---------- (1) Ground quartz diffuser (ND=2.32)
Filter Wheel #2 Position ---------- 



************************************************************
HL scan start time = 21:42:26
Dark Count =  6.3 


Time (GMT)  Wavelength (Ang)  Step Number  Raw Counts  Counts/Second

 1302.92        3331.00           6593          40.00       146.91
 1303.14        3331.25           6597          52.00       199.22
 1303.17        3331.50           6600          40.00       146.91
 1303.21        3331.75           6604          45.00       168.70
 1303.24        3332.00           6608          43.00       159.98
 1303.27        3332.25           6612          50.00       190.50
 1303.30        3332.50           6615          43.00       159.98
 1303.33        3332.75           6619          37.00       133.83
 1303.36        3333.00           6623          50.00       190.50
 1303.40        3333.25           6627          36.00       129.47
 1303.43        3333.50           6630          48.00       181.78
 1303.46        3333.75           6634          53.00       203.58
 1303.49        3334.00           6638          56.00       216.65
 1303.52        3334.25           6642          72.00       286.40
 1303.55        3334.50           6645          95.00       386.66
 1303.58        3334.75           6649         122.00       504.37
 1303.61        3335.00           6653         137.00       569.76
 1303.65        3335.25           6656         154.00       643.86
 1303.68        3335.50           6660         164.00       687.46
 1303.71        3335.75           6664         202.00       853.11
 1303.74        3336.00           6668         310.00      1323.94
 1303.77        3336.25           6671         744.00      3216.06
 1303.80        3336.50           6675        2003.00      8706.06
 1303.84        3336.75           6679        3535.00     15388.69
 1303.87        3337.00           6683        4828.00     21030.69
 1303.90        3337.25           6686        5384.00     23457.32
 1303.93        3337.50           6690        6355.00     27695.94
 1303.96        3337.75           6694        8069.00     35180.31
 1303.99        3338.00           6698        9961.00     43445.44
 1304.03        3338.25           6701       11300.00     49297.05
 1304.06        3338.50           6705       13319.00     58123.84
 1304.09        3338.75           6709       15267.00     66644.23
 1304.12        3339.00           6712       16201.00     70730.85
 1304.15        3339.25           6716       18027.00     78722.95
 1304.18        3339.50           6720       19477.00     85071.81
 1304.22        3339.75           6724       21015.00     91808.38
 1304.25        3340.00           6727       22228.00     97123.15
 1304.28        3340.25           6731       23471.00    102570.90
 1304.31        3340.50           6735       24568.00    107380.20
 1304.34        3340.75           6739       25448.00    111239.00
 1304.37        3341.00           6742       26379.00    115322.30
 1304.41        3341.25           6746       27480.00    120152.50
 1304.44        3341.50           6750       28129.00    123000.20
 1304.47        3341.75           6754       27836.00    121714.50
 1304.50        3342.00           6757       26993.00    118015.80
 1304.53        3342.25           6761       25480.00    111379.40
 1304.56        3342.50           6765       23632.00    103276.70
 1304.59        3342.75           6769       22172.00     96877.75
 1304.63        3343.00           6772       21341.00     93236.59
 1304.66        3343.25           6776       20175.00     88128.80
 1304.69        3343.50           6780       18890.00     82501.35
 1304.72        3343.75           6784       17447.00     76184.01
 1304.75        3344.00           6787       16417.00     71676.06
 1304.78        3344.25           6791       14879.00     64946.84
 1304.82        3344.50           6795       13355.00     58281.27
 1304.85        3344.75           6799       11758.00     51298.99
 1304.88        3345.00           6802       10818.00     47190.44
 1304.91        3345.25           6806        9141.00     39862.85
 1304.94        3345.50           6810        7147.00     31153.92
 1304.98        3345.75           6814        5090.00     22174.13
 1305.01        3346.00           6817        4134.00     18002.21
 1305.04        3346.25           6821        3063.00     13329.56
 1305.07        3346.50           6825        1797.00      7807.66
 1305.10        3346.75           6828         943.00      4083.71
 1305.13        3347.00           6832         334.00      1428.56
 1305.16        3347.25           6836         139.00       578.47
 1305.20        3347.50           6840         105.00       430.26
 1305.23        3347.75           6843          84.00       338.71
 1305.26        3348.00           6847          61.00       238.45
 1305.29        3348.25           6851          50.00       190.50
 1305.32        3348.50           6855          51.00       194.86
 1305.35        3348.75           6858          44.00       164.34
 1305.39        3349.00           6862          44.00       164.34
 1305.42        3349.25           6866          44.00       164.34
 1305.45        3349.50           6870          55.00       212.29
 1305.48        3349.75           6873          47.00       177.42
 1305.51        3350.00           6877          46.00       173.06
 1305.54        3350.25           6881          52.00       199.22
 1305.57        3350.50           6885          44.00       164.34
 1305.61        3350.75           6888          46.00       173.06
 1305.64        3351.00           6892          43.00       159.98
HL scan finished at 21:46:29
end
