************************************************************
  HL Scan of (1) Internal mercury lamp
************************************************************
Integration time is 0.2294 seconds per sample
dh230519Izana 28.3081 16.4992 2.857833pr770
************************************************************
Dead Time -------------------------  2.7E-08 
Number of Cycles Used -------------  4 
Starting Wavelength (Angstroms) ---  3331 
Final Wavelength (Angstoms) -------  3351 
Wavelength Increment (Angstroms) --  .25 
Filter Wheel #1 Position ---------- (1) Ground quartz diffuser (ND=2.32)
Filter Wheel #2 Position ---------- 



************************************************************
HL scan start time = 04:25:56
Dark Count =  7.4 


Time (GMT)  Wavelength (Ang)  Step Number  Raw Counts  Counts/Second

  266.42        3331.00           6593          43.00       155.19
  266.64        3331.25           6597          49.00       181.34
  266.68        3331.50           6600          43.00       155.19
  266.71        3331.75           6604          48.00       176.98
  266.74        3332.00           6608          37.00       129.03
  266.77        3332.25           6612          43.00       155.19
  266.80        3332.50           6615          41.00       146.47
  266.83        3332.75           6619          49.00       181.34
  266.86        3333.00           6623          45.00       163.91
  266.90        3333.25           6627          53.00       198.78
  266.93        3333.50           6630          42.00       150.83
  266.96        3333.75           6634          60.00       229.30
  266.99        3334.00           6638          66.00       255.45
  267.02        3334.25           6642          75.00       294.68
  267.06        3334.50           6645         108.00       438.54
  267.09        3334.75           6649         117.00       477.77
  267.12        3335.00           6653         140.00       578.04
  267.15        3335.25           6656         146.00       604.19
  267.18        3335.50           6660         169.00       704.46
  267.21        3335.75           6664         194.00       813.44
  267.25        3336.00           6668         417.00      1785.61
  267.28        3336.25           6671        1022.00      4423.37
  267.31        3336.50           6675        1990.00      8644.56
  267.34        3336.75           6679        3459.00     15052.32
  267.37        3337.00           6683        4912.00     21392.48
  267.40        3337.25           6686        5470.00     23827.88
  267.43        3337.50           6690        6775.00     29524.84
  267.47        3337.75           6694        8160.00     35572.95
  267.50        3338.00           6698       10005.00     43632.89
  267.53        3338.25           6701       11166.00     48706.56
  267.56        3338.50           6705       13071.00     57034.58
  267.59        3338.75           6709       14826.00     64710.17
  267.63        3339.00           6712       15893.00     69378.31
  267.66        3339.25           6716       17671.00     77159.71
  267.69        3339.50           6720       19344.00     84484.57
  267.72        3339.75           6724       20726.00     90537.52
  267.75        3340.00           6727       21985.00     96053.50
  267.78        3340.25           6731       23072.00    100817.20
  267.82        3340.50           6735       23947.00    104652.80
  267.85        3340.75           6739       25301.00    110589.50
  267.88        3341.00           6742       26334.00    115120.10
  267.91        3341.25           6746       27223.00    119020.00
  267.94        3341.50           6750       27573.00    120555.70
  267.97        3341.75           6754       27513.00    120292.40
  268.00        3342.00           6757       26802.00    117173.10
  268.04        3342.25           6761       25569.00    111764.80
  268.07        3342.50           6765       23548.00    102903.60
  268.10        3342.75           6769       21795.00     95220.96
  268.13        3343.00           6772       21168.00     92473.84
  268.16        3343.25           6776       20511.00     89595.72
  268.20        3343.50           6780       18930.00     82671.69
  268.23        3343.75           6784       17573.00     76730.74
  268.26        3344.00           6787       16511.00     72082.61
  268.29        3344.25           6791       14877.00     64933.27
  268.32        3344.50           6795       13330.00     58167.14
  268.35        3344.75           6799       11787.00     51420.95
  268.39        3345.00           6802       10610.00     46276.62
  268.42        3345.25           6806        8976.00     39137.24
  268.45        3345.50           6810        7343.00     32004.98
  268.48        3345.75           6814        5809.00     25307.61
  268.51        3346.00           6817        4244.00     18477.40
  268.54        3346.25           6821        3014.00     13111.01
  268.58        3346.50           6825        1636.00      7100.75
  268.61        3346.75           6828         814.00      3516.46
  268.64        3347.00           6832         339.00      1445.57
  268.67        3347.25           6836         134.00       551.88
  268.70        3347.50           6840          88.00       351.35
  268.73        3347.75           6843          78.00       307.76
  268.77        3348.00           6847          68.00       264.17
  268.80        3348.25           6851          59.00       224.94
  268.83        3348.50           6855          58.00       220.58
  268.86        3348.75           6858          48.00       176.98
  268.89        3349.00           6862          49.00       181.34
  268.92        3349.25           6866          42.00       150.83
  268.96        3349.50           6870          44.00       159.55
  268.99        3349.75           6873          51.00       190.06
  269.02        3350.00           6877          47.00       172.63
  269.05        3350.25           6881          45.00       163.91
  269.08        3350.50           6885          45.00       163.91
  269.11        3350.75           6888          42.00       150.83
  269.15        3351.00           6892          40.00       142.11
HL scan finished at 04:29:59
end
************************************************************
  HL Scan of (1) Internal mercury lamp
************************************************************
Integration time is 0.2294 seconds per sample
dh230519Izana 28.3081 16.4992 2.911481pr770
************************************************************
Dead Time -------------------------  2.7E-08 
Number of Cycles Used -------------  4 
Starting Wavelength (Angstroms) ---  3331 
Final Wavelength (Angstoms) -------  3351 
Wavelength Increment (Angstroms) --  .25 
Filter Wheel #1 Position ---------- (1) Ground quartz diffuser (ND=2.32)
Filter Wheel #2 Position ---------- 



************************************************************
HL scan start time = 21:32:28
Dark Count =  8.100001 


Time (GMT)  Wavelength (Ang)  Step Number  Raw Counts  Counts/Second

 1292.95        3331.00           6593          44.00       156.50
 1293.17        3331.25           6597          42.00       147.78
 1293.20        3331.50           6600          44.00       156.50
 1293.23        3331.75           6604          39.00       134.70
 1293.27        3332.00           6608          42.00       147.78
 1293.30        3332.25           6612          46.00       165.21
 1293.33        3332.50           6615          40.00       139.06
 1293.37        3332.75           6619          44.00       156.50
 1293.40        3333.00           6623          41.00       143.42
 1293.44        3333.25           6627          53.00       195.73
 1293.47        3333.50           6630          49.00       178.29
 1293.51        3333.75           6634          60.00       226.24
 1293.54        3334.00           6638          66.00       252.40
 1293.57        3334.25           6642          86.00       339.58
 1293.60        3334.50           6645          98.00       391.90
 1293.63        3334.75           6649         122.00       496.52
 1293.66        3335.00           6653         134.00       548.83
 1293.70        3335.25           6656         138.00       566.27
 1293.73        3335.50           6660         158.00       653.46
 1293.76        3335.75           6664         199.00       832.19
 1293.79        3336.00           6668         459.00      1965.67
 1293.82        3336.25           6671        1181.00      5113.61
 1293.85        3336.50           6675        2319.00     10076.41
 1293.89        3336.75           6679        3812.00     16589.38
 1293.92        3337.00           6683        4982.00     21694.92
 1293.95        3337.25           6686        5601.00     24396.62
 1293.98        3337.50           6690        6871.00     29940.93
 1294.01        3337.75           6694        8402.00     36626.88
 1294.04        3338.00           6698       10293.00     44888.29
 1294.08        3338.25           6701       11622.00     50696.64
 1294.11        3338.50           6705       13750.00     60000.79
 1294.14        3338.75           6709       15695.00     68508.91
 1294.17        3339.00           6712       16765.00     73191.15
 1294.20        3339.25           6716       18451.00     80571.35
 1294.24        3339.50           6720       20141.00     87972.01
 1294.27        3339.75           6724       21820.00     95327.44
 1294.30        3340.00           6727       22717.00     99258.24
 1294.33        3340.25           6731       23862.00    104277.10
 1294.36        3340.50           6735       24774.00    108275.50
 1294.39        3340.75           6739       25747.00    112542.40
 1294.43        3341.00           6742       26650.00    116503.20
 1294.46        3341.25           6746       27660.00    120934.30
 1294.49        3341.50           6750       28206.00    123330.20
 1294.52        3341.75           6754       27758.00    121364.40
 1294.55        3342.00           6757       26996.00    118021.10
 1294.58        3342.25           6761       25713.00    112393.30
 1294.61        3342.50           6765       23546.00    102891.80
 1294.65        3342.75           6769       21676.00     94696.48
 1294.68        3343.00           6772       20926.00     91410.60
 1294.71        3343.25           6776       20130.00     87923.83
 1294.74        3343.50           6780       18688.00     81609.00
 1294.77        3343.75           6784       17270.00     75401.38
 1294.81        3344.00           6787       15956.00     69650.91
 1294.84        3344.25           6791       14525.00     63390.45
 1294.87        3344.50           6795       13018.00     56799.78
 1294.90        3344.75           6799       11473.00     50045.35
 1294.93        3345.00           6802       10285.00     44853.33
 1294.96        3345.25           6806        8597.00     37478.63
 1295.00        3345.50           6810        6959.00     30325.17
 1295.03        3345.75           6814        5545.00     24152.19
 1295.06        3346.00           6817        3957.00     17222.05
 1295.09        3346.25           6821        2870.00     12479.79
 1295.12        3346.50           6825        1410.00      6112.17
 1295.15        3346.75           6828         701.00      3020.73
 1295.18        3347.00           6832         270.00      1141.71
 1295.22        3347.25           6836         117.00       474.72
 1295.25        3347.50           6840          82.00       322.15
 1295.28        3347.75           6843          72.00       278.55
 1295.31        3348.00           6847          63.00       239.32
 1295.34        3348.25           6851          50.00       182.65
 1295.37        3348.50           6855          47.00       169.57
 1295.40        3348.75           6858          57.00       213.17
 1295.44        3349.00           6862          49.00       178.29
 1295.47        3349.25           6866          46.00       165.21
 1295.50        3349.50           6870          45.00       160.86
 1295.53        3349.75           6873          47.00       169.57
 1295.56        3350.00           6877          53.00       195.73
 1295.59        3350.25           6881          50.00       182.65
 1295.63        3350.50           6885          41.00       143.42
 1295.66        3350.75           6888          42.00       147.78
 1295.69        3351.00           6892          44.00       156.50
HL scan finished at 21:36:32
end
