************************************************************
  HL Scan of (1) Internal mercury lamp
************************************************************
Integration time is 0.2294 seconds per sample
dh260519Izana 28.3081 16.4992 2.857833pr770
************************************************************
Dead Time -------------------------  2.7E-08 
Number of Cycles Used -------------  4 
Starting Wavelength (Angstroms) ---  3331 
Final Wavelength (Angstoms) -------  3351 
Wavelength Increment (Angstroms) --  .25 
Filter Wheel #1 Position ---------- (1) Ground quartz diffuser (ND=2.32)
Filter Wheel #2 Position ---------- 



************************************************************
HL scan start time = 04:24:57
Dark Count =  8 


Time (GMT)  Wavelength (Ang)  Step Number  Raw Counts  Counts/Second

  265.44        3331.00           6593          43.00       152.57
  265.66        3331.25           6597          48.00       174.37
  265.69        3331.50           6600          41.00       143.85
  265.72        3331.75           6604          38.00       130.78
  265.75        3332.00           6608          40.00       139.49
  265.79        3332.25           6612          43.00       152.57
  265.82        3332.50           6615          43.00       152.57
  265.85        3332.75           6619          47.00       170.01
  265.88        3333.00           6623          44.00       156.93
  265.91        3333.25           6627          43.00       152.57
  265.94        3333.50           6630          48.00       174.37
  265.97        3333.75           6634          55.00       204.88
  266.01        3334.00           6638          68.00       261.55
  266.04        3334.25           6642          87.00       344.38
  266.07        3334.50           6645         101.00       405.41
  266.10        3334.75           6649         122.00       496.96
  266.13        3335.00           6653         148.00       610.30
  266.16        3335.25           6656         153.00       632.09
  266.19        3335.50           6660         176.00       732.36
  266.23        3335.75           6664         199.00       832.63
  266.26        3336.00           6668         477.00      2044.58
  266.29        3336.25           6671        1067.00      4616.97
  266.32        3336.50           6675        2086.00      9060.63
  266.35        3336.75           6679        3537.00     15390.00
  266.38        3337.00           6683        5048.00     21983.40
  266.42        3337.25           6686        5851.00     25488.33
  266.45        3337.50           6690        6870.00     29937.01
  266.48        3337.75           6694        8302.00     36190.54
  266.51        3338.00           6698       10153.00     44276.96
  266.54        3338.25           6701       11459.00     49984.59
  266.57        3338.50           6705       13362.00     58304.44
  266.61        3338.75           6709       15049.00     65683.08
  266.64        3339.00           6712       16242.00     70902.82
  266.67        3339.25           6716       17903.00     78172.68
  266.70        3339.50           6720       19557.00     85414.72
  266.73        3339.75           6724       21064.00     92015.59
  266.76        3340.00           6727       21945.00     95875.59
  266.80        3340.25           6731       23347.00    102020.00
  266.83        3340.50           6735       24210.00    105803.10
  266.86        3340.75           6739       25780.00    112687.60
  266.89        3341.00           6742       26708.00    116758.10
  266.92        3341.25           6746       27476.00    120127.50
  266.96        3341.50           6750       27882.00    121908.90
  266.99        3341.75           6754       27454.00    120030.90
  267.02        3342.00           6757       26751.00    116946.70
  267.05        3342.25           6761       25207.00    110174.70
  267.08        3342.50           6765       23490.00    102646.80
  267.12        3342.75           6769       21683.00     94727.59
  267.15        3343.00           6772       20908.00     91332.19
  267.18        3343.25           6776       20353.00     88901.02
  267.21        3343.50           6780       18811.00     82148.01
  267.24        3343.75           6784       17181.00     75012.28
  267.27        3344.00           6787       16246.00     70920.33
  267.30        3344.25           6791       14697.00     64143.26
  267.34        3344.50           6795       13195.00     57574.17
  267.37        3344.75           6799       11452.00     49954.00
  267.40        3345.00           6802       10356.00     45164.03
  267.43        3345.25           6806        8629.00     37618.84
  267.46        3345.50           6810        7047.00     30709.85
  267.49        3345.75           6814        5692.00     24794.28
  267.53        3346.00           6817        3912.00     17026.13
  267.56        3346.25           6821        2806.00     12201.06
  267.59        3346.50           6825        1421.00      6160.57
  267.62        3346.75           6828         718.00      3095.29
  267.65        3347.00           6832         293.00      1242.41
  267.69        3347.25           6836         120.00       488.24
  267.72        3347.50           6840          99.00       396.69
  267.75        3347.75           6843          67.00       257.19
  267.78        3348.00           6847          60.00       226.68
  267.81        3348.25           6851          59.00       222.32
  267.84        3348.50           6855          52.00       191.81
  267.87        3348.75           6858          45.00       161.29
  267.91        3349.00           6862          52.00       191.81
  267.94        3349.25           6866          46.00       165.65
  267.97        3349.50           6870          47.00       170.01
  268.00        3349.75           6873          51.00       187.45
  268.03        3350.00           6877          46.00       165.65
  268.06        3350.25           6881          45.00       161.29
  268.09        3350.50           6885          53.00       196.16
  268.13        3350.75           6888          47.00       170.01
  268.16        3351.00           6892          48.00       174.37
HL scan finished at 04:29:00
end
************************************************************
  HL Scan of (1) Internal mercury lamp
************************************************************
Integration time is 0.2294 seconds per sample
dh260519Izana 28.3081 16.4992 2.857833pr770
************************************************************
Dead Time -------------------------  2.7E-08 
Number of Cycles Used -------------  4 
Starting Wavelength (Angstroms) ---  3331 
Final Wavelength (Angstoms) -------  3351 
Wavelength Increment (Angstroms) --  .25 
Filter Wheel #1 Position ---------- (1) Ground quartz diffuser (ND=2.32)
Filter Wheel #2 Position ---------- 



************************************************************
HL scan start time = 21:33:15
Dark Count =  5.5 


Time (GMT)  Wavelength (Ang)  Step Number  Raw Counts  Counts/Second

 1293.74        3331.00           6593          46.00       176.55
 1293.96        3331.25           6597          47.00       180.91
 1294.00        3331.50           6600          42.00       159.11
 1294.03        3331.75           6604          51.00       198.34
 1294.06        3332.00           6608          43.00       163.47
 1294.09        3332.25           6612          46.00       176.55
 1294.12        3332.50           6615          50.00       193.99
 1294.15        3332.75           6619          40.00       150.39
 1294.18        3333.00           6623          35.00       128.60
 1294.21        3333.25           6627          47.00       180.91
 1294.25        3333.50           6630          46.00       176.55
 1294.28        3333.75           6634          57.00       224.50
 1294.31        3334.00           6638          66.00       263.73
 1294.34        3334.25           6642          83.00       337.84
 1294.37        3334.50           6645         101.00       416.31
 1294.40        3334.75           6649         122.00       507.85
 1294.44        3335.00           6653         138.00       577.60
 1294.47        3335.25           6656         162.00       682.23
 1294.50        3335.50           6660         173.00       730.18
 1294.53        3335.75           6664         193.00       817.37
 1294.56        3336.00           6668         468.00      2016.24
 1294.59        3336.25           6671        1109.00      4811.00
 1294.63        3336.50           6675        2367.00     10297.11
 1294.66        3336.75           6679        3760.00     16373.85
 1294.69        3337.00           6683        4912.00     21400.77
 1294.72        3337.25           6686        5678.00     24744.08
 1294.75        3337.50           6690        6846.00     29843.13
 1294.78        3337.75           6694        8439.00     36799.85
 1294.82        3338.00           6698       10353.00     45161.84
 1294.85        3338.25           6701       11750.00     51267.52
 1294.88        3338.50           6705       13610.00     59399.90
 1294.91        3338.75           6709       15453.00     67461.48
 1294.94        3339.00           6712       16594.00     72454.15
 1294.97        3339.25           6716       18230.00     79615.16
 1295.01        3339.50           6720       20038.00     87532.26
 1295.04        3339.75           6724       21460.00     93761.48
 1295.07        3340.00           6727       22462.00     98152.09
 1295.10        3340.25           6731       23608.00    103175.00
 1295.13        3340.50           6735       24624.00    107629.20
 1295.16        3340.75           6739       25658.00    112163.50
 1295.20        3341.00           6742       26723.00    116834.90
 1295.23        3341.25           6746       27670.00    120989.60
 1295.26        3341.50           6750       27965.00    122284.10
 1295.29        3341.75           6754       27613.00    120739.50
 1295.32        3342.00           6757       26782.00    117093.70
 1295.36        3342.25           6761       25396.00    111014.50
 1295.39        3342.50           6765       23379.00    102171.20
 1295.42        3342.75           6769       21594.00     94348.58
 1295.45        3343.00           6772       20904.00     91325.62
 1295.48        3343.25           6776       19904.00     86945.38
 1295.51        3343.50           6780       18569.00     81099.36
 1295.55        3343.75           6784       17258.00     75360.25
 1295.58        3344.00           6787       16014.00     69916.07
 1295.61        3344.25           6791       14332.00     62557.63
 1295.64        3344.50           6795       12877.00     56194.62
 1295.68        3344.75           6799       11274.00     49186.90
 1295.71        3345.00           6802       10140.00     44231.09
 1295.74        3345.25           6806        8397.00     36616.39
 1295.77        3345.50           6810        6833.00     29786.37
 1295.80        3345.75           6814        5478.00     23871.09
 1295.83        3346.00           6817        3944.00     17176.66
 1295.86        3346.25           6821        2847.00     12390.81
 1295.90        3346.50           6825        1370.00      5949.08
 1295.93        3346.75           6828         668.00      2888.19
 1295.96        3347.00           6832         269.00      1148.68
 1295.99        3347.25           6836         116.00       481.70
 1296.02        3347.50           6840          88.00       359.64
 1296.05        3347.75           6843          83.00       337.84
 1296.09        3348.00           6847          69.00       276.81
 1296.12        3348.25           6851          58.00       228.86
 1296.15        3348.50           6855          58.00       228.86
 1296.18        3348.75           6858          57.00       224.50
 1296.21        3349.00           6862          52.00       202.70
 1296.24        3349.25           6866          46.00       176.55
 1296.27        3349.50           6870          46.00       176.55
 1296.30        3349.75           6873          45.00       172.19
 1296.34        3350.00           6877          53.00       207.06
 1296.37        3350.25           6881          46.00       176.55
 1296.40        3350.50           6885          38.00       141.67
 1296.43        3350.75           6888          49.00       189.63
 1296.46        3351.00           6892          47.00       180.91
HL scan finished at 21:37:18
end
