************************************************************
  HL Scan of (1) Internal mercury lamp
************************************************************
Integration time is 0.2294 seconds per sample
dh290519Izana 28.3081 16.4992 2.804185pr770
************************************************************
Dead Time -------------------------  2.7E-08 
Number of Cycles Used -------------  4 
Starting Wavelength (Angstroms) ---  3331 
Final Wavelength (Angstoms) -------  3351 
Wavelength Increment (Angstroms) --  .25 
Filter Wheel #1 Position ---------- (1) Ground quartz diffuser (ND=2.32)
Filter Wheel #2 Position ---------- 



************************************************************
HL scan start time = 04:24:25
Dark Count =  7.5 


Time (GMT)  Wavelength (Ang)  Step Number  Raw Counts  Counts/Second

  264.89        3331.00           6593          38.00       132.96
  265.12        3331.25           6597          35.00       119.88
  265.15        3331.50           6600          40.00       141.67
  265.18        3331.75           6604          41.00       146.03
  265.21        3332.00           6608          51.00       189.63
  265.24        3332.25           6612          47.00       172.19
  265.27        3332.50           6615          42.00       150.39
  265.30        3332.75           6619          42.00       150.39
  265.34        3333.00           6623          45.00       163.47
  265.37        3333.25           6627          45.00       163.47
  265.40        3333.50           6630          46.00       167.83
  265.43        3333.75           6634          49.00       180.91
  265.46        3334.00           6638          60.00       228.86
  265.50        3334.25           6642          73.00       285.53
  265.53        3334.50           6645          92.00       368.36
  265.56        3334.75           6649         115.00       468.62
  265.59        3335.00           6653         137.00       564.52
  265.62        3335.25           6656         140.00       577.60
  265.66        3335.50           6660         155.00       642.99
  265.69        3335.75           6664         180.00       751.98
  265.72        3336.00           6668         370.00      1580.28
  265.75        3336.25           6671         994.00      4300.85
  265.78        3336.50           6675        2085.00      9058.45
  265.81        3336.75           6679        3392.00     14759.59
  265.84        3337.00           6683        4640.00     20205.00
  265.88        3337.25           6686        5310.00     23129.09
  265.91        3337.50           6690        6533.00     28467.82
  265.94        3337.75           6694        7808.00     34035.19
  265.97        3338.00           6698        9434.00     41137.65
  266.00        3338.25           6701       10858.00     47360.00
  266.03        3338.50           6705       12741.00     55591.23
  266.06        3338.75           6709       14249.00     62185.84
  266.10        3339.00           6712       15663.00     68371.53
  266.13        3339.25           6716       17102.00     74668.70
  266.16        3339.50           6720       18453.00     80582.72
  266.19        3339.75           6724       20029.00     87484.08
  266.22        3340.00           6727       20960.00     91562.18
  266.25        3340.25           6731       22284.00     97363.28
  266.29        3340.50           6735       23069.00    100803.60
  266.32        3340.75           6739       24146.00    105524.70
  266.35        3341.00           6742       25080.00    109620.00
  266.38        3341.25           6746       26167.00    114387.20
  266.41        3341.50           6750       26485.00    115782.10
  266.44        3341.75           6754       26247.00    114738.10
  266.48        3342.00           6757       25449.00    111238.10
  266.51        3342.25           6761       24091.00    105283.60
  266.54        3342.50           6765       22275.00     97323.85
  266.57        3342.75           6769       20762.00     90694.80
  266.60        3343.00           6772       19999.00     87352.69
  266.63        3343.25           6776       19219.00     83936.75
  266.67        3343.50           6780       17898.00     78152.98
  266.70        3343.75           6784       16431.00     71732.09
  266.73        3344.00           6787       15338.00     66949.60
  266.76        3344.25           6791       13861.00     60488.86
  266.79        3344.50           6795       12608.00     55009.72
  266.83        3344.75           6799       10948.00     47753.34
  266.86        3345.00           6802        9904.00     43191.14
  266.89        3345.25           6806        8147.00     35515.73
  266.92        3345.50           6810        6663.00     29035.40
  266.95        3345.75           6814        5316.00     23155.27
  266.98        3346.00           6817        3841.00     16718.53
  267.02        3346.25           6821        2908.00     12648.17
  267.05        3346.50           6825        1424.00      6175.83
  267.08        3346.75           6828         709.00      3058.23
  267.11        3347.00           6832         297.00      1262.03
  267.14        3347.25           6836         125.00       512.21
  267.18        3347.50           6840          85.00       337.84
  267.21        3347.75           6843          69.00       268.09
  267.24        3348.00           6847          54.00       202.70
  267.27        3348.25           6851          59.00       224.50
  267.30        3348.50           6855          50.00       185.27
  267.33        3348.75           6858          53.00       198.34
  267.36        3349.00           6862          53.00       198.34
  267.39        3349.25           6866          56.00       211.42
  267.43        3349.50           6870          40.00       141.67
  267.46        3349.75           6873          46.00       167.83
  267.49        3350.00           6877          50.00       185.27
  267.52        3350.25           6881          42.00       150.39
  267.55        3350.50           6885          47.00       172.19
  267.58        3350.75           6888          43.00       154.75
  267.61        3351.00           6892          46.00       167.83
HL scan finished at 04:28:27
end
************************************************************
  HL Scan of (1) Internal mercury lamp
************************************************************
Integration time is 0.2294 seconds per sample
dh290519Izana 28.3081 16.4992 2.911481pr770
************************************************************
Dead Time -------------------------  2.7E-08 
Number of Cycles Used -------------  4 
Starting Wavelength (Angstroms) ---  3331 
Final Wavelength (Angstoms) -------  3351 
Wavelength Increment (Angstroms) --  .25 
Filter Wheel #1 Position ---------- (1) Ground quartz diffuser (ND=2.32)
Filter Wheel #2 Position ---------- 



************************************************************
HL scan start time = 21:30:00
Dark Count =  7 


Time (GMT)  Wavelength (Ang)  Step Number  Raw Counts  Counts/Second

 1290.49        3331.00           6593          44.00       161.29
 1290.71        3331.25           6597          43.00       156.93
 1290.74        3331.50           6600          39.00       139.49
 1290.77        3331.75           6604          46.00       170.01
 1290.80        3332.00           6608          40.00       143.85
 1290.83        3332.25           6612          44.00       161.29
 1290.87        3332.50           6615          39.00       139.49
 1290.90        3332.75           6619          39.00       139.49
 1290.93        3333.00           6623          51.00       191.81
 1290.96        3333.25           6627          46.00       170.01
 1290.99        3333.50           6630          51.00       191.81
 1291.03        3333.75           6634          53.00       200.52
 1291.06        3334.00           6638          62.00       239.76
 1291.09        3334.25           6642          76.00       300.79
 1291.12        3334.50           6645          93.00       374.89
 1291.15        3334.75           6649         108.00       440.28
 1291.18        3335.00           6653         132.00       544.91
 1291.22        3335.25           6656         140.00       579.78
 1291.25        3335.50           6660         160.00       666.97
 1291.28        3335.75           6664         169.00       706.20
 1291.31        3336.00           6668         325.00      1386.28
 1291.34        3336.25           6671         816.00      3526.93
 1291.37        3336.50           6675        2074.00      9012.66
 1291.40        3336.75           6679        3479.00     15141.32
 1291.44        3337.00           6683        4421.00     19251.50
 1291.47        3337.25           6686        4963.00     21616.80
 1291.50        3337.50           6690        5990.00     26099.47
 1291.53        3337.75           6694        7759.00     33823.38
 1291.56        3338.00           6698        9695.00     42280.15
 1291.59        3338.25           6701       10928.00     47668.11
 1291.63        3338.50           6705       12840.00     56026.28
 1291.66        3338.75           6709       14553.00     63517.74
 1291.69        3339.00           6712       15645.00     68294.96
 1291.72        3339.25           6716       17160.00     74924.74
 1291.75        3339.50           6720       18791.00     82064.81
 1291.79        3339.75           6724       20427.00     89229.53
 1291.82        3340.00           6727       21276.00     92948.76
 1291.85        3340.25           6731       22487.00     98255.09
 1291.88        3340.50           6735       23493.00    102664.30
 1291.91        3340.75           6739       24267.00    106057.40
 1291.94        3341.00           6742       24995.00    109249.40
 1291.97        3341.25           6746       26501.00    115854.40
 1292.01        3341.50           6750       26796.00    117148.50
 1292.04        3341.75           6754       26640.00    116464.20
 1292.07        3342.00           6757       25875.00    113108.60
 1292.10        3342.25           6761       24607.00    107548.10
 1292.13        3342.50           6765       22856.00     99872.27
 1292.16        3342.75           6769       20995.00     91717.69
 1292.20        3343.00           6772       20336.00     88830.94
 1292.23        3343.25           6776       19269.00     84157.89
 1292.26        3343.50           6780       18144.00     79232.10
 1292.29        3343.75           6784       16853.00     73581.09
 1292.32        3344.00           6787       15601.00     68102.45
 1292.35        3344.25           6791       13962.00     60932.77
 1292.39        3344.50           6795       12691.00     55374.80
 1292.42        3344.75           6799       10974.00     47869.15
 1292.45        3345.00           6802       10082.00     43971.10
 1292.48        3345.25           6806        8457.00     36871.91
 1292.51        3345.50           6810        6671.00     29072.51
 1292.55        3345.75           6814        4750.00     20687.23
 1292.58        3346.00           6817        4047.00     17619.54
 1292.61        3346.25           6821        2887.00     12558.75
 1292.64        3346.50           6825        1548.00      6718.74
 1292.67        3346.75           6828         744.00      3213.01
 1292.71        3347.00           6832         322.00      1373.20
 1292.74        3347.25           6836         127.00       523.11
 1292.77        3347.50           6840          88.00       353.10
 1292.80        3347.75           6843          63.00       244.12
 1292.83        3348.00           6847          59.00       226.68
 1292.86        3348.25           6851          56.00       213.60
 1292.89        3348.50           6855          56.00       213.60
 1292.93        3348.75           6858          45.00       165.65
 1292.96        3349.00           6862          51.00       191.81
 1292.99        3349.25           6866          49.00       183.09
 1293.03        3349.50           6870          42.00       152.57
 1293.07        3349.75           6873          47.00       174.37
 1293.10        3350.00           6877          56.00       213.60
 1293.14        3350.25           6881          42.00       152.57
 1293.17        3350.50           6885          37.00       130.78
 1293.20        3350.75           6888          41.00       148.21
 1293.23        3351.00           6892          49.00       183.09
HL scan finished at 21:34:04
end
