************************************************************
  HL Scan of (1) Internal mercury lamp
************************************************************
Integration time is 0.2294 seconds per sample
dh250519Izana 28.3081 16.4992 2.804185pr770
************************************************************
Dead Time -------------------------  2.7E-08 
Number of Cycles Used -------------  4 
Starting Wavelength (Angstroms) ---  3331 
Final Wavelength (Angstoms) -------  3351 
Wavelength Increment (Angstroms) --  .25 
Filter Wheel #1 Position ---------- (1) Ground quartz diffuser (ND=2.32)
Filter Wheel #2 Position ---------- 



************************************************************
HL scan start time = 02:02:49
Dark Count =  6.8 


Time (GMT)  Wavelength (Ang)  Step Number  Raw Counts  Counts/Second

  123.30        3331.00           6593          39.00       140.37
  123.52        3331.25           6597          36.00       127.29
  123.55        3331.50           6600          43.00       157.80
  123.58        3331.75           6604          42.00       153.44
  123.62        3332.00           6608          50.00       188.32
  123.65        3332.25           6612          48.00       179.60
  123.68        3332.50           6615          49.00       183.96
  123.71        3332.75           6619          48.00       179.60
  123.74        3333.00           6623          47.00       175.24
  123.77        3333.25           6627          53.00       201.40
  123.81        3333.50           6630          54.00       205.76
  123.84        3333.75           6634          55.00       210.11
  123.87        3334.00           6638          66.00       258.07
  123.90        3334.25           6642          80.00       319.10
  123.93        3334.50           6645         109.00       445.52
  123.96        3334.75           6649         117.00       480.39
  123.99        3335.00           6653         131.00       541.42
  124.03        3335.25           6656         142.00       589.37
  124.06        3335.50           6660         171.00       715.79
  124.09        3335.75           6664         184.00       772.47
  124.12        3336.00           6668         348.00      1487.42
  124.15        3336.25           6671        1008.00      4364.94
  124.18        3336.50           6675        1976.00      8586.12
  124.22        3336.75           6679        3263.00     14199.86
  124.25        3337.00           6683        4571.00     19906.95
  124.28        3337.25           6686        5465.00     23808.68
  124.31        3337.50           6690        6809.00     29675.91
  124.34        3337.75           6694        8085.00     35248.00
  124.37        3338.00           6698       10123.00     44151.12
  124.40        3338.25           6701       11538.00     50335.15
  124.44        3338.50           6705       13332.00     58178.50
  124.47        3338.75           6709       15480.00     67573.93
  124.50        3339.00           6712       16652.00     72702.30
  124.53        3339.25           6716       18157.00     79289.88
  124.56        3339.50           6720       19671.00     85919.22
  124.60        3339.75           6724       21284.00     92984.68
  124.63        3340.00           6727       22550.00     98532.04
  124.66        3340.25           6731       23702.00    103581.30
  124.69        3340.50           6735       24611.00    107566.50
  124.72        3340.75           6739       26076.00    113991.10
  124.75        3341.00           6742       26914.00    117667.10
  124.79        3341.25           6746       28113.00    122927.80
  124.82        3341.50           6750       28394.00    124161.00
  124.85        3341.75           6754       28204.00    123327.10
  124.88        3342.00           6757       27632.00    120817.20
  124.91        3342.25           6761       26183.00    114460.40
  124.94        3342.50           6765       24247.00    105970.60
  124.98        3342.75           6769       22411.00     97922.90
  125.01        3343.00           6772       21627.00     94487.47
  125.04        3343.25           6776       20910.00     91346.21
  125.07        3343.50           6780       19352.00     84522.22
  125.10        3343.75           6784       17856.00     77972.18
  125.13        3344.00           6787       16725.00     73021.77
  125.17        3344.25           6791       15228.00     66471.43
  125.20        3344.50           6795       13828.00     60347.60
  125.23        3344.75           6799       12011.00     52402.78
  125.26        3345.00           6802       10798.00     47100.85
  125.29        3345.25           6806        8992.00     39209.75
  125.33        3345.50           6810        7402.00     32265.24
  125.36        3345.75           6814        5972.00     26021.77
  125.39        3346.00           6817        4329.00     18850.92
  125.42        3346.25           6821        3222.00     14021.00
  125.45        3346.50           6825        1633.00      7090.28
  125.48        3346.75           6828         804.00      3475.48
  125.52        3347.00           6832         339.00      1448.18
  125.55        3347.25           6836         138.00       571.94
  125.58        3347.50           6840          89.00       358.33
  125.61        3347.75           6843          68.00       266.78
  125.64        3348.00           6847          64.00       249.35
  125.67        3348.25           6851          56.00       214.47
  125.70        3348.50           6855          55.00       210.11
  125.74        3348.75           6858          49.00       183.96
  125.77        3349.00           6862          50.00       188.32
  125.80        3349.25           6866          43.00       157.80
  125.83        3349.50           6870          48.00       179.60
  125.86        3349.75           6873          46.00       170.88
  125.89        3350.00           6877          43.00       157.80
  125.93        3350.25           6881          46.00       170.88
  125.96        3350.50           6885          50.00       188.32
  125.99        3350.75           6888          45.00       166.52
  126.02        3351.00           6892          48.00       179.60
HL scan finished at 02:06:51
end
************************************************************
  HL Scan of (1) Internal mercury lamp
************************************************************
Integration time is 0.2294 seconds per sample
dh250519Izana 28.3081 16.4992 2.857833pr770
************************************************************
Dead Time -------------------------  2.7E-08 
Number of Cycles Used -------------  4 
Starting Wavelength (Angstroms) ---  3331 
Final Wavelength (Angstoms) -------  3351 
Wavelength Increment (Angstroms) --  .25 
Filter Wheel #1 Position ---------- (1) Ground quartz diffuser (ND=2.32)
Filter Wheel #2 Position ---------- 



************************************************************
HL scan start time = 04:25:50
Dark Count =  7.4 


Time (GMT)  Wavelength (Ang)  Step Number  Raw Counts  Counts/Second

  266.31        3331.00           6593          39.00       137.75
  266.54        3331.25           6597          44.00       159.55
  266.57        3331.50           6600          39.00       137.75
  266.60        3331.75           6604          39.00       137.75
  266.63        3332.00           6608          35.00       120.31
  266.66        3332.25           6612          40.00       142.11
  266.69        3332.50           6615          49.00       181.34
  266.72        3332.75           6619          37.00       129.03
  266.76        3333.00           6623          49.00       181.34
  266.79        3333.25           6627          42.00       150.83
  266.82        3333.50           6630          43.00       155.19
  266.85        3333.75           6634          53.00       198.78
  266.88        3334.00           6638          61.00       233.65
  266.91        3334.25           6642          77.00       303.40
  266.95        3334.50           6645          98.00       394.95
  266.98        3334.75           6649         119.00       486.49
  267.01        3335.00           6653         137.00       564.96
  267.04        3335.25           6656         148.00       612.91
  267.07        3335.50           6660         167.00       695.74
  267.10        3335.75           6664         193.00       809.08
  267.14        3336.00           6668         467.00      2003.60
  267.17        3336.25           6671        1187.00      5142.82
  267.20        3336.50           6675        2211.00      9608.42
  267.23        3336.75           6679        3692.00     16068.87
  267.26        3337.00           6683        4963.00     21615.05
  267.29        3337.25           6686        5549.00     24172.70
  267.32        3337.50           6690        6785.00     29568.50
  267.36        3337.75           6694        8105.00     35332.73
  267.39        3338.00           6698        9655.00     42103.64
  267.42        3338.25           6701       11115.00     48483.65
  267.45        3338.50           6705       13013.00     56780.97
  267.48        3338.75           6709       14858.00     64850.15
  267.51        3339.00           6712       16295.00     71137.38
  267.55        3339.25           6716       17790.00     77680.63
  267.58        3339.50           6720       19443.00     84918.09
  267.61        3339.75           6724       20829.00     90988.74
  267.64        3340.00           6727       22145.00     96754.61
  267.67        3340.25           6731       23255.00    101619.30
  267.70        3340.50           6735       24192.00    105726.90
  267.74        3340.75           6739       25262.00    110418.50
  267.77        3341.00           6742       26083.00    114019.20
  267.80        3341.25           6746       26966.00    117892.50
  267.83        3341.50           6750       27318.00    119436.90
  267.86        3341.75           6754       27175.00    118809.50
  267.90        3342.00           6757       26484.00    115778.10
  267.93        3342.25           6761       25297.00    110572.00
  267.96        3342.50           6765       23457.00    102504.80
  267.99        3342.75           6769       21546.00     94129.96
  268.02        3343.00           6772       21140.00     92351.18
  268.05        3343.25           6776       20323.00     88772.24
  268.09        3343.50           6780       18541.00     80968.46
  268.12        3343.75           6784       17099.00     74656.00
  268.15        3344.00           6787       16081.00     70200.94
  268.18        3344.25           6791       14739.00     64329.60
  268.21        3344.50           6795       13101.00     57165.76
  268.24        3344.75           6799       11604.00     50621.02
  268.28        3345.00           6802       10473.00     45677.92
  268.31        3345.25           6806        8668.00     37791.81
  268.34        3345.50           6810        6920.00     30157.94
  268.37        3345.75           6814        5569.00     24260.00
  268.40        3346.00           6817        4076.00     17744.33
  268.43        3346.25           6821        2980.00     12962.69
  268.47        3346.50           6825        1485.00      6442.27
  268.50        3346.75           6828         715.00      3084.83
  268.53        3347.00           6832         287.00      1218.87
  268.56        3347.25           6836         121.00       495.21
  268.59        3347.50           6840          81.00       320.84
  268.62        3347.75           6843          63.00       242.37
  268.65        3348.00           6847          63.00       242.37
  268.69        3348.25           6851          45.00       163.91
  268.72        3348.50           6855          53.00       198.78
  268.75        3348.75           6858          47.00       172.63
  268.78        3349.00           6862          47.00       172.63
  268.81        3349.25           6866          52.00       194.42
  268.84        3349.50           6870          46.00       168.27
  268.87        3349.75           6873          46.00       168.27
  268.91        3350.00           6877          52.00       194.42
  268.94        3350.25           6881          46.00       168.27
  268.97        3350.50           6885          49.00       181.34
  269.00        3350.75           6888          42.00       150.83
  269.03        3351.00           6892          43.00       155.19
HL scan finished at 04:29:52
end
************************************************************
  HL Scan of (1) Internal mercury lamp
************************************************************
Integration time is 0.2294 seconds per sample
dh250519Izana 28.3081 16.4992 2.911481pr770
************************************************************
Dead Time -------------------------  2.7E-08 
Number of Cycles Used -------------  4 
Starting Wavelength (Angstroms) ---  3331 
Final Wavelength (Angstoms) -------  3351 
Wavelength Increment (Angstroms) --  .25 
Filter Wheel #1 Position ---------- (1) Ground quartz diffuser (ND=2.32)
Filter Wheel #2 Position ---------- 



************************************************************
HL scan start time = 21:33:20
Dark Count =  7.1 


Time (GMT)  Wavelength (Ang)  Step Number  Raw Counts  Counts/Second

 1293.81        3331.00           6593          40.00       143.42
 1294.03        3331.25           6597          40.00       143.42
 1294.07        3331.50           6600          51.00       191.37
 1294.10        3331.75           6604          45.00       165.21
 1294.13        3332.00           6608          47.00       173.93
 1294.16        3332.25           6612          47.00       173.93
 1294.19        3332.50           6615          40.00       143.42
 1294.22        3332.75           6619          42.00       152.14
 1294.25        3333.00           6623          44.00       160.86
 1294.29        3333.25           6627          54.00       204.45
 1294.32        3333.50           6630          45.00       165.21
 1294.35        3333.75           6634          73.00       287.27
 1294.38        3334.00           6638          70.00       274.20
 1294.41        3334.25           6642          80.00       317.79
 1294.44        3334.50           6645          95.00       383.18
 1294.48        3334.75           6649         119.00       487.80
 1294.51        3335.00           6653         138.00       570.63
 1294.54        3335.25           6656         155.00       644.74
 1294.57        3335.50           6660         172.00       718.85
 1294.60        3335.75           6664         182.00       762.44
 1294.63        3336.00           6668         418.00      1791.28
 1294.67        3336.25           6671        1061.00      4594.73
 1294.70        3336.50           6675        2290.00      9954.29
 1294.73        3336.75           6679        3664.00     15948.02
 1294.76        3337.00           6683        4835.00     21057.74
 1294.79        3337.25           6686        5562.00     24230.76
 1294.82        3337.50           6690        6688.00     29146.29
 1294.86        3337.75           6694        8278.00     36089.64
 1294.89        3338.00           6698       10168.00     44346.44
 1294.92        3338.25           6701       11624.00     50709.75
 1294.95        3338.50           6705       13562.00     59182.99
 1294.98        3338.75           6709       15420.00     67310.10
 1295.01        3339.00           6712       16719.00     72994.21
 1295.05        3339.25           6716       18235.00     79630.05
 1295.08        3339.50           6720       19892.00     86885.81
 1295.11        3339.75           6724       21473.00     93811.43
 1295.14        3340.00           6727       22586.00     98688.52
 1295.17        3340.25           6731       23519.00    102777.80
 1295.20        3340.50           6735       24426.00    106754.10
 1295.24        3340.75           6739       25459.00    111283.70
 1295.27        3341.00           6742       26379.00    115318.90
 1295.30        3341.25           6746       27576.00    120570.20
 1295.33        3341.50           6750       27683.00    121039.60
 1295.36        3341.75           6754       27655.00    120916.80
 1295.40        3342.00           6757       26858.00    117420.10
 1295.43        3342.25           6761       25478.00    111367.10
 1295.46        3342.50           6765       23293.00    101787.20
 1295.49        3342.75           6769       21548.00     94140.02
 1295.52        3343.00           6772       20938.00     91467.55
 1295.55        3343.25           6776       20127.00     87915.07
 1295.59        3343.50           6780       18710.00     81709.71
 1295.62        3343.75           6784       17241.00     75278.83
 1295.65        3344.00           6787       16165.00     70569.82
 1295.68        3344.25           6791       14522.00     63381.70
 1295.71        3344.50           6795       12974.00     56611.75
 1295.74        3344.75           6799       11366.00     49582.03
 1295.78        3345.00           6802       10288.00     44870.81
 1295.81        3345.25           6806        8527.00     37177.24
 1295.84        3345.50           6810        6870.00     29940.93
 1295.87        3345.75           6814        5567.00     24252.58
 1295.90        3346.00           6817        3982.00     17335.49
 1295.93        3346.25           6821        2908.00     12649.92
 1295.97        3346.50           6825        1477.00      6408.69
 1296.00        3346.75           6828         707.00      3051.25
 1296.03        3347.00           6832         280.00      1189.66
 1296.06        3347.25           6836         119.00       487.80
 1296.09        3347.50           6840          95.00       383.18
 1296.12        3347.75           6843          60.00       230.60
 1296.15        3348.00           6847          61.00       234.96
 1296.19        3348.25           6851          56.00       213.17
 1296.22        3348.50           6855          60.00       230.60
 1296.25        3348.75           6858          48.00       178.29
 1296.28        3349.00           6862          48.00       178.29
 1296.31        3349.25           6866          44.00       160.86
 1296.34        3349.50           6870          45.00       165.21
 1296.38        3349.75           6873          41.00       147.78
 1296.41        3350.00           6877          40.00       143.42
 1296.44        3350.25           6881          48.00       178.29
 1296.47        3350.50           6885          46.00       169.57
 1296.50        3350.75           6888          46.00       169.57
 1296.53        3351.00           6892          37.00       130.34
HL scan finished at 21:37:22
end
