************************************************************
  HL Scan of (1) Internal mercury lamp
************************************************************
Integration time is 0.2294 seconds per sample
dh280519Izana 28.3081 16.4992 2.857833pr770
************************************************************
Dead Time -------------------------  2.7E-08 
Number of Cycles Used -------------  4 
Starting Wavelength (Angstroms) ---  3331 
Final Wavelength (Angstoms) -------  3351 
Wavelength Increment (Angstroms) --  .25 
Filter Wheel #1 Position ---------- (1) Ground quartz diffuser (ND=2.32)
Filter Wheel #2 Position ---------- 



************************************************************
HL scan start time = 04:23:44
Dark Count =  8.7 


Time (GMT)  Wavelength (Ang)  Step Number  Raw Counts  Counts/Second

  264.22        3331.00           6593          39.00       132.08
  264.44        3331.25           6597          44.00       153.88
  264.47        3331.50           6600          33.00       105.93
  264.50        3331.75           6604          47.00       166.96
  264.53        3332.00           6608          41.00       140.80
  264.57        3332.25           6612          38.00       127.72
  264.60        3332.50           6615          46.00       162.60
  264.63        3332.75           6619          45.00       158.24
  264.66        3333.00           6623          39.00       132.08
  264.69        3333.25           6627          46.00       162.60
  264.72        3333.50           6630          46.00       162.60
  264.76        3333.75           6634          55.00       201.83
  264.79        3334.00           6638          62.00       232.35
  264.82        3334.25           6642          80.00       310.81
  264.85        3334.50           6645          95.00       376.20
  264.88        3334.75           6649         103.00       411.08
  264.91        3335.00           6653         136.00       554.93
  264.94        3335.25           6656         145.00       594.17
  264.98        3335.50           6660         157.00       646.48
  265.01        3335.75           6664         188.00       781.62
  265.04        3336.00           6668         351.00      1492.21
  265.07        3336.25           6671         944.00      4077.61
  265.10        3336.50           6675        1944.00      8438.28
  265.13        3336.75           6679        3298.00     14344.26
  265.17        3337.00           6683        4272.00     18593.90
  265.20        3337.25           6686        5081.00     22124.37
  265.23        3337.50           6690        6354.00     27681.10
  265.26        3337.75           6694        7637.00     33283.17
  265.29        3338.00           6698        9491.00     41381.43
  265.32        3338.25           6701       10666.00     46515.67
  265.36        3338.50           6705       12538.00     54698.42
  265.39        3338.75           6709       14375.00     62731.71
  265.42        3339.00           6712       15361.00     67044.98
  265.45        3339.25           6716       16785.00     73276.05
  265.48        3339.50           6720       18349.00     80122.15
  265.52        3339.75           6724       19901.00     86918.21
  265.55        3340.00           6727       21032.00     91872.34
  265.58        3340.25           6731       22061.00     96380.83
  265.61        3340.50           6735       23040.00    100671.30
  265.64        3340.75           6739       24214.00    105817.60
  265.68        3341.00           6742       25084.00    109632.30
  265.71        3341.25           6746       26238.00    114693.30
  265.74        3341.50           6750       26656.00    116526.90
  265.77        3341.75           6754       26386.00    115342.50
  265.80        3342.00           6757       25865.00    113057.30
  265.83        3342.25           6761       24565.00    107356.50
  265.87        3342.50           6765       22614.00     98804.21
  265.90        3342.75           6769       20984.00     91662.06
  265.93        3343.00           6772       20329.00     88792.84
  265.96        3343.25           6776       19647.00     85805.81
  265.99        3343.50           6780       18278.00     79811.30
  266.03        3343.75           6784       16850.00     73560.52
  266.06        3344.00           6787       15687.00     68471.28
  266.09        3344.25           6791       14424.00     62946.04
  266.12        3344.50           6795       12982.00     56639.74
  266.15        3344.75           6799       11332.00     49426.42
  266.18        3345.00           6802       10162.00     44313.24
  266.22        3345.25           6806        8647.00     37694.40
  266.25        3345.50           6810        7035.00     30654.39
  266.28        3345.75           6814        5745.00     25022.57
  266.31        3346.00           6817        4204.00     18297.18
  266.34        3346.25           6821        3054.00     13279.83
  266.37        3346.50           6825        1579.00      6846.51
  266.41        3346.75           6828         789.00      3401.80
  266.44        3347.00           6832         330.00      1400.66
  266.47        3347.25           6836         123.00       498.26
  266.50        3347.50           6840          98.00       389.28
  266.53        3347.75           6843          75.00       289.02
  266.56        3348.00           6847          68.00       258.50
  266.60        3348.25           6851          51.00       184.39
  266.63        3348.50           6855          57.00       210.55
  266.66        3348.75           6858          51.00       184.39
  266.69        3349.00           6862          43.00       149.52
  266.72        3349.25           6866          44.00       153.88
  266.75        3349.50           6870          43.00       149.52
  266.79        3349.75           6873          43.00       149.52
  266.82        3350.00           6877          47.00       166.96
  266.85        3350.25           6881          49.00       175.68
  266.88        3350.50           6885          40.00       136.44
  266.91        3350.75           6888          46.00       162.60
  266.94        3351.00           6892          44.00       153.88
HL scan finished at 04:27:47
end
************************************************************
  HL Scan of (1) Internal mercury lamp
************************************************************
Integration time is 0.2294 seconds per sample
dh280519Izana 28.3081 16.4992 2.857833pr770
************************************************************
Dead Time -------------------------  2.7E-08 
Number of Cycles Used -------------  4 
Starting Wavelength (Angstroms) ---  3331 
Final Wavelength (Angstoms) -------  3351 
Wavelength Increment (Angstroms) --  .25 
Filter Wheel #1 Position ---------- (1) Ground quartz diffuser (ND=2.32)
Filter Wheel #2 Position ---------- 



************************************************************
HL scan start time = 21:30:39
Dark Count =  5.3 


Time (GMT)  Wavelength (Ang)  Step Number  Raw Counts  Counts/Second

 1291.13        3331.00           6593          45.00       173.06
 1291.36        3331.25           6597          35.00       129.47
 1291.39        3331.50           6600          39.00       146.91
 1291.42        3331.75           6604          40.00       151.26
 1291.45        3332.00           6608          41.00       155.62
 1291.48        3332.25           6612          44.00       168.70
 1291.52        3332.50           6615          45.00       173.06
 1291.55        3332.75           6619          38.00       142.55
 1291.58        3333.00           6623          42.00       159.98
 1291.61        3333.25           6627          49.00       190.50
 1291.64        3333.50           6630          50.00       194.86
 1291.67        3333.75           6634          51.00       199.22
 1291.70        3334.00           6638          58.00       229.73
 1291.74        3334.25           6642          76.00       308.20
 1291.77        3334.50           6645          94.00       386.66
 1291.80        3334.75           6649         113.00       469.49
 1291.83        3335.00           6653         135.00       565.40
 1291.86        3335.25           6656         147.00       617.71
 1291.89        3335.50           6660         153.00       643.86
 1291.93        3335.75           6664         185.00       783.36
 1291.96        3336.00           6668         319.00      1367.53
 1291.99        3336.25           6671         820.00      3551.78
 1292.02        3336.50           6675        2081.00      9050.60
 1292.05        3336.75           6679        3409.00     14843.35
 1292.08        3337.00           6683        4446.00     19368.02
 1292.12        3337.25           6686        4907.00     21379.82
 1292.15        3337.50           6690        6060.00     26412.47
 1292.18        3337.75           6694        7688.00     33520.74
 1292.21        3338.00           6698        9620.00     41959.89
 1292.24        3338.25           6701       10920.00     47640.58
 1292.27        3338.50           6705       12769.00     55723.27
 1292.31        3338.75           6709       14574.00     63617.03
 1292.34        3339.00           6712       15440.00     67405.48
 1292.37        3339.25           6716       17268.00     75404.88
 1292.40        3339.50           6720       18839.00     82282.43
 1292.43        3339.75           6724       20438.00     89285.16
 1292.47        3340.00           6727       21542.00     94121.62
 1292.50        3340.25           6731       22638.00     98924.29
 1292.53        3340.50           6735       23493.00    102671.80
 1292.56        3340.75           6739       24348.00    106420.00
 1292.59        3341.00           6742       25244.00    110348.80
 1292.62        3341.25           6746       26324.00    115085.50
 1292.66        3341.50           6750       26811.00    117221.80
 1292.69        3341.75           6754       26719.00    116818.20
 1292.72        3342.00           6757       25829.00    112914.30
 1292.75        3342.25           6761       24491.00    107047.00
 1292.78        3342.50           6765       22837.00     99796.44
 1292.82        3342.75           6769       21237.00     92785.34
 1292.85        3343.00           6772       20535.00     89710.05
 1292.88        3343.25           6776       19388.00     84686.44
 1292.91        3343.50           6780       18405.00     80382.20
 1292.94        3343.75           6784       16930.00     73925.53
 1292.97        3344.00           6787       15828.00     69103.10
 1293.01        3344.25           6791       14172.00     61858.68
 1293.05        3344.50           6795       12714.00     55482.80
 1293.08        3344.75           6799       11308.00     49336.39
 1293.11        3345.00           6802       10113.00     44113.98
 1293.15        3345.25           6806        8667.00     37796.62
 1293.18        3345.50           6810        6866.00     29931.33
 1293.21        3345.75           6814        4887.00     21292.54
 1293.25        3346.00           6817        4171.00     18168.02
 1293.28        3346.25           6821        3036.00     13216.14
 1293.32        3346.50           6825        1621.00      7044.50
 1293.36        3346.75           6828         837.00      3625.90
 1293.40        3347.00           6832         334.00      1432.92
 1293.44        3347.25           6836         134.00       561.04
 1293.47        3347.50           6840          85.00       347.43
 1293.50        3347.75           6843          73.00       295.12
 1293.53        3348.00           6847          60.00       238.45
 1293.56        3348.25           6851          60.00       238.45
 1293.59        3348.50           6855          51.00       199.22
 1293.62        3348.75           6858          46.00       177.42
 1293.66        3349.00           6862          54.00       212.29
 1293.69        3349.25           6866          50.00       194.86
 1293.72        3349.50           6870          46.00       177.42
 1293.75        3349.75           6873          45.00       173.06
 1293.78        3350.00           6877          44.00       168.70
 1293.81        3350.25           6881          39.00       146.91
 1293.84        3350.50           6885          56.00       221.01
 1293.88        3350.75           6888          45.00       173.06
 1293.91        3351.00           6892          46.00       177.42
HL scan finished at 21:34:45
end
