************************************************************
  HL Scan of (1) Internal mercury lamp
************************************************************
Integration time is 0.2294 seconds per sample
dh220519Izana 28.3081 16.4992 2.857833pr770
************************************************************
Dead Time -------------------------  2.7E-08 
Number of Cycles Used -------------  4 
Starting Wavelength (Angstroms) ---  3331 
Final Wavelength (Angstoms) -------  3351 
Wavelength Increment (Angstroms) --  .25 
Filter Wheel #1 Position ---------- (1) Ground quartz diffuser (ND=2.32)
Filter Wheel #2 Position ---------- 



************************************************************
HL scan start time = 04:25:59
Dark Count =  7.4 


Time (GMT)  Wavelength (Ang)  Step Number  Raw Counts  Counts/Second

  266.47        3331.00           6593          44.00       159.55
  266.69        3331.25           6597          43.00       155.19
  266.72        3331.50           6600          40.00       142.11
  266.76        3331.75           6604          44.00       159.55
  266.79        3332.00           6608          44.00       159.55
  266.82        3332.25           6612          44.00       159.55
  266.85        3332.50           6615          43.00       155.19
  266.88        3332.75           6619          43.00       155.19
  266.91        3333.00           6623          46.00       168.27
  266.94        3333.25           6627          44.00       159.55
  266.98        3333.50           6630          50.00       185.70
  267.01        3333.75           6634          60.00       229.30
  267.04        3334.00           6638          61.00       233.65
  267.07        3334.25           6642          71.00       277.25
  267.10        3334.50           6645          95.00       381.87
  267.13        3334.75           6649         123.00       503.93
  267.16        3335.00           6653         137.00       564.96
  267.20        3335.25           6656         154.00       639.07
  267.23        3335.50           6660         158.00       656.51
  267.26        3335.75           6664         187.00       782.93
  267.29        3336.00           6668         348.00      1484.80
  267.32        3336.25           6671         848.00      3664.70
  267.35        3336.50           6675        1913.00      8308.75
  267.39        3336.75           6679        3394.00     14768.75
  267.42        3337.00           6683        4699.00     20462.92
  267.45        3337.25           6686        5332.00     23225.55
  267.48        3337.50           6690        6561.00     28590.51
  267.51        3337.75           6694        7940.00     34612.11
  267.54        3338.00           6698        9873.00     43056.13
  267.58        3338.25           6701       11133.00     48562.32
  267.61        3338.50           6705       13171.00     57471.85
  267.64        3338.75           6709       14741.00     64338.35
  267.67        3339.00           6712       16222.00     70817.93
  267.70        3339.25           6716       17786.00     77663.13
  267.74        3339.50           6720       19224.00     83959.08
  267.77        3339.75           6724       20587.00     89928.63
  267.80        3340.00           6727       21763.00     95080.75
  267.83        3340.25           6731       23021.00    100593.70
  267.86        3340.50           6735       24035.00    105038.50
  267.89        3340.75           6739       25127.00    109826.50
  267.93        3341.00           6742       26004.00    113672.70
  267.96        3341.25           6746       27073.00    118362.00
  267.99        3341.50           6750       27429.00    119923.90
  268.02        3341.75           6754       27278.00    119261.40
  268.05        3342.00           6757       26450.00    115629.00
  268.09        3342.25           6761       25068.00    109567.80
  268.12        3342.50           6765       23404.00    102272.40
  268.15        3342.75           6769       21641.00     94546.19
  268.18        3343.00           6772       20719.00     90506.86
  268.21        3343.25           6776       20038.00     87523.94
  268.24        3343.50           6780       18552.00     81016.61
  268.28        3343.75           6784       17137.00     74822.33
  268.31        3344.00           6787       16105.00     70305.96
  268.34        3344.25           6791       14577.00     63620.96
  268.37        3344.50           6795       12943.00     56474.89
  268.40        3344.75           6799       11580.00     50516.11
  268.43        3345.00           6802       10554.00     46031.89
  268.47        3345.25           6806        8814.00     38429.57
  268.50        3345.50           6810        7115.00     31009.39
  268.53        3345.75           6814        5606.00     24421.51
  268.56        3346.00           6817        4093.00     17818.51
  268.59        3346.25           6821        2968.00     12910.34
  268.63        3346.50           6825        1643.00      7131.28
  268.66        3346.75           6828         838.00      3621.10
  268.69        3347.00           6832         316.00      1345.30
  268.72        3347.25           6836         128.00       525.73
  268.75        3347.50           6840          90.00       360.07
  268.78        3347.75           6843          63.00       242.37
  268.81        3348.00           6847          65.00       251.09
  268.84        3348.25           6851          55.00       207.50
  268.88        3348.50           6855          56.00       211.86
  268.91        3348.75           6858          50.00       185.70
  268.94        3349.00           6862          47.00       172.63
  268.97        3349.25           6866          44.00       159.55
  269.00        3349.50           6870          46.00       168.27
  269.03        3349.75           6873          44.00       159.55
  269.07        3350.00           6877          52.00       194.42
  269.10        3350.25           6881          52.00       194.42
  269.13        3350.50           6885          43.00       155.19
  269.16        3350.75           6888          40.00       142.11
  269.19        3351.00           6892          40.00       142.11
HL scan finished at 04:30:02
end
************************************************************
  HL Scan of (1) Internal mercury lamp
************************************************************
Integration time is 0.2294 seconds per sample
dh220519Izana 28.3081 16.4992 2.804185pr770
************************************************************
Dead Time -------------------------  2.7E-08 
Number of Cycles Used -------------  4 
Starting Wavelength (Angstroms) ---  3331 
Final Wavelength (Angstoms) -------  3351 
Wavelength Increment (Angstroms) --  .25 
Filter Wheel #1 Position ---------- (1) Ground quartz diffuser (ND=2.32)
Filter Wheel #2 Position ---------- 



************************************************************
HL scan start time = 21:34:14
Dark Count =  6.1 


Time (GMT)  Wavelength (Ang)  Step Number  Raw Counts  Counts/Second

 1294.72        3331.00           6593          47.00       178.29
 1294.94        3331.25           6597          47.00       178.29
 1294.97        3331.50           6600          39.00       143.42
 1295.00        3331.75           6604          44.00       165.21
 1295.04        3332.00           6608          41.00       152.14
 1295.07        3332.25           6612          46.00       173.93
 1295.10        3332.50           6615          39.00       143.42
 1295.13        3332.75           6619          41.00       152.14
 1295.16        3333.00           6623          38.00       139.06
 1295.19        3333.25           6627          42.00       156.50
 1295.23        3333.50           6630          47.00       178.29
 1295.26        3333.75           6634          53.00       204.45
 1295.29        3334.00           6638          65.00       256.76
 1295.32        3334.25           6642          69.00       274.20
 1295.35        3334.50           6645         104.00       426.77
 1295.38        3334.75           6649         110.00       452.93
 1295.42        3335.00           6653         133.00       553.19
 1295.45        3335.25           6656         155.00       649.10
 1295.48        3335.50           6660         148.00       618.58
 1295.51        3335.75           6664         175.00       736.28
 1295.54        3336.00           6668         372.00      1595.10
 1295.57        3336.25           6671         944.00      4088.94
 1295.61        3336.50           6675        2119.00      9212.84
 1295.64        3336.75           6679        3479.00     15145.25
 1295.67        3337.00           6683        4572.00     19914.37
 1295.70        3337.25           6686        5254.00     22890.78
 1295.73        3337.50           6690        6460.00     28155.22
 1295.76        3337.75           6694        8047.00     35085.10
 1295.79        3338.00           6698        9782.00     42664.21
 1295.83        3338.25           6701       11129.00     48550.53
 1295.86        3338.50           6705       13240.00     57779.26
 1295.89        3338.75           6709       14833.00     64746.48
 1295.92        3339.00           6712       16234.00     70876.13
 1295.95        3339.25           6716       17917.00     78242.28
 1295.99        3339.50           6720       19280.00     84210.00
 1296.02        3339.75           6724       20832.00     91007.58
 1296.05        3340.00           6727       22075.00     96453.56
 1296.08        3340.25           6731       23080.00    100858.00
 1296.11        3340.50           6735       23947.00    104658.50
 1296.14        3340.75           6739       25079.00    109621.70
 1296.18        3341.00           6742       25969.00    113524.90
 1296.21        3341.25           6746       27052.00    118275.50
 1296.24        3341.50           6750       27541.00    120421.00
 1296.27        3341.75           6754       27417.00    119876.90
 1296.30        3342.00           6757       26686.00    116669.90
 1296.34        3342.25           6761       25208.00    110187.40
 1296.37        3342.50           6765       23366.00    102111.60
 1296.40        3342.75           6769       21443.00     93684.38
 1296.43        3343.00           6772       20866.00     91156.52
 1296.46        3343.25           6776       20182.00     88160.34
 1296.49        3343.50           6780       18647.00     81438.25
 1296.52        3343.75           6784       16982.00     74149.61
 1296.56        3344.00           6787       15920.00     69502.15
 1296.59        3344.25           6791       14466.00     63141.12
 1296.62        3344.50           6795       12918.00     56371.26
 1296.65        3344.75           6799       11445.00     49931.71
 1296.68        3345.00           6802       10255.00     44730.98
 1296.71        3345.25           6806        8584.00     37430.58
 1296.75        3345.50           6810        6935.00     30229.11
 1296.78        3345.75           6814        5572.00     24278.77
 1296.81        3346.00           6817        4128.00     17976.90
 1296.84        3346.25           6821        2898.00     12610.66
 1296.87        3346.50           6825        1518.00      6591.84
 1296.91        3346.75           6828         776.00      3356.45
 1296.94        3347.00           6832         338.00      1446.87
 1296.97        3347.25           6836         124.00       513.96
 1297.00        3347.50           6840          88.00       357.02
 1297.03        3347.75           6843          68.00       269.84
 1297.06        3348.00           6847          68.00       269.84
 1297.10        3348.25           6851          64.00       252.40
 1297.13        3348.50           6855          53.00       204.45
 1297.16        3348.75           6858          47.00       178.29
 1297.19        3349.00           6862          48.00       182.65
 1297.22        3349.25           6866          44.00       165.21
 1297.25        3349.50           6870          49.00       187.01
 1297.28        3349.75           6873          45.00       169.57
 1297.31        3350.00           6877          44.00       165.21
 1297.35        3350.25           6881          42.00       156.50
 1297.38        3350.50           6885          44.00       165.21
 1297.41        3350.75           6888          40.00       147.78
 1297.44        3351.00           6892          52.00       200.09
HL scan finished at 21:38:17
end
