************************************************************
  HL Scan of (1) Internal mercury lamp
************************************************************
Integration time is 0.2294 seconds per sample
dh240519Izana 28.3081 16.4992 2.911481pr770
************************************************************
Dead Time -------------------------  2.7E-08 
Number of Cycles Used -------------  4 
Starting Wavelength (Angstroms) ---  3331 
Final Wavelength (Angstoms) -------  3351 
Wavelength Increment (Angstroms) --  .25 
Filter Wheel #1 Position ---------- (1) Ground quartz diffuser (ND=2.32)
Filter Wheel #2 Position ---------- 



************************************************************
HL scan start time = 04:25:50
Dark Count =  7.3 


Time (GMT)  Wavelength (Ang)  Step Number  Raw Counts  Counts/Second

  266.32        3331.00           6593          43.00       155.62
  266.54        3331.25           6597          42.00       151.26
  266.57        3331.50           6600          49.00       181.78
  266.61        3331.75           6604          39.00       138.19
  266.64        3332.00           6608          47.00       173.06
  266.67        3332.25           6612          43.00       155.62
  266.70        3332.50           6615          36.00       125.11
  266.73        3332.75           6619          41.00       146.91
  266.76        3333.00           6623          42.00       151.26
  266.79        3333.25           6627          51.00       190.50
  266.83        3333.50           6630          44.00       159.98
  266.86        3333.75           6634          53.00       199.22
  266.89        3334.00           6638          71.00       277.68
  266.92        3334.25           6642          80.00       316.92
  266.95        3334.50           6645         105.00       425.90
  266.98        3334.75           6649         117.00       478.21
  267.01        3335.00           6653         138.00       569.76
  267.05        3335.25           6656         161.00       670.02
  267.08        3335.50           6660         184.00       770.29
  267.11        3335.75           6664         186.00       779.01
  267.14        3336.00           6668         476.00      2043.27
  267.17        3336.25           6671        1128.00      4886.00
  267.21        3336.50           6675        2178.00      9464.93
  267.24        3336.75           6679        3811.00     16588.51
  267.27        3337.00           6683        5120.00     22300.70
  267.30        3337.25           6686        5734.00     24980.67
  267.33        3337.50           6690        7092.00     30909.40
  267.36        3337.75           6694        8444.00     36813.82
  267.39        3338.00           6698       10326.00     45035.99
  267.43        3338.25           6701       11656.00     50848.76
  267.46        3338.50           6705       13399.00     58469.31
  267.49        3338.75           6709       15220.00     66434.23
  267.52        3339.00           6712       16488.00     71982.40
  267.55        3339.25           6716       18330.00     80045.08
  267.58        3339.50           6720       19900.00     86919.97
  267.62        3339.75           6724       21424.00     93595.86
  267.65        3340.00           6727       22590.00     98705.16
  267.68        3340.25           6731       23791.00    103969.30
  267.71        3340.50           6735       24891.00    108792.10
  267.74        3340.75           6739       26006.00    113681.90
  267.77        3341.00           6742       26856.00    117410.40
  267.81        3341.25           6746       27740.00    121288.90
  267.84        3341.50           6750       28044.00    122622.80
  267.87        3341.75           6754       27764.00    121394.20
  267.90        3342.00           6757       27034.00    118191.30
  267.93        3342.25           6761       25714.00    112401.20
  267.97        3342.50           6765       23697.00    103557.20
  268.00        3342.75           6769       22003.00     96132.81
  268.03        3343.00           6772       21473.00     93810.54
  268.06        3343.25           6776       20567.00     89841.46
  268.09        3343.50           6780       19041.00     83158.18
  268.13        3343.75           6784       17639.00     77020.07
  268.16        3344.00           6787       16556.00     72279.98
  268.19        3344.25           6791       14883.00     64959.96
  268.22        3344.50           6795       13291.00     57997.03
  268.25        3344.75           6799       11784.00     51408.28
  268.28        3345.00           6802       10482.00     45717.69
  268.31        3345.25           6806        8846.00     38569.79
  268.35        3345.50           6810        7303.00     31830.75
  268.38        3345.75           6814        5699.00     24827.89
  268.41        3346.00           6817        4006.00     17439.34
  268.44        3346.25           6821        2847.00     12382.95
  268.47        3346.50           6825        1429.00      6198.51
  268.50        3346.75           6828         724.00      3124.50
  268.54        3347.00           6832         281.00      1193.15
  268.57        3347.25           6836         130.00       534.88
  268.60        3347.50           6840          95.00       382.31
  268.63        3347.75           6843          71.00       277.68
  268.66        3348.00           6847          70.00       273.32
  268.69        3348.25           6851          53.00       199.22
  268.72        3348.50           6855          50.00       186.14
  268.76        3348.75           6858          48.00       177.42
  268.79        3349.00           6862          51.00       190.50
  268.82        3349.25           6866          40.00       142.55
  268.85        3349.50           6870          42.00       151.26
  268.88        3349.75           6873          51.00       190.50
  268.91        3350.00           6877          45.00       164.34
  268.95        3350.25           6881          45.00       164.34
  268.98        3350.50           6885          42.00       151.26
  269.01        3350.75           6888          49.00       181.78
  269.04        3351.00           6892          46.00       168.70
HL scan finished at 04:29:53
end
************************************************************
  HL Scan of (1) Internal mercury lamp
************************************************************
Integration time is 0.2294 seconds per sample
dh240519Izana 28.3081 16.4992 2.857833pr770
************************************************************
Dead Time -------------------------  2.7E-08 
Number of Cycles Used -------------  4 
Starting Wavelength (Angstroms) ---  3331 
Final Wavelength (Angstoms) -------  3351 
Wavelength Increment (Angstroms) --  .25 
Filter Wheel #1 Position ---------- (1) Ground quartz diffuser (ND=2.32)
Filter Wheel #2 Position ---------- 



************************************************************
HL scan start time = 21:32:33
Dark Count =  7.2 


Time (GMT)  Wavelength (Ang)  Step Number  Raw Counts  Counts/Second

 1293.03        3331.00           6593          44.00       160.42
 1293.25        3331.25           6597          47.00       173.50
 1293.29        3331.50           6600          44.00       160.42
 1293.33        3331.75           6604          46.00       169.14
 1293.37        3332.00           6608          44.00       160.42
 1293.41        3332.25           6612          47.00       173.50
 1293.44        3332.50           6615          46.00       169.14
 1293.47        3332.75           6619          44.00       160.42
 1293.50        3333.00           6623          48.00       177.86
 1293.53        3333.25           6627          48.00       177.86
 1293.56        3333.50           6630          46.00       169.14
 1293.59        3333.75           6634          52.00       195.29
 1293.62        3334.00           6638          65.00       251.96
 1293.66        3334.25           6642          75.00       295.56
 1293.69        3334.50           6645          97.00       391.46
 1293.72        3334.75           6649         114.00       465.57
 1293.75        3335.00           6653         136.00       561.47
 1293.79        3335.25           6656         158.00       657.38
 1293.82        3335.50           6660         171.00       714.05
 1293.85        3335.75           6664         193.00       809.96
 1293.88        3336.00           6668         287.00      1219.74
 1293.91        3336.25           6671         820.00      3543.50
 1293.95        3336.50           6675        2082.00      9046.67
 1293.98        3336.75           6679        3476.00     15127.36
 1294.01        3337.00           6683        4453.00     19390.27
 1294.04        3337.25           6686        5048.00     21986.89
 1294.07        3337.50           6690        6433.00     28032.55
 1294.10        3337.75           6694        8017.00     34949.27
 1294.14        3338.00           6698        9955.00     43415.30
 1294.17        3338.25           6701       11352.00     49520.40
 1294.20        3338.50           6705       13032.00     56864.92
 1294.23        3338.75           6709       15073.00     65791.58
 1294.26        3339.00           6712       16112.00     70337.46
 1294.29        3339.25           6716       17992.00     78565.78
 1294.32        3339.50           6720       19471.00     85041.60
 1294.36        3339.75           6724       21042.00     91922.72
 1294.39        3340.00           6727       22276.00     97329.54
 1294.42        3340.25           6731       23594.00    103106.20
 1294.45        3340.50           6735       24253.00    105995.20
 1294.48        3340.75           6739       25186.00    110086.10
 1294.52        3341.00           6742       26362.00    115243.80
 1294.55        3341.25           6746       27559.00    120495.10
 1294.58        3341.50           6750       28095.00    122847.10
 1294.61        3341.75           6754       27888.00    121938.70
 1294.64        3342.00           6757       27289.00    119310.50
 1294.67        3342.25           6761       25675.00    112230.60
 1294.71        3342.50           6765       23776.00    103904.00
 1294.74        3342.75           6769       21815.00     95309.48
 1294.77        3343.00           6772       21537.00     94091.40
 1294.80        3343.25           6776       20537.00     89710.50
 1294.83        3343.50           6780       19282.00     84213.94
 1294.86        3343.75           6784       17413.00     76031.25
 1294.90        3344.00           6787       16218.00     70801.30
 1294.93        3344.25           6791       14723.00     64260.48
 1294.96        3344.50           6795       13326.00     58150.51
 1294.99        3344.75           6799       11893.00     51885.19
 1295.02        3345.00           6802       10568.00     46093.95
 1295.06        3345.25           6806        9051.00     39465.74
 1295.09        3345.50           6810        7134.00     31093.22
 1295.12        3345.75           6814        5187.00     22593.55
 1295.15        3346.00           6817        4123.00     17950.29
 1295.18        3346.25           6821        3058.00     13303.82
 1295.21        3346.50           6825        1594.00      6918.47
 1295.24        3346.75           6828         811.00      3504.26
 1295.28        3347.00           6832         338.00      1442.08
 1295.31        3347.25           6836         140.00       578.91
 1295.34        3347.50           6840          95.00       382.74
 1295.37        3347.75           6843          78.00       308.63
 1295.40        3348.00           6847          74.00       291.20
 1295.43        3348.25           6851          59.00       225.81
 1295.46        3348.50           6855          46.00       169.14
 1295.49        3348.75           6858          55.00       208.37
 1295.53        3349.00           6862          45.00       164.78
 1295.56        3349.25           6866          58.00       221.45
 1295.59        3349.50           6870          43.00       156.06
 1295.62        3349.75           6873          49.00       182.22
 1295.65        3350.00           6877          43.00       156.06
 1295.68        3350.25           6881          43.00       156.06
 1295.71        3350.50           6885          42.00       151.70
 1295.75        3350.75           6888          43.00       156.06
 1295.78        3351.00           6892          42.00       151.70
HL scan finished at 21:36:37
end
