************************************************************
  HL Scan of (1) Internal mercury lamp
************************************************************
Integration time is 0.2294 seconds per sample
dh210519Izana 28.3081 16.4992 2.804185pr770
************************************************************
Dead Time -------------------------  2.7E-08 
Number of Cycles Used -------------  4 
Starting Wavelength (Angstroms) ---  3331 
Final Wavelength (Angstoms) -------  3351 
Wavelength Increment (Angstroms) --  .25 
Filter Wheel #1 Position ---------- (1) Ground quartz diffuser (ND=2.32)
Filter Wheel #2 Position ---------- 



************************************************************
HL scan start time = 04:26:58
Dark Count =  4.9 


Time (GMT)  Wavelength (Ang)  Step Number  Raw Counts  Counts/Second

  267.45        3331.00           6593          43.00       166.09
  267.67        3331.25           6597          40.00       153.01
  267.70        3331.50           6600          44.00       170.45
  267.74        3331.75           6604          44.00       170.45
  267.77        3332.00           6608          35.00       131.21
  267.80        3332.25           6612          42.00       161.73
  267.83        3332.50           6615          48.00       187.88
  267.86        3332.75           6619          41.00       157.37
  267.89        3333.00           6623          49.00       192.24
  267.93        3333.25           6627          39.00       148.65
  267.96        3333.50           6630          41.00       157.37
  267.99        3333.75           6634          57.00       227.12
  268.02        3334.00           6638          77.00       314.30
  268.05        3334.25           6642          76.00       309.94
  268.08        3334.50           6645         104.00       432.00
  268.12        3334.75           6649         120.00       501.75
  268.15        3335.00           6653         130.00       545.34
  268.18        3335.25           6656         145.00       610.73
  268.21        3335.50           6660         169.00       715.36
  268.24        3335.75           6664         185.00       785.11
  268.27        3336.00           6668         345.00      1482.62
  268.31        3336.25           6671         918.00      3980.81
  268.34        3336.50           6675        1970.00      8568.24
  268.37        3336.75           6679        3360.00     14631.33
  268.40        3337.00           6683        4638.00     20207.62
  268.43        3337.25           6686        5231.00     22795.63
  268.46        3337.50           6690        6450.00     28116.81
  268.50        3337.75           6694        7871.00     34321.68
  268.53        3338.00           6698        9701.00     42315.54
  268.56        3338.25           6701       10902.00     47563.66
  268.59        3338.50           6705       12845.00     56057.32
  268.62        3338.75           6709       14707.00     64200.56
  268.65        3339.00           6712       15907.00     69450.51
  268.69        3339.25           6716       17486.00     76360.85
  268.72        3339.50           6720       18747.00     81881.35
  268.75        3339.75           6724       20385.00     89054.76
  268.78        3340.00           6727       21527.00     94057.65
  268.81        3340.25           6731       22579.00     98667.47
  268.85        3340.50           6735       23405.00    102287.80
  268.88        3340.75           6739       24591.00    107487.20
  268.91        3341.00           6742       25600.00    111911.80
  268.94        3341.25           6746       26686.00    116675.20
  268.97        3341.50           6750       27207.00    118960.80
  269.00        3341.75           6754       26904.00    117631.50
  269.03        3342.00           6757       26204.00    114560.90
  269.07        3342.25           6761       24955.00    109083.20
  269.10        3342.50           6765       23133.00    101095.60
  269.13        3342.75           6769       21243.00     92813.38
  269.16        3343.00           6772       20582.00     89917.68
  269.19        3343.25           6776       19836.00     86650.18
  269.22        3343.50           6780       18433.00     80506.54
  269.26        3343.75           6784       16977.00     74132.98
  269.29        3344.00           6787       15993.00     69826.81
  269.32        3344.25           6791       14559.00     63553.17
  269.35        3344.50           6795       13119.00     57255.40
  269.38        3344.75           6799       11605.00     50636.32
  269.42        3345.00           6802       10347.00     45138.24
  269.45        3345.25           6806        8675.00     37833.31
  269.48        3345.50           6810        7150.00     31173.13
  269.51        3345.75           6814        5640.00     24580.83
  269.54        3346.00           6817        4186.00     18235.22
  269.57        3346.25           6821        3140.00     13671.57
  269.61        3346.50           6825        1667.00      7246.84
  269.64        3346.75           6828         758.00      3283.20
  269.67        3347.00           6832         319.00      1369.27
  269.70        3347.25           6836         122.00       510.47
  269.73        3347.50           6840          84.00       344.82
  269.76        3347.75           6843          75.00       305.58
  269.80        3348.00           6847          72.00       292.50
  269.83        3348.25           6851          62.00       248.91
  269.86        3348.50           6855          50.00       196.60
  269.89        3348.75           6858          47.00       183.52
  269.92        3349.00           6862          56.00       222.76
  269.95        3349.25           6866          41.00       157.37
  269.98        3349.50           6870          45.00       174.80
  270.02        3349.75           6873          50.00       196.60
  270.05        3350.00           6877          42.00       161.73
  270.08        3350.25           6881          39.00       148.65
  270.11        3350.50           6885          49.00       192.24
  270.14        3350.75           6888          44.00       170.45
  270.17        3351.00           6892          47.00       183.52
HL scan finished at 04:31:01
end
************************************************************
  HL Scan of (1) Internal mercury lamp
************************************************************
Integration time is 0.2294 seconds per sample
dh210519Izana 28.3081 16.4992 2.857833pr770
************************************************************
Dead Time -------------------------  2.7E-08 
Number of Cycles Used -------------  4 
Starting Wavelength (Angstroms) ---  3331 
Final Wavelength (Angstoms) -------  3351 
Wavelength Increment (Angstroms) --  .25 
Filter Wheel #1 Position ---------- (1) Ground quartz diffuser (ND=2.32)
Filter Wheel #2 Position ---------- 



************************************************************
HL scan start time = 21:35:15
Dark Count =  5.8 


Time (GMT)  Wavelength (Ang)  Step Number  Raw Counts  Counts/Second

 1295.73        3331.00           6593          42.00       157.80
 1295.95        3331.25           6597          46.00       175.24
 1295.98        3331.50           6600          41.00       153.44
 1296.01        3331.75           6604          43.00       162.16
 1296.04        3332.00           6608          35.00       127.29
 1296.08        3332.25           6612          42.00       157.80
 1296.11        3332.50           6615          36.00       131.65
 1296.14        3332.75           6619          40.00       149.09
 1296.17        3333.00           6623          50.00       192.68
 1296.20        3333.25           6627          45.00       170.88
 1296.23        3333.50           6630          48.00       183.96
 1296.26        3333.75           6634          55.00       214.47
 1296.30        3334.00           6638          70.00       279.86
 1296.33        3334.25           6642          82.00       332.17
 1296.36        3334.50           6645         114.00       471.67
 1296.39        3334.75           6649         116.00       480.39
 1296.42        3335.00           6653         157.00       659.12
 1296.45        3335.25           6656         151.00       632.97
 1296.49        3335.50           6660         169.00       711.43
 1296.52        3335.75           6664         202.00       855.29
 1296.55        3336.00           6668         566.00      2442.18
 1296.58        3336.25           6671        1282.00      5564.04
 1296.61        3336.50           6675        2428.00     10561.86
 1296.64        3336.75           6679        3771.00     16420.53
 1296.68        3337.00           6683        4832.00     21050.33
 1296.71        3337.25           6686        5613.00     24459.05
 1296.74        3337.50           6690        6856.00     29885.49
 1296.77        3337.75           6694        8384.00     36558.30
 1296.80        3338.00           6698       10106.00     44081.21
 1296.83        3338.25           6701       11497.00     50160.31
 1296.87        3338.50           6705       13524.00     59022.50
 1296.90        3338.75           6709       15207.00     66383.91
 1296.93        3339.00           6712       16547.00     72247.15
 1296.96        3339.25           6716       18258.00     79736.43
 1296.99        3339.50           6720       19905.00     86948.42
 1297.02        3339.75           6724       21267.00     92914.59
 1297.06        3340.00           6727       22307.00     97471.53
 1297.09        3340.25           6731       23551.00    102923.80
 1297.12        3340.50           6735       24406.00    106672.10
 1297.15        3340.75           6739       25707.00    112377.10
 1297.18        3341.00           6742       26494.00    115829.00
 1297.21        3341.25           6746       27423.00    119904.60
 1297.25        3341.50           6750       27663.00    120957.60
 1297.28        3341.75           6754       27595.00    120659.20
 1297.31        3342.00           6757       26931.00    117746.00
 1297.34        3342.25           6761       25380.00    110943.00
 1297.37        3342.50           6765       23307.00    101854.30
 1297.41        3342.75           6769       21776.00     95144.71
 1297.44        3343.00           6772       21137.00     92345.04
 1297.47        3343.25           6776       20522.00     89650.91
 1297.50        3343.50           6780       18943.00     82735.62
 1297.53        3343.75           6784       17186.00     75043.79
 1297.56        3344.00           6787       16118.00     70369.85
 1297.60        3344.25           6791       14749.00     64380.34
 1297.63        3344.50           6795       13003.00     56744.24
 1297.66        3344.75           6799       11681.00     50964.59
 1297.69        3345.00           6802       10475.00     45693.66
 1297.72        3345.25           6806        8726.00     38052.15
 1297.75        3345.50           6810        7025.00     30623.40
 1297.79        3345.75           6814        5387.00     23472.59
 1297.82        3346.00           6817        3848.00     16756.49
 1297.85        3346.25           6821        2783.00     12110.32
 1297.88        3346.50           6825        1454.00      6314.07
 1297.91        3346.75           6828         729.00      3152.84
 1297.94        3347.00           6832         300.00      1282.52
 1297.98        3347.25           6836         117.00       484.75
 1298.01        3347.50           6840          78.00       314.74
 1298.04        3347.75           6843          76.00       306.02
 1298.07        3348.00           6847          60.00       236.27
 1298.10        3348.25           6851          51.00       197.04
 1298.13        3348.50           6855          47.00       179.60
 1298.16        3348.75           6858          45.00       170.88
 1298.20        3349.00           6862          50.00       192.68
 1298.23        3349.25           6866          53.00       205.76
 1298.26        3349.50           6870          46.00       175.24
 1298.29        3349.75           6873          46.00       175.24
 1298.32        3350.00           6877          47.00       179.60
 1298.36        3350.25           6881          51.00       197.04
 1298.39        3350.50           6885          49.00       188.32
 1298.42        3350.75           6888          48.00       183.96
 1298.45        3351.00           6892          44.00       166.52
HL scan finished at 21:39:17
end
