************************************************************
  HL Scan of (1) Internal mercury lamp
************************************************************
Integration time is 0.2294 seconds per sample
dh270519Izana 28.3081 16.4992 2.857833pr770
************************************************************
Dead Time -------------------------  2.7E-08 
Number of Cycles Used -------------  4 
Starting Wavelength (Angstroms) ---  3331 
Final Wavelength (Angstoms) -------  3351 
Wavelength Increment (Angstroms) --  .25 
Filter Wheel #1 Position ---------- (1) Ground quartz diffuser (ND=2.32)
Filter Wheel #2 Position ---------- 



************************************************************
HL scan start time = 04:24:46
Dark Count =  6.4 


Time (GMT)  Wavelength (Ang)  Step Number  Raw Counts  Counts/Second

  265.25        3331.00           6593          39.00       142.11
  265.47        3331.25           6597          39.00       142.11
  265.50        3331.50           6600          41.00       150.83
  265.54        3331.75           6604          37.00       133.39
  265.57        3332.00           6608          44.00       163.91
  265.60        3332.25           6612          42.00       155.19
  265.63        3332.50           6615          44.00       163.91
  265.66        3332.75           6619          40.00       146.47
  265.69        3333.00           6623          43.00       159.55
  265.72        3333.25           6627          39.00       142.11
  265.76        3333.50           6630          50.00       190.06
  265.79        3333.75           6634          56.00       216.22
  265.82        3334.00           6638          64.00       251.09
  265.85        3334.25           6642          78.00       312.12
  265.88        3334.50           6645          99.00       403.67
  265.91        3334.75           6649         117.00       482.13
  265.95        3335.00           6653         130.00       538.80
  265.98        3335.25           6656         150.00       625.99
  266.01        3335.50           6660         168.00       704.46
  266.04        3335.75           6664         192.00       809.08
  266.07        3336.00           6668         430.00      1846.65
  266.10        3336.25           6671        1075.00      4658.82
  266.14        3336.50           6675        2137.00      9290.04
  266.17        3336.75           6679        3506.00     15261.74
  266.20        3337.00           6683        4908.00     21379.38
  266.23        3337.25           6686        5601.00     24404.04
  266.26        3337.50           6690        6728.00     29323.99
  266.29        3337.75           6694        8244.00     35944.20
  266.33        3338.00           6698        9949.00     43392.57
  266.36        3338.25           6701       11335.00     49449.59
  266.39        3338.50           6705       13077.00     57065.19
  266.42        3338.75           6709       14856.00     64845.78
  266.45        3339.00           6712       15956.00     69658.35
  266.48        3339.25           6716       17774.00     77614.97
  266.52        3339.50           6720       19365.00     84580.91
  266.55        3339.75           6724       20825.00     90975.59
  266.58        3340.00           6727       22015.00     96189.33
  266.61        3340.25           6731       23251.00    101606.20
  266.64        3340.50           6735       24018.00    104968.40
  266.68        3340.75           6739       25354.00    110826.30
  266.71        3341.00           6742       26350.00    115194.70
  266.74        3341.25           6746       27217.00    118998.10
  266.77        3341.50           6750       27658.00    120933.00
  266.80        3341.75           6754       27359.00    119621.10
  266.83        3342.00           6757       26696.00    116712.50
  266.87        3342.25           6761       25283.00    110515.00
  266.90        3342.50           6765       23324.00    101926.10
  266.93        3342.75           6769       21511.00     93980.98
  266.96        3343.00           6772       21063.00     92018.22
  266.99        3343.25           6776       20226.00     88351.76
  267.03        3343.50           6780       18660.00     81493.85
  267.06        3343.75           6784       17371.00     75850.91
  267.09        3344.00           6787       16196.00     70708.53
  267.12        3344.25           6791       14637.00     63887.80
  267.15        3344.50           6795       13183.00     57528.70
  267.18        3344.75           6799       11573.00     50489.88
  267.22        3345.00           6802       10367.00     45219.08
  267.25        3345.25           6806        8698.00     37927.22
  267.28        3345.50           6810        7171.00     31258.28
  267.31        3345.75           6814        5809.00     25311.98
  267.34        3346.00           6817        4060.00     17678.88
  267.37        3346.25           6821        2911.00     12666.06
  267.41        3346.50           6825        1488.00      6459.71
  267.44        3346.75           6828         752.00      3250.50
  267.47        3347.00           6832         312.00      1332.22
  267.50        3347.25           6836         122.00       503.93
  267.53        3347.50           6840          85.00       342.64
  267.56        3347.75           6843          78.00       312.12
  267.60        3348.00           6847          58.00       224.94
  267.63        3348.25           6851          47.00       176.98
  267.66        3348.50           6855          51.00       194.42
  267.69        3348.75           6858          50.00       190.06
  267.72        3349.00           6862          46.00       172.63
  267.76        3349.25           6866          53.00       203.14
  267.79        3349.50           6870          50.00       190.06
  267.82        3349.75           6873          43.00       159.55
  267.85        3350.00           6877          44.00       163.91
  267.88        3350.25           6881          41.00       150.83
  267.91        3350.50           6885          48.00       181.34
  267.94        3350.75           6888          56.00       216.22
  267.98        3351.00           6892          45.00       168.27
HL scan finished at 04:28:49
end
************************************************************
  HL Scan of (1) Internal mercury lamp
************************************************************
Integration time is 0.2294 seconds per sample
dh270519Izana 28.3081 16.4992 2.857833pr770
************************************************************
Dead Time -------------------------  2.7E-08 
Number of Cycles Used -------------  4 
Starting Wavelength (Angstroms) ---  3331 
Final Wavelength (Angstoms) -------  3351 
Wavelength Increment (Angstroms) --  .25 
Filter Wheel #1 Position ---------- (1) Ground quartz diffuser (ND=2.32)
Filter Wheel #2 Position ---------- 



************************************************************
HL scan start time = 21:31:34
Dark Count =  6.2 


Time (GMT)  Wavelength (Ang)  Step Number  Raw Counts  Counts/Second

 1292.05        3331.00           6593          47.00       177.86
 1292.27        3331.25           6597          42.00       156.06
 1292.30        3331.50           6600          43.00       160.42
 1292.34        3331.75           6604          42.00       156.06
 1292.37        3332.00           6608          35.00       125.55
 1292.40        3332.25           6612          41.00       151.70
 1292.43        3332.50           6615          44.00       164.78
 1292.46        3332.75           6619          43.00       160.42
 1292.49        3333.00           6623          45.00       169.14
 1292.53        3333.25           6627          46.00       173.50
 1292.56        3333.50           6630          48.00       182.22
 1292.59        3333.75           6634          49.00       186.57
 1292.62        3334.00           6638          59.00       230.17
 1292.65        3334.25           6642          82.00       330.43
 1292.68        3334.50           6645         101.00       413.26
 1292.71        3334.75           6649         109.00       448.13
 1292.75        3335.00           6653         129.00       535.32
 1292.78        3335.25           6656         142.00       591.99
 1292.81        3335.50           6660         147.00       613.79
 1292.84        3335.75           6664         175.00       735.85
 1292.87        3336.00           6668         343.00      1468.24
 1292.90        3336.25           6671         933.00      4040.55
 1292.94        3336.50           6675        2015.00      8758.83
 1292.97        3336.75           6679        3366.00     14651.83
 1293.01        3337.00           6683        4447.00     19368.45
 1293.05        3337.25           6686        5127.00     22336.05
 1293.08        3337.50           6690        6280.00     27368.95
 1293.12        3337.75           6694        7757.00     33818.13
 1293.15        3338.00           6698        9596.00     41851.10
 1293.18        3338.25           6701       10869.00     47413.76
 1293.22        3338.50           6705       12837.00     56016.66
 1293.25        3338.75           6709       14610.00     63770.57
 1293.29        3339.00           6712       15811.00     69024.77
 1293.32        3339.25           6716       17270.00     75409.71
 1293.36        3339.50           6720       18856.00     82352.93
 1293.40        3339.75           6724       20431.00     89250.56
 1293.44        3340.00           6727       21449.00     93710.22
 1293.47        3340.25           6731       22483.00     98241.06
 1293.50        3340.50           6735       23149.00    101160.00
 1293.53        3340.75           6739       24410.00    106687.90
 1293.56        3341.00           6742       25130.00    109844.90
 1293.59        3341.25           6746       26303.00    114989.40
 1293.62        3341.50           6750       26867.00    117463.50
 1293.66        3341.75           6754       26525.00    115963.20
 1293.69        3342.00           6757       25683.00    112270.10
 1293.72        3342.25           6761       24690.00    107915.60
 1293.75        3342.50           6765       22776.00     99525.16
 1293.78        3342.75           6769       20820.00     90954.57
 1293.82        3343.00           6772       20221.00     88330.74
 1293.85        3343.25           6776       19402.00     84743.81
 1293.88        3343.50           6780       18097.00     79029.84
 1293.91        3343.75           6784       16707.00     72945.63
 1293.94        3344.00           6787       15500.00     67664.04
 1293.97        3344.25           6791       13946.00     60866.30
 1294.01        3344.50           6795       12544.00     54735.58
 1294.04        3344.75           6799       11060.00     48248.52
 1294.07        3345.00           6802        9930.00     43310.42
 1294.10        3345.25           6806        8333.00     36333.79
 1294.13        3345.50           6810        6656.00     29010.51
 1294.17        3345.75           6814        5352.00     23318.08
 1294.20        3346.00           6817        4008.00     17452.86
 1294.23        3346.25           6821        2873.00     12501.17
 1294.26        3346.50           6825        1505.00      6534.72
 1294.29        3346.75           6828         721.00      3116.22
 1294.32        3347.00           6832         308.00      1315.65
 1294.36        3347.25           6836         115.00       474.29
 1294.39        3347.50           6840          98.00       400.18
 1294.42        3347.75           6843          73.00       291.20
 1294.45        3348.00           6847          64.00       251.96
 1294.48        3348.25           6851          47.00       177.86
 1294.51        3348.50           6855          60.00       234.53
 1294.54        3348.75           6858          56.00       217.09
 1294.58        3349.00           6862          46.00       173.50
 1294.61        3349.25           6866          44.00       164.78
 1294.64        3349.50           6870          46.00       173.50
 1294.67        3349.75           6873          47.00       177.86
 1294.70        3350.00           6877          38.00       138.62
 1294.73        3350.25           6881          45.00       169.14
 1294.77        3350.50           6885          41.00       151.70
 1294.80        3350.75           6888          38.00       138.62
 1294.83        3351.00           6892          44.00       164.78
HL scan finished at 21:35:40
end
