************************************************************
  HL Scan of (1) Internal mercury lamp
************************************************************
Integration time is 0.2294 seconds per sample
dh200519Izana 28.3081 16.4992 2.857833pr770
************************************************************
Dead Time -------------------------  2.7E-08 
Number of Cycles Used -------------  4 
Starting Wavelength (Angstroms) ---  3331 
Final Wavelength (Angstoms) -------  3351 
Wavelength Increment (Angstroms) --  .25 
Filter Wheel #1 Position ---------- (1) Ground quartz diffuser (ND=2.32)
Filter Wheel #2 Position ---------- 



************************************************************
HL scan start time = 04:27:58
Dark Count =  5.5 


Time (GMT)  Wavelength (Ang)  Step Number  Raw Counts  Counts/Second

  268.45        3331.00           6593          60.00       237.58
  268.68        3331.25           6597          37.00       137.32
  268.71        3331.50           6600          42.00       159.11
  268.74        3331.75           6604          39.00       146.03
  268.77        3332.00           6608          44.00       167.83
  268.80        3332.25           6612          42.00       159.11
  268.83        3332.50           6615          43.00       163.47
  268.87        3332.75           6619          40.00       150.39
  268.90        3333.00           6623          50.00       193.99
  268.93        3333.25           6627          40.00       150.39
  268.96        3333.50           6630          45.00       172.19
  268.99        3333.75           6634          47.00       180.91
  269.02        3334.00           6638          63.00       250.66
  269.05        3334.25           6642          65.00       259.37
  269.09        3334.50           6645          93.00       381.43
  269.12        3334.75           6649         104.00       429.39
  269.15        3335.00           6653         133.00       555.81
  269.18        3335.25           6656         141.00       590.68
  269.21        3335.50           6660         169.00       712.74
  269.24        3335.75           6664         177.00       747.62
  269.28        3336.00           6668         386.00      1658.75
  269.31        3336.25           6671        1020.00      4422.93
  269.34        3336.50           6675        2059.00      8953.78
  269.37        3336.75           6679        3494.00     15213.31
  269.40        3337.00           6683        4649.00     20253.01
  269.43        3337.25           6686        5396.00     23513.18
  269.46        3337.50           6690        6639.00     28939.35
  269.50        3337.75           6694        8026.00     34996.00
  269.53        3338.00           6698        9837.00     42907.14
  269.56        3338.25           6701       11056.00     48234.10
  269.59        3338.50           6705       13097.00     57156.58
  269.62        3338.75           6709       14768.00     64464.76
  269.65        3339.00           6712       16091.00     70253.02
  269.68        3339.25           6716       17517.00     76493.91
  269.72        3339.50           6720       19162.00     83695.90
  269.75        3339.75           6724       20721.00     90523.96
  269.78        3340.00           6727       21983.00     96053.06
  269.81        3340.25           6731       22938.00    100238.20
  269.84        3340.50           6735       23960.00    104718.10
  269.87        3340.75           6739       25182.00    110076.00
  269.91        3341.00           6742       26171.00    114413.50
  269.94        3341.25           6746       27121.00    118580.90
  269.97        3341.50           6750       27617.00    120757.10
  270.00        3341.75           6754       27402.00    119813.70
  270.03        3342.00           6757       26731.00    116870.00
  270.07        3342.25           6761       25304.00    110611.00
  270.10        3342.50           6765       23269.00    101689.00
  270.13        3342.75           6769       21460.00     93761.48
  270.16        3343.00           6772       20839.00     91040.86
  270.19        3343.25           6776       20307.00     88710.48
  270.22        3343.50           6780       18759.00     81931.26
  270.26        3343.75           6784       17208.00     75141.40
  270.29        3344.00           6787       16107.00     70323.03
  270.32        3344.25           6791       14859.00     64862.85
  270.35        3344.50           6795       13209.00     57646.33
  270.38        3344.75           6799       11437.00     49899.35
  270.42        3345.00           6802       10385.00     45301.68
  270.45        3345.25           6806        8584.00     37433.20
  270.48        3345.50           6810        7100.00     30952.19
  270.51        3345.75           6814        5668.00     24700.43
  270.54        3346.00           6817        4212.00     18346.05
  270.57        3346.25           6821        3020.00     13145.47
  270.60        3346.50           6825        1519.00      6598.82
  270.64        3346.75           6828         737.00      3189.03
  270.67        3347.00           6832         307.00      1314.34
  270.70        3347.25           6836         134.00       560.17
  270.73        3347.50           6840          91.00       372.72
  270.76        3347.75           6843          79.00       320.40
  270.79        3348.00           6847          67.00       268.09
  270.83        3348.25           6851          62.00       246.30
  270.86        3348.50           6855          46.00       176.55
  270.89        3348.75           6858          49.00       189.63
  270.92        3349.00           6862          46.00       176.55
  270.95        3349.25           6866          48.00       185.27
  270.98        3349.50           6870          40.00       150.39
  271.01        3349.75           6873          46.00       176.55
  271.05        3350.00           6877          48.00       185.27
  271.08        3350.25           6881          45.00       172.19
  271.11        3350.50           6885          47.00       180.91
  271.14        3350.75           6888          46.00       176.55
  271.17        3351.00           6892          44.00       167.83
HL scan finished at 04:32:01
end
************************************************************
  HL Scan of (1) Internal mercury lamp
************************************************************
Integration time is 0.2294 seconds per sample
dh200519Izana 28.3081 16.4992 2.857833pr770
************************************************************
Dead Time -------------------------  2.7E-08 
Number of Cycles Used -------------  4 
Starting Wavelength (Angstroms) ---  3331 
Final Wavelength (Angstoms) -------  3351 
Wavelength Increment (Angstroms) --  .25 
Filter Wheel #1 Position ---------- (1) Ground quartz diffuser (ND=2.32)
Filter Wheel #2 Position ---------- 



************************************************************
HL scan start time = 21:35:14
Dark Count =  7 


Time (GMT)  Wavelength (Ang)  Step Number  Raw Counts  Counts/Second

 1295.72        3331.00           6593          40.00       143.85
 1295.94        3331.25           6597          44.00       161.29
 1295.97        3331.50           6600          39.00       139.49
 1296.01        3331.75           6604          47.00       174.37
 1296.04        3332.00           6608          48.00       178.73
 1296.07        3332.25           6612          49.00       183.09
 1296.10        3332.50           6615          39.00       139.49
 1296.13        3332.75           6619          43.00       156.93
 1296.16        3333.00           6623          50.00       187.45
 1296.20        3333.25           6627          50.00       187.45
 1296.23        3333.50           6630          47.00       174.37
 1296.26        3333.75           6634          57.00       217.96
 1296.29        3334.00           6638          70.00       274.63
 1296.32        3334.25           6642          81.00       322.58
 1296.35        3334.50           6645         106.00       431.57
 1296.38        3334.75           6649         126.00       518.75
 1296.42        3335.00           6653         142.00       588.50
 1296.45        3335.25           6656         151.00       627.74
 1296.48        3335.50           6660         178.00       745.44
 1296.51        3335.75           6664         186.00       780.31
 1296.54        3336.00           6668         427.00      1830.95
 1296.57        3336.25           6671        1119.00      4848.06
 1296.61        3336.50           6675        2308.00     10033.23
 1296.64        3336.75           6679        3796.00     16524.37
 1296.67        3337.00           6683        4920.00     21429.14
 1296.70        3337.25           6686        5611.00     24445.07
 1296.73        3337.50           6690        6946.00     30273.21
 1296.76        3337.75           6694        8419.00     36705.93
 1296.79        3338.00           6698       10216.00     44556.62
 1296.83        3338.25           6701       11748.00     51252.22
 1296.86        3338.50           6705       13795.00     60202.40
 1296.89        3338.75           6709       15629.00     68224.96
 1296.92        3339.00           6712       16731.00     73047.16
 1296.95        3339.25           6716       18234.00     79626.10
 1296.98        3339.50           6720       19972.00     87236.62
 1297.02        3339.75           6724       21544.00     94122.94
 1297.05        3340.00           6727       22857.00     99876.64
 1297.08        3340.25           6731       24002.00    104895.60
 1297.11        3340.50           6735       24624.00    107622.70
 1297.14        3340.75           6739       25932.00    113358.60
 1297.18        3341.00           6742       26527.00    115968.50
 1297.21        3341.25           6746       27606.00    120702.20
 1297.24        3341.50           6750       28234.00    123457.90
 1297.27        3341.75           6754       27764.00    121395.50
 1297.30        3342.00           6757       26878.00    117508.20
 1297.33        3342.25           6761       25737.00    112503.40
 1297.37        3342.50           6765       23540.00    102870.30
 1297.40        3342.75           6769       21661.00     94635.58
 1297.43        3343.00           6772       20899.00     91297.14
 1297.46        3343.25           6776       20100.00     87797.25
 1297.49        3343.50           6780       18738.00     81832.75
 1297.52        3343.75           6784       17243.00     75288.03
 1297.56        3344.00           6787       16037.00     70010.16
 1297.59        3344.25           6791       14428.00     62970.98
 1297.62        3344.50           6795       13041.00     56905.15
 1297.65        3344.75           6799       11329.00     49420.74
 1297.68        3345.00           6802       10262.00     44757.63
 1297.71        3345.25           6806        8580.00     37409.17
 1297.75        3345.50           6810        6862.00     29906.44
 1297.78        3345.75           6814        5501.00     23964.94
 1297.81        3346.00           6817        4027.00     17532.27
 1297.84        3346.25           6821        2965.00     12899.00
 1297.87        3346.50           6825        1450.00      6291.39
 1297.90        3346.75           6828         717.00      3095.29
 1297.94        3347.00           6832         290.00      1233.69
 1297.97        3347.25           6836         123.00       505.67
 1298.00        3347.50           6840          87.00       348.74
 1298.03        3347.75           6843          71.00       278.99
 1298.06        3348.00           6847          65.00       252.84
 1298.09        3348.25           6851          57.00       217.96
 1298.13        3348.50           6855          51.00       191.81
 1298.16        3348.75           6858          50.00       187.45
 1298.19        3349.00           6862          54.00       204.88
 1298.22        3349.25           6866          53.00       200.52
 1298.25        3349.50           6870          41.00       148.21
 1298.28        3349.75           6873          55.00       209.24
 1298.32        3350.00           6877          48.00       178.73
 1298.35        3350.25           6881          46.00       170.01
 1298.38        3350.50           6885          50.00       187.45
 1298.41        3350.75           6888          45.00       165.65
 1298.44        3351.00           6892          41.00       148.21
HL scan finished at 21:39:17
end
