************************************************************
  HL Scan of (1) Internal mercury lamp
************************************************************
Integration time is 0.2294 seconds per sample
dh030619Izana 28.3081 16.4992 2.857833pr770
************************************************************
Dead Time -------------------------  2.7E-08 
Number of Cycles Used -------------  4 
Starting Wavelength (Angstroms) ---  3331 
Final Wavelength (Angstoms) -------  3351 
Wavelength Increment (Angstroms) --  .25 
Filter Wheel #1 Position ---------- (1) Ground quartz diffuser (ND=2.32)
Filter Wheel #2 Position ---------- 



************************************************************
HL scan start time = 04:22:03
Dark Count =  8.600001 


Time (GMT)  Wavelength (Ang)  Step Number  Raw Counts  Counts/Second

  262.54        3331.00           6593          42.00       145.60
  262.76        3331.25           6597          43.00       149.96
  262.79        3331.50           6600          41.00       141.24
  262.83        3331.75           6604          44.00       154.32
  262.86        3332.00           6608          34.00       110.72
  262.89        3332.25           6612          46.00       163.03
  262.92        3332.50           6615          34.00       110.72
  262.95        3332.75           6619          49.00       176.11
  262.98        3333.00           6623          49.00       176.11
  263.02        3333.25           6627          48.00       171.75
  263.05        3333.50           6630          44.00       154.32
  263.08        3333.75           6634          54.00       197.91
  263.11        3334.00           6638          69.00       263.30
  263.14        3334.25           6642          71.00       272.02
  263.18        3334.50           6645          99.00       394.08
  263.21        3334.75           6649         114.00       459.47
  263.24        3335.00           6653         132.00       537.93
  263.27        3335.25           6656         157.00       646.92
  263.30        3335.50           6660         155.00       638.20
  263.33        3335.75           6664         184.00       764.62
  263.37        3336.00           6668         402.00      1714.99
  263.40        3336.25           6671        1025.00      4431.22
  263.43        3336.50           6675        2121.00      9210.66
  263.46        3336.75           6679        3584.00     15592.44
  263.49        3337.00           6683        4803.00     20911.54
  263.53        3337.25           6686        5607.00     24420.63
  263.56        3337.50           6690        6684.00     29122.28
  263.59        3337.75           6694        8162.00     35576.45
  263.62        3338.00           6698       10074.00     43929.15
  263.65        3338.25           6701       11395.00     49702.23
  263.68        3338.50           6705       13073.00     57038.08
  263.71        3338.75           6709       15093.00     65872.95
  263.75        3339.00           6712       16194.00     70690.16
  263.78        3339.25           6716       17808.00     77754.18
  263.81        3339.50           6720       19045.00     83170.00
  263.84        3339.75           6724       20649.00     90194.97
  263.87        3340.00           6727       21808.00     95272.66
  263.91        3340.25           6731       22797.00     99606.68
  263.94        3340.50           6735       23765.00    103849.60
  263.97        3340.75           6739       24791.00    108347.90
  264.00        3341.00           6742       25867.00    113066.50
  264.03        3341.25           6746       26759.00    116979.20
  264.07        3341.50           6750       27228.00    119036.70
  264.10        3341.75           6754       26699.00    116716.00
  264.13        3342.00           6757       26056.00    113895.50
  264.16        3342.25           6761       24696.00    107931.30
  264.19        3342.50           6765       22996.00    100478.90
  264.23        3342.75           6769       21215.00     92674.49
  264.26        3343.00           6772       20356.00     88911.53
  264.29        3343.25           6776       19598.00     85591.65
  264.32        3343.50           6780       18215.00     79535.93
  264.35        3343.75           6784       16698.00     72895.74
  264.39        3344.00           6787       15694.00     68502.35
  264.42        3344.25           6791       14112.00     61581.82
  264.45        3344.50           6795       12689.00     55359.06
  264.48        3344.75           6799       11277.00     49186.47
  264.51        3345.00           6802       10029.00     43732.52
  264.55        3345.25           6806        8307.00     36209.76
  264.58        3345.50           6810        6651.00     28978.20
  264.61        3345.75           6814        5328.00     23202.85
  264.64        3346.00           6817        3667.00     15954.56
  264.67        3346.25           6821        2826.00     12285.68
  264.70        3346.50           6825        1460.00      6328.02
  264.74        3346.75           6828         691.00      2974.96
  264.77        3347.00           6832         275.00      1161.33
  264.80        3347.25           6836         115.00       463.82
  264.83        3347.50           6840          93.00       367.92
  264.86        3347.75           6843          76.00       293.81
  264.89        3348.00           6847          62.00       232.78
  264.93        3348.25           6851          54.00       197.91
  264.96        3348.50           6855          49.00       176.11
  264.99        3348.75           6858          51.00       184.83
  265.02        3349.00           6862          51.00       184.83
  265.05        3349.25           6866          43.00       149.96
  265.08        3349.50           6870          47.00       167.39
  265.11        3349.75           6873          54.00       197.91
  265.15        3350.00           6877          56.00       206.63
  265.18        3350.25           6881          40.00       136.88
  265.21        3350.50           6885          41.00       141.24
  265.24        3350.75           6888          40.00       136.88
  265.27        3351.00           6892          45.00       158.68
HL scan finished at 04:26:07
end
************************************************************
  HL Scan of (1) Internal mercury lamp
************************************************************
Integration time is 0.2294 seconds per sample
dh030619Izana 28.3081 16.4992 2.857833pr770
************************************************************
Dead Time -------------------------  2.7E-08 
Number of Cycles Used -------------  4 
Starting Wavelength (Angstroms) ---  3331 
Final Wavelength (Angstoms) -------  3351 
Wavelength Increment (Angstroms) --  .25 
Filter Wheel #1 Position ---------- (1) Ground quartz diffuser (ND=2.32)
Filter Wheel #2 Position ---------- 



************************************************************
HL scan start time = 21:30:27
Dark Count =  7.2 


Time (GMT)  Wavelength (Ang)  Step Number  Raw Counts  Counts/Second

 1290.93        3331.00           6593          43.00       156.06
 1291.16        3331.25           6597          39.00       138.62
 1291.19        3331.50           6600          46.00       169.14
 1291.22        3331.75           6604          51.00       190.93
 1291.25        3332.00           6608          43.00       156.06
 1291.28        3332.25           6612          43.00       156.06
 1291.31        3332.50           6615          41.00       147.34
 1291.35        3332.75           6619          52.00       195.29
 1291.38        3333.00           6623          45.00       164.78
 1291.41        3333.25           6627          41.00       147.34
 1291.44        3333.50           6630          44.00       160.42
 1291.47        3333.75           6634          57.00       217.09
 1291.50        3334.00           6638          77.00       304.27
 1291.54        3334.25           6642          84.00       334.79
 1291.57        3334.50           6645         108.00       439.41
 1291.60        3334.75           6649         108.00       439.41
 1291.63        3335.00           6653         143.00       591.99
 1291.66        3335.25           6656         152.00       631.22
 1291.70        3335.50           6660         158.00       657.38
 1291.73        3335.75           6664         202.00       849.19
 1291.76        3336.00           6668         473.00      2030.63
 1291.79        3336.25           6671         896.00      3874.86
 1291.82        3336.50           6675        2259.00      9818.64
 1291.86        3336.75           6679        3759.00     16362.07
 1291.89        3337.00           6683        4681.00     20385.24
 1291.92        3337.25           6686        5126.00     22327.32
 1291.95        3337.50           6690        6325.00     27561.04
 1291.98        3337.75           6694        7904.00     34455.76
 1292.02        3338.00           6698        9877.00     43074.48
 1292.05        3338.25           6701       11186.00     48794.85
 1292.08        3338.50           6705       12767.00     55706.22
 1292.11        3338.75           6709       14745.00     64356.72
 1292.14        3339.00           6712       15995.00     69825.50
 1292.18        3339.25           6716       17897.00     78149.91
 1292.21        3339.50           6720       19404.00     84748.19
 1292.24        3339.75           6724       20813.00     90919.53
 1292.27        3340.00           6727       21841.00     95423.40
 1292.30        3340.25           6731       23181.00    101295.90
 1292.34        3340.50           6735       23971.00    104758.80
 1292.37        3340.75           6739       25119.00    109792.30
 1292.40        3341.00           6742       25951.00    113441.10
 1292.43        3341.25           6746       26902.00    117612.70
 1292.46        3341.50           6750       27292.00    119323.70
 1292.49        3341.75           6754       27223.00    119020.90
 1292.53        3342.00           6757       26659.00    116546.70
 1292.56        3342.25           6761       25304.00    110603.60
 1292.59        3342.50           6765       23451.00    102479.30
 1292.62        3342.75           6769       21784.00     95173.64
 1292.66        3343.00           6772       21055.00     91979.68
 1292.69        3343.25           6776       19943.00     87108.74
 1292.72        3343.50           6780       18762.00     81936.96
 1292.75        3343.75           6784       17307.00     75567.28
 1292.78        3344.00           6787       16174.00     70608.77
 1292.82        3344.25           6791       14503.00     63298.15
 1292.85        3344.50           6795       13010.00     56768.73
 1292.88        3344.75           6799       11497.00     50154.18
 1292.91        3345.00           6802       10441.00     45538.96
 1292.94        3345.25           6806        8954.00     39042.01
 1292.98        3345.50           6810        7094.00     30918.57
 1293.02        3345.75           6814        4948.00     21550.46
 1293.06        3346.00           6817        3965.00     17260.88
 1293.10        3346.25           6821        2862.00     12448.82
 1293.15        3346.50           6825        1536.00      6665.54
 1293.18        3346.75           6828         757.00      3268.82
 1293.21        3347.00           6832         292.00      1241.54
 1293.25        3347.25           6836         121.00       496.08
 1293.28        3347.50           6840          92.00       369.66
 1293.31        3347.75           6843          73.00       286.84
 1293.35        3348.00           6847          68.00       265.04
 1293.38        3348.25           6851          59.00       225.81
 1293.41        3348.50           6855          49.00       182.22
 1293.45        3348.75           6858          57.00       217.09
 1293.49        3349.00           6862          47.00       173.50
 1293.53        3349.25           6866          47.00       173.50
 1293.57        3349.50           6870          49.00       182.22
 1293.62        3349.75           6873          43.00       156.06
 1293.66        3350.00           6877          41.00       147.34
 1293.69        3350.25           6881          49.00       182.22
 1293.73        3350.50           6885          47.00       173.50
 1293.76        3350.75           6888          46.00       169.14
 1293.79        3351.00           6892          48.00       177.86
HL scan finished at 21:34:37
end
