************************************************************
  HL Scan of (1) Internal mercury lamp
************************************************************
Integration time is 0.2294 seconds per sample
dh020619Izana 28.3081 16.4992 2.857833pr770
************************************************************
Dead Time -------------------------  2.7E-08 
Number of Cycles Used -------------  4 
Starting Wavelength (Angstroms) ---  3331 
Final Wavelength (Angstoms) -------  3351 
Wavelength Increment (Angstroms) --  .25 
Filter Wheel #1 Position ---------- (1) Ground quartz diffuser (ND=2.32)
Filter Wheel #2 Position ---------- 



************************************************************
HL scan start time = 04:22:07
Dark Count =  8 


Time (GMT)  Wavelength (Ang)  Step Number  Raw Counts  Counts/Second

  262.61        3331.00           6593          44.00       156.93
  262.83        3331.25           6597          45.00       161.29
  262.86        3331.50           6600          45.00       161.29
  262.89        3331.75           6604          43.00       152.57
  262.92        3332.00           6608          38.00       130.78
  262.96        3332.25           6612          41.00       143.85
  262.99        3332.50           6615          48.00       174.37
  263.02        3332.75           6619          41.00       143.85
  263.05        3333.00           6623          46.00       165.65
  263.08        3333.25           6627          42.00       148.21
  263.11        3333.50           6630          51.00       187.45
  263.15        3333.75           6634          51.00       187.45
  263.18        3334.00           6638          57.00       213.60
  263.21        3334.25           6642          74.00       287.71
  263.24        3334.50           6645         111.00       449.00
  263.27        3334.75           6649         114.00       462.08
  263.30        3335.00           6653         145.00       597.22
  263.34        3335.25           6656         146.00       601.58
  263.37        3335.50           6660         176.00       732.36
  263.40        3335.75           6664         178.00       741.08
  263.43        3336.00           6668         446.00      1909.43
  263.46        3336.25           6671        1047.00      4529.76
  263.49        3336.50           6675        2048.00      8894.90
  263.53        3336.75           6679        3701.00     16105.52
  263.56        3337.00           6683        4798.00     20892.34
  263.59        3337.25           6686        5597.00     24379.60
  263.62        3337.50           6690        6782.00     29552.78
  263.65        3337.75           6694        8163.00     35583.43
  263.69        3338.00           6698        9779.00     42642.80
  263.72        3338.25           6701       11160.00     48677.71
  263.75        3338.50           6705       12875.00     56174.94
  263.78        3338.75           6709       14538.00     63447.75
  263.81        3339.00           6712       15655.00     68334.34
  263.85        3339.25           6716       17425.00     76080.27
  263.88        3339.50           6720       18877.00     82437.00
  263.91        3339.75           6724       20437.00     89268.96
  263.94        3340.00           6727       21626.00     94477.84
  263.97        3340.25           6731       22692.00     99149.12
  264.01        3340.50           6735       23591.00    103089.50
  264.04        3340.75           6739       24984.00    109196.80
  264.07        3341.00           6742       25868.00    113073.50
  264.10        3341.25           6746       26817.00    117236.30
  264.14        3341.50           6750       27107.00    118508.50
  264.17        3341.75           6754       26800.00    117161.70
  264.20        3342.00           6757       26107.00    114121.80
  264.23        3342.25           6761       24848.00    108600.50
  264.26        3342.50           6765       22982.00    100420.10
  264.30        3342.75           6769       21255.00     92852.38
  264.33        3343.00           6772       20652.00     90210.74
  264.36        3343.25           6776       19951.00     87140.27
  264.39        3343.50           6780       18394.00     80322.22
  264.42        3343.75           6784       17098.00     74649.00
  264.46        3344.00           6787       16046.00     70045.18
  264.49        3344.25           6791       14412.00     62896.61
  264.52        3344.50           6795       12961.00     56550.97
  264.55        3344.75           6799       11363.00     49564.99
  264.58        3345.00           6802       10297.00     44906.21
  264.61        3345.25           6806        8608.00     37527.11
  264.65        3345.50           6810        7034.00     30653.09
  264.68        3345.75           6814        5662.00     24663.33
  264.71        3346.00           6817        3989.00     17362.10
  264.74        3346.25           6821        2883.00     12536.94
  264.77        3346.50           6825        1504.00      6522.51
  264.80        3346.75           6828         749.00      3230.45
  264.84        3347.00           6832         322.00      1368.84
  264.87        3347.25           6836         118.00       479.52
  264.90        3347.50           6840          94.00       374.89
  264.93        3347.75           6843          70.00       270.27
  264.96        3348.00           6847          64.00       244.12
  265.00        3348.25           6851          55.00       204.88
  265.03        3348.50           6855          53.00       196.16
  265.06        3348.75           6858          52.00       191.81
  265.09        3349.00           6862          53.00       196.16
  265.12        3349.25           6866          49.00       178.73
  265.15        3349.50           6870          51.00       187.45
  265.19        3349.75           6873          39.00       135.14
  265.22        3350.00           6877          49.00       178.73
  265.25        3350.25           6881          42.00       148.21
  265.28        3350.50           6885          42.00       148.21
  265.31        3350.75           6888          45.00       161.29
  265.35        3351.00           6892          47.00       170.01
HL scan finished at 04:26:11
end
************************************************************
  HL Scan of (1) Internal mercury lamp
************************************************************
Integration time is 0.2294 seconds per sample
dh020619Izana 28.3081 16.4992 2.857833pr770
************************************************************
Dead Time -------------------------  2.7E-08 
Number of Cycles Used -------------  4 
Starting Wavelength (Angstroms) ---  3331 
Final Wavelength (Angstoms) -------  3351 
Wavelength Increment (Angstroms) --  .25 
Filter Wheel #1 Position ---------- (1) Ground quartz diffuser (ND=2.32)
Filter Wheel #2 Position ---------- 



************************************************************
HL scan start time = 21:30:25
Dark Count =  6.6 


Time (GMT)  Wavelength (Ang)  Step Number  Raw Counts  Counts/Second

 1290.90        3331.00           6593          34.00       119.44
 1291.12        3331.25           6597          32.00       110.72
 1291.15        3331.50           6600          37.00       132.52
 1291.18        3331.75           6604          51.00       193.55
 1291.22        3332.00           6608          46.00       171.75
 1291.25        3332.25           6612          45.00       167.39
 1291.28        3332.50           6615          47.00       176.11
 1291.31        3332.75           6619          43.00       158.68
 1291.34        3333.00           6623          44.00       163.03
 1291.37        3333.25           6627          47.00       176.11
 1291.40        3333.50           6630          48.00       180.47
 1291.44        3333.75           6634          54.00       206.63
 1291.47        3334.00           6638          67.00       263.30
 1291.50        3334.25           6642          78.00       311.25
 1291.53        3334.50           6645          95.00       385.36
 1291.56        3334.75           6649         117.00       481.26
 1291.59        3335.00           6653         133.00       551.01
 1291.63        3335.25           6656         159.00       664.35
 1291.66        3335.50           6660         162.00       677.43
 1291.69        3335.75           6664         184.00       773.34
 1291.72        3336.00           6668         342.00      1462.13
 1291.75        3336.25           6671         751.00      3245.27
 1291.79        3336.50           6675        2049.00      8905.37
 1291.82        3336.75           6679        3502.00     15243.41
 1291.85        3337.00           6683        4620.00     20121.65
 1291.88        3337.25           6686        4991.00     21740.75
 1291.91        3337.50           6690        6246.00     27218.78
 1291.94        3337.75           6694        7755.00     33807.66
 1291.98        3338.00           6698        9865.00     43024.67
 1292.01        3338.25           6701       11334.00     49444.35
 1292.04        3338.50           6705       13090.00     57121.16
 1292.07        3338.75           6709       14900.00     65037.39
 1292.11        3339.00           6712       15999.00     69845.63
 1292.14        3339.25           6716       17757.00     77539.68
 1292.17        3339.50           6720       19176.00     83752.40
 1292.20        3339.75           6724       20874.00     91189.38
 1292.23        3340.00           6727       21896.00     95667.02
 1292.27        3340.25           6731       23263.00    101657.90
 1292.30        3340.50           6735       24043.00    105077.10
 1292.33        3340.75           6739       24906.00    108860.90
 1292.36        3341.00           6742       25805.00    112803.40
 1292.39        3341.25           6746       27207.00    118953.40
 1292.42        3341.50           6750       27348.00    119572.00
 1292.46        3341.75           6754       27387.00    119743.10
 1292.49        3342.00           6757       26606.00    116316.80
 1292.52        3342.25           6761       25123.00    109812.50
 1292.55        3342.50           6765       23385.00    102192.70
 1292.58        3342.75           6769       21505.00     93953.82
 1292.62        3343.00           6772       20907.00     91333.94
 1292.65        3343.25           6776       19791.00     86445.65
 1292.68        3343.50           6780       18706.00     81694.40
 1292.71        3343.75           6784       17197.00     75088.44
 1292.74        3344.00           6787       16192.00     70690.16
 1292.78        3344.25           6791       14564.00     63567.60
 1292.81        3344.50           6795       13014.00     56788.85
 1292.84        3344.75           6799       11513.00     50226.75
 1292.87        3345.00           6802       10508.00     45834.37
 1292.90        3345.25           6806        8882.00     38730.11
 1292.94        3345.50           6810        6874.00     29960.59
 1292.97        3345.75           6814        4897.00     21330.51
 1293.00        3346.00           6817        4047.00     17621.28
 1293.04        3346.25           6821        3150.00     13707.78
 1293.09        3346.50           6825        1677.00      7283.04
 1293.13        3346.75           6828         818.00      3537.39
 1293.17        3347.00           6832         343.00      1466.49
 1293.20        3347.25           6836         138.00       572.81
 1293.23        3347.50           6840          96.00       389.72
 1293.26        3347.75           6843          80.00       319.97
 1293.30        3348.00           6847          63.00       245.86
 1293.33        3348.25           6851          52.00       197.91
 1293.37        3348.50           6855          55.00       210.99
 1293.40        3348.75           6858          52.00       197.91
 1293.44        3349.00           6862          51.00       193.55
 1293.48        3349.25           6866          54.00       206.63
 1293.52        3349.50           6870          45.00       167.39
 1293.56        3349.75           6873          41.00       149.96
 1293.60        3350.00           6877          46.00       171.75
 1293.63        3350.25           6881          49.00       184.83
 1293.67        3350.50           6885          48.00       180.47
 1293.70        3350.75           6888          42.00       154.32
 1293.73        3351.00           6892          50.00       189.19
HL scan finished at 21:34:34
end
