************************************************************
  HL Scan of (1) Internal mercury lamp
************************************************************
Integration time is 0.2294 seconds per sample
dh070619Izana 28.3081 16.4992 2.911481pr770
************************************************************
Dead Time -------------------------  2.7E-08 
Number of Cycles Used -------------  4 
Starting Wavelength (Angstroms) ---  3331 
Final Wavelength (Angstoms) -------  3351 
Wavelength Increment (Angstroms) --  .25 
Filter Wheel #1 Position ---------- (1) Ground quartz diffuser (ND=2.32)
Filter Wheel #2 Position ---------- 



************************************************************
HL scan start time = 04:21:18
Dark Count =  6.6 


Time (GMT)  Wavelength (Ang)  Step Number  Raw Counts  Counts/Second

  261.78        3331.00           6593          44.00       163.03
  262.00        3331.25           6597          41.00       149.96
  262.03        3331.50           6600          40.00       145.60
  262.07        3331.75           6604          44.00       163.03
  262.10        3332.00           6608          45.00       167.39
  262.13        3332.25           6612          46.00       171.75
  262.16        3332.50           6615          44.00       163.03
  262.19        3332.75           6619          43.00       158.68
  262.22        3333.00           6623          42.00       154.32
  262.25        3333.25           6627          50.00       189.19
  262.29        3333.50           6630          52.00       197.91
  262.32        3333.75           6634          54.00       206.63
  262.35        3334.00           6638          71.00       280.73
  262.38        3334.25           6642          82.00       328.69
  262.41        3334.50           6645         102.00       415.87
  262.44        3334.75           6649         125.00       516.14
  262.48        3335.00           6653         152.00       633.84
  262.51        3335.25           6656         162.00       677.43
  262.54        3335.50           6660         186.00       782.06
  262.57        3335.75           6664         200.00       843.09
  262.60        3336.00           6668         495.00      2129.15
  262.63        3336.25           6671        1284.00      5569.28
  262.66        3336.50           6675        2456.00     10680.50
  262.70        3336.75           6679        3493.00     15204.15
  262.73        3337.00           6683        4761.00     20736.98
  262.76        3337.25           6686        5973.00     26027.00
  262.79        3337.50           6690        7168.00     31244.31
  262.82        3337.75           6694        8914.00     38869.89
  262.85        3338.00           6698       10164.00     44331.15
  262.89        3338.25           6701       12245.00     53426.62
  262.92        3338.50           6705       13742.00     59972.37
  262.95        3338.75           6709       15561.00     67929.19
  262.98        3339.00           6712       16734.00     73062.03
  263.01        3339.25           6716       18439.00     80525.37
  263.04        3339.50           6720       19847.00     86690.91
  263.08        3339.75           6724       21620.00     94457.69
  263.11        3340.00           6727       22333.00     97581.97
  263.14        3340.25           6731       23467.00    102552.10
  263.17        3340.50           6735       24533.00    107225.40
  263.20        3340.75           6739       25999.00    113654.30
  263.24        3341.00           6742       27050.00    118264.60
  263.27        3341.25           6746       27644.00    120870.70
  263.30        3341.50           6750       27965.00    122279.20
  263.33        3341.75           6754       27587.00    120620.60
  263.36        3342.00           6757       26631.00    116426.40
  263.39        3342.25           6761       25419.00    111110.50
  263.43        3342.50           6765       24076.00    105221.80
  263.46        3342.75           6769       22267.00     97292.74
  263.49        3343.00           6772       21344.00     93248.44
  263.52        3343.25           6776       20343.00     88863.35
  263.55        3343.50           6780       19145.00     83616.65
  263.58        3343.75           6784       17480.00     76327.15
  263.62        3344.00           6787       16233.00     70869.57
  263.65        3344.25           6791       14763.00     64438.08
  263.68        3344.50           6795       13177.00     57501.59
  263.71        3344.75           6799       11702.00     51052.89
  263.74        3345.00           6802       10520.00     45886.81
  263.77        3345.25           6806        8508.00     37096.43
  263.81        3345.50           6810        6556.00     28572.17
  263.84        3345.75           6814        5149.00     22430.32
  263.87        3346.00           6817        3934.00     17128.23
  263.90        3346.25           6821        2857.00     12429.63
  263.93        3346.50           6825        1400.00      6075.10
  263.97        3346.75           6828         678.00      2927.00
  264.00        3347.00           6832         262.00      1113.37
  264.03        3347.25           6836         110.00       450.75
  264.06        3347.50           6840          77.00       306.89
  264.09        3347.75           6843          73.00       289.45
  264.12        3348.00           6847          66.00       258.94
  264.15        3348.25           6851          51.00       193.55
  264.19        3348.50           6855          49.00       184.83
  264.22        3348.75           6858          49.00       184.83
  264.25        3349.00           6862          49.00       184.83
  264.28        3349.25           6866          46.00       171.75
  264.31        3349.50           6870          49.00       184.83
  264.34        3349.75           6873          48.00       180.47
  264.37        3350.00           6877          49.00       184.83
  264.41        3350.25           6881          38.00       136.88
  264.44        3350.50           6885          50.00       189.19
  264.47        3350.75           6888          50.00       189.19
  264.50        3351.00           6892          45.00       167.39
HL scan finished at 04:25:20
end
************************************************************
  HL Scan of (1) Internal mercury lamp
************************************************************
Integration time is 0.2294 seconds per sample
dh070619Izana 28.3081 16.4992 2.857833pr770
************************************************************
Dead Time -------------------------  2.7E-08 
Number of Cycles Used -------------  4 
Starting Wavelength (Angstroms) ---  3331 
Final Wavelength (Angstoms) -------  3351 
Wavelength Increment (Angstroms) --  .25 
Filter Wheel #1 Position ---------- (1) Ground quartz diffuser (ND=2.32)
Filter Wheel #2 Position ---------- 



************************************************************
HL scan start time = 22:09:40
Dark Count =  7.4 


Time (GMT)  Wavelength (Ang)  Step Number  Raw Counts  Counts/Second

 1330.15        3331.00           6593          39.00       137.75
 1330.37        3331.25           6597          40.00       142.11
 1330.40        3331.50           6600          46.00       168.27
 1330.43        3331.75           6604          47.00       172.63
 1330.46        3332.00           6608          40.00       142.11
 1330.49        3332.25           6612          43.00       155.19
 1330.53        3332.50           6615          48.00       176.98
 1330.56        3332.75           6619          42.00       150.83
 1330.59        3333.00           6623          42.00       150.83
 1330.62        3333.25           6627          41.00       146.47
 1330.65        3333.50           6630          52.00       194.42
 1330.68        3333.75           6634          54.00       203.14
 1330.71        3334.00           6638          60.00       229.30
 1330.75        3334.25           6642          87.00       347.00
 1330.78        3334.50           6645          91.00       364.43
 1330.81        3334.75           6649         109.00       442.90
 1330.84        3335.00           6653         123.00       503.93
 1330.87        3335.25           6656         137.00       564.96
 1330.90        3335.50           6660         149.00       617.27
 1330.93        3335.75           6664         182.00       761.13
 1330.97        3336.00           6668         355.00      1515.32
 1331.00        3336.25           6671         924.00      3996.07
 1331.03        3336.50           6675        1940.00      8426.50
 1331.06        3336.75           6679        3248.00     14131.81
 1331.09        3337.00           6683        4291.00     18682.48
 1331.12        3337.25           6686        5145.00     22409.37
 1331.15        3337.50           6690        6411.00     27935.63
 1331.19        3337.75           6694        7935.00     34590.27
 1331.22        3338.00           6698        9711.00     42348.31
 1331.25        3338.25           6701       11028.00     48103.41
 1331.28        3338.50           6705       12612.00     55027.65
 1331.31        3338.75           6709       14553.00     63515.98
 1331.34        3339.00           6712       15912.00     69461.45
 1331.38        3339.25           6716       17508.00     76446.21
 1331.41        3339.50           6720       19316.00     84361.94
 1331.44        3339.75           6724       20495.00     89525.63
 1331.47        3340.00           6727       21578.00     94270.16
 1331.50        3340.25           6731       22356.00     97679.24
 1331.53        3340.50           6735       23430.00    102386.40
 1331.57        3340.75           6739       24656.00    107761.20
 1331.60        3341.00           6742       25602.00    111909.60
 1331.63        3341.25           6746       26647.00    116493.10
 1331.66        3341.50           6750       27038.00    118208.40
 1331.69        3341.75           6754       26866.00    117453.90
 1331.72        3342.00           6757       26301.00    114975.40
 1331.76        3342.25           6761       24957.00    109081.00
 1331.79        3342.50           6765       23029.00    100628.80
 1331.82        3342.75           6769       21108.00     92210.99
 1331.85        3343.00           6772       20395.00     89087.62
 1331.88        3343.25           6776       19910.00     86963.33
 1331.91        3343.50           6780       18388.00     80298.58
 1331.95        3343.75           6784       16750.00     73128.55
 1331.98        3344.00           6787       15704.00     68551.35
 1332.01        3344.25           6791       14332.00     62549.32
 1332.04        3344.50           6795       12753.00     55644.13
 1332.07        3344.75           6799       11267.00     49148.00
 1332.11        3345.00           6802       10192.00     44450.01
 1332.14        3345.25           6806        8413.00     36677.97
 1332.17        3345.50           6810        6961.00     30336.96
 1332.20        3345.75           6814        5629.00     24521.90
 1332.23        3346.00           6817        4082.00     17770.51
 1332.26        3346.25           6821        2912.00     12666.06
 1332.30        3346.50           6825        1520.00      6594.90
 1332.33        3346.75           6828         778.00      3359.50
 1332.36        3347.00           6832         332.00      1415.05
 1332.39        3347.25           6836         140.00       578.04
 1332.42        3347.50           6840         100.00       403.67
 1332.45        3347.75           6843          71.00       277.25
 1332.48        3348.00           6847          63.00       242.37
 1332.52        3348.25           6851          51.00       190.06
 1332.55        3348.50           6855          39.00       137.75
 1332.58        3348.75           6858          53.00       198.78
 1332.61        3349.00           6862          46.00       168.27
 1332.64        3349.25           6866          43.00       155.19
 1332.67        3349.50           6870          48.00       176.98
 1332.70        3349.75           6873          43.00       155.19
 1332.74        3350.00           6877          61.00       233.65
 1332.77        3350.25           6881          40.00       142.11
 1332.80        3350.50           6885          44.00       159.55
 1332.83        3350.75           6888          45.00       163.91
 1332.86        3351.00           6892          48.00       176.98
HL scan finished at 22:13:42
end
