************************************************************
  HL Scan of (1) Internal mercury lamp
************************************************************
Integration time is 0.2294 seconds per sample
dh310519Izana 28.3081 16.4992 2.911481pr770
************************************************************
Dead Time -------------------------  2.7E-08 
Number of Cycles Used -------------  4 
Starting Wavelength (Angstroms) ---  3331 
Final Wavelength (Angstoms) -------  3351 
Wavelength Increment (Angstroms) --  .25 
Filter Wheel #1 Position ---------- (1) Ground quartz diffuser (ND=2.32)
Filter Wheel #2 Position ---------- 



************************************************************
HL scan start time = 04:23:16
Dark Count =  6.3 


Time (GMT)  Wavelength (Ang)  Step Number  Raw Counts  Counts/Second

  263.74        3331.00           6593          37.00       133.83
  263.97        3331.25           6597          39.00       142.55
  264.00        3331.50           6600          39.00       142.55
  264.03        3331.75           6604          39.00       142.55
  264.06        3332.00           6608          36.00       129.47
  264.09        3332.25           6612          43.00       159.98
  264.12        3332.50           6615          46.00       173.06
  264.15        3332.75           6619          42.00       155.62
  264.19        3333.00           6623          51.00       194.86
  264.22        3333.25           6627          48.00       181.78
  264.25        3333.50           6630          50.00       190.50
  264.28        3333.75           6634          56.00       216.65
  264.31        3334.00           6638          64.00       251.53
  264.34        3334.25           6642          89.00       360.51
  264.37        3334.50           6645          93.00       377.95
  264.40        3334.75           6649         118.00       486.93
  264.44        3335.00           6653         133.00       552.32
  264.47        3335.25           6656         145.00       604.63
  264.50        3335.50           6660         159.00       665.66
  264.53        3335.75           6664         177.00       744.13
  264.56        3336.00           6668         368.00      1576.79
  264.59        3336.25           6671         959.00      4153.47
  264.63        3336.50           6675        2030.00      8823.81
  264.66        3336.75           6679        3532.00     15375.61
  264.69        3337.00           6683        4775.00     20799.39
  264.72        3337.25           6686        5511.00     24011.64
  264.75        3337.50           6690        6646.00     28966.41
  264.78        3337.75           6694        7934.00     34590.70
  264.82        3338.00           6698        9695.00     42283.21
  264.85        3338.25           6701       10991.00     47946.52
  264.88        3338.50           6705       12944.00     56484.08
  264.91        3338.75           6709       14651.00     63949.48
  264.94        3339.00           6712       15809.00     69015.59
  264.98        3339.25           6716       17351.00     75763.80
  265.01        3339.50           6720       18778.00     82010.95
  265.04        3339.75           6724       20199.00     88233.92
  265.07        3340.00           6727       21277.00     92956.19
  265.10        3340.25           6731       22522.00     98411.53
  265.13        3340.50           6735       23363.00    102097.50
  265.17        3340.75           6739       24427.00    106762.00
  265.20        3341.00           6742       25348.00    110800.50
  265.23        3341.25           6746       26314.00    115037.20
  265.26        3341.50           6750       26586.00    116230.40
  265.29        3341.75           6754       26435.00    115568.00
  265.32        3342.00           6757       25798.00    112774.00
  265.36        3342.25           6761       24285.00    106139.40
  265.39        3342.50           6765       22649.00     98968.12
  265.42        3342.75           6769       20741.00     90608.05
  265.45        3343.00           6772       19960.00     87187.12
  265.48        3343.25           6776       19279.00     84204.74
  265.51        3343.50           6780       17813.00     77786.13
  265.55        3343.75           6784       16588.00     72424.40
  265.58        3344.00           6787       15354.00     67024.85
  265.61        3344.25           6791       13919.00     60747.77
  265.64        3344.50           6795       12409.00     54144.92
  265.67        3344.75           6799       11078.00     48326.75
  265.70        3345.00           6802        9869.00     43043.46
  265.74        3345.25           6806        8197.00     35739.36
  265.77        3345.50           6810        6638.00     28931.49
  265.80        3345.75           6814        5313.00     23147.42
  265.83        3346.00           6817        3730.00     16239.47
  265.86        3346.25           6821        2802.00     12191.02
  265.89        3346.50           6825        1464.00      6355.49
  265.92        3346.75           6828         671.00      2897.79
  265.96        3347.00           6832         261.00      1110.32
  265.99        3347.25           6836         113.00       465.13
  266.02        3347.50           6840          84.00       338.71
  266.05        3347.75           6843          63.00       247.17
  266.08        3348.00           6847          63.00       247.17
  266.11        3348.25           6851          61.00       238.45
  266.15        3348.50           6855          50.00       190.50
  266.18        3348.75           6858          45.00       168.70
  266.21        3349.00           6862          44.00       164.34
  266.24        3349.25           6866          43.00       159.98
  266.27        3349.50           6870          49.00       186.14
  266.30        3349.75           6873          44.00       164.34
  266.34        3350.00           6877          41.00       151.26
  266.37        3350.25           6881          42.00       155.62
  266.40        3350.50           6885          42.00       155.62
  266.43        3350.75           6888          43.00       159.98
  266.46        3351.00           6892          40.00       146.91
HL scan finished at 04:27:18
end
************************************************************
  HL Scan of (1) Internal mercury lamp
************************************************************
Integration time is 0.2294 seconds per sample
dh310519Izana 28.3081 16.4992 2.911481pr770
************************************************************
Dead Time -------------------------  2.7E-08 
Number of Cycles Used -------------  4 
Starting Wavelength (Angstroms) ---  3331 
Final Wavelength (Angstoms) -------  3351 
Wavelength Increment (Angstroms) --  .25 
Filter Wheel #1 Position ---------- (1) Ground quartz diffuser (ND=2.32)
Filter Wheel #2 Position ---------- 



************************************************************
HL scan start time = 21:31:24
Dark Count =  4.7 


Time (GMT)  Wavelength (Ang)  Step Number  Raw Counts  Counts/Second

 1291.89        3331.00           6593          41.00       158.24
 1292.11        3331.25           6597          38.00       145.16
 1292.14        3331.50           6600          44.00       171.32
 1292.17        3331.75           6604          42.00       162.60
 1292.21        3332.00           6608          44.00       171.32
 1292.24        3332.25           6612          39.00       149.52
 1292.27        3332.50           6615          40.00       153.88
 1292.30        3332.75           6619          44.00       171.32
 1292.33        3333.00           6623          33.00       123.37
 1292.36        3333.25           6627          44.00       171.32
 1292.40        3333.50           6630          45.00       175.68
 1292.43        3333.75           6634          50.00       197.47
 1292.46        3334.00           6638          59.00       236.71
 1292.49        3334.25           6642          70.00       284.66
 1292.52        3334.50           6645          80.00       328.25
 1292.56        3334.75           6649         109.00       454.67
 1292.59        3335.00           6653         129.00       541.86
 1292.62        3335.25           6656         132.00       554.93
 1292.65        3335.50           6660         147.00       620.32
 1292.68        3335.75           6664         186.00       790.34
 1292.71        3336.00           6668         326.00      1400.66
 1292.74        3336.25           6671         746.00      3231.76
 1292.78        3336.50           6675        2012.00      8752.29
 1292.81        3336.75           6679        3398.00     14797.98
 1292.84        3337.00           6683        4378.00     19073.90
 1292.87        3337.25           6686        4963.00     21626.84
 1292.90        3337.50           6690        5892.00     25681.71
 1292.94        3337.75           6694        7464.00     32545.15
 1292.97        3338.00           6698        9510.00     41481.92
 1293.01        3338.25           6701       10778.00     47022.61
 1293.05        3338.50           6705       12569.00     54851.45
 1293.09        3338.75           6709       14142.00     61730.09
 1293.14        3339.00           6712       15384.00     67163.10
 1293.17        3339.25           6716       16859.00     73617.41
 1293.20        3339.50           6720       18205.00     79509.23
 1293.24        3339.75           6724       19725.00     86164.91
 1293.27        3340.00           6727       21024.00     91854.82
 1293.30        3340.25           6731       22110.00     96613.08
 1293.34        3340.50           6735       22897.00    100062.00
 1293.37        3340.75           6739       23687.00    103524.80
 1293.41        3341.00           6742       24533.00    107233.80
 1293.44        3341.25           6746       25582.00    111833.70
 1293.48        3341.50           6750       25956.00    113474.00
 1293.52        3341.75           6754       25963.00    113504.70
 1293.57        3342.00           6757       25221.00    110250.60
 1293.61        3342.25           6761       23949.00    104673.40
 1293.64        3342.50           6765       22255.00     97248.48
 1293.67        3342.75           6769       20384.00     89051.27
 1293.71        3343.00           6772       19996.00     87351.81
 1293.74        3343.25           6776       18915.00     82617.83
 1293.77        3343.50           6780       17570.00     76729.43
 1293.80        3343.75           6784       16318.00     71249.85
 1293.83        3344.00           6787       15326.00     66909.35
 1293.87        3344.25           6791       13726.00     59910.70
 1293.90        3344.50           6795       12234.00     53386.84
 1293.93        3344.75           6799       10956.00     47800.53
 1293.96        3345.00           6802        9751.00     42534.87
 1293.99        3345.25           6806        8332.00     36335.98
 1294.03        3345.50           6810        6558.00     28589.19
 1294.06        3345.75           6814        4567.00     19898.66
 1294.09        3346.00           6817        3816.00     16621.67
 1294.12        3346.25           6821        2907.00     12656.03
 1294.16        3346.50           6825        1515.00      6584.87
 1294.19        3346.75           6828         734.00      3179.44
 1294.22        3347.00           6832         326.00      1400.66
 1294.25        3347.25           6836         126.00       528.78
 1294.28        3347.50           6840          91.00       376.20
 1294.31        3347.75           6843          76.00       310.81
 1294.35        3348.00           6847          75.00       306.45
 1294.38        3348.25           6851          51.00       201.83
 1294.41        3348.50           6855          48.00       188.75
 1294.44        3348.75           6858          48.00       188.75
 1294.47        3349.00           6862          44.00       171.32
 1294.51        3349.25           6866          41.00       158.24
 1294.54        3349.50           6870          44.00       171.32
 1294.57        3349.75           6873          48.00       188.75
 1294.60        3350.00           6877          43.00       166.96
 1294.63        3350.25           6881          37.00       140.80
 1294.66        3350.50           6885          39.00       149.52
 1294.70        3350.75           6888          37.00       140.80
 1294.73        3351.00           6892          49.00       193.11
HL scan finished at 21:35:34
end
