************************************************************
  HL Scan of (1) Internal mercury lamp
************************************************************
Integration time is 0.2294 seconds per sample
dh050619Izana 28.3081 16.4992 2.804185pr770
************************************************************
Dead Time -------------------------  2.7E-08 
Number of Cycles Used -------------  4 
Starting Wavelength (Angstroms) ---  3331 
Final Wavelength (Angstoms) -------  3351 
Wavelength Increment (Angstroms) --  .25 
Filter Wheel #1 Position ---------- (1) Ground quartz diffuser (ND=2.32)
Filter Wheel #2 Position ---------- 



************************************************************
HL scan start time = 04:22:34
Dark Count =  4.4 


Time (GMT)  Wavelength (Ang)  Step Number  Raw Counts  Counts/Second

  263.05        3331.00           6593          44.00       172.63
  263.27        3331.25           6597          43.00       168.27
  263.31        3331.50           6600          43.00       168.27
  263.34        3331.75           6604          49.00       194.42
  263.37        3332.00           6608          48.00       190.06
  263.40        3332.25           6612          38.00       146.47
  263.43        3332.50           6615          41.00       159.55
  263.46        3332.75           6619          40.00       155.19
  263.49        3333.00           6623          49.00       194.42
  263.53        3333.25           6627          42.00       163.91
  263.56        3333.50           6630          49.00       194.42
  263.59        3333.75           6634          54.00       216.22
  263.62        3334.00           6638          59.00       238.01
  263.65        3334.25           6642          79.00       325.20
  263.68        3334.50           6645          94.00       390.59
  263.72        3334.75           6649         111.00       464.70
  263.75        3335.00           6653         148.00       625.99
  263.78        3335.25           6656         140.00       591.12
  263.81        3335.50           6660         170.00       721.90
  263.84        3335.75           6664         191.00       813.44
  263.87        3336.00           6668         404.00      1742.02
  263.91        3336.25           6671         991.00      4301.28
  263.94        3336.50           6675        2036.00      8858.27
  263.97        3336.75           6679        3389.00     14760.02
  264.00        3337.00           6683        4532.00     19747.23
  264.03        3337.25           6686        5300.00     23098.97
  264.07        3337.50           6690        6410.00     27944.36
  264.10        3337.75           6694        7866.00     34302.03
  264.13        3338.00           6698        9558.00     41692.94
  264.16        3338.25           6701       10790.00     47076.37
  264.19        3338.50           6705       12599.00     54983.92
  264.22        3338.75           6709       14488.00     63244.79
  264.26        3339.00           6712       15689.00     68498.85
  264.29        3339.25           6716       17004.00     74253.34
  264.32        3339.50           6720       18581.00     81156.72
  264.35        3339.75           6724       20030.00     87502.04
  264.38        3340.00           6727       21132.00     92329.28
  264.42        3340.25           6731       22236.00     97166.52
  264.45        3340.50           6735       23313.00    101886.70
  264.48        3340.75           6739       24260.00    106038.10
  264.51        3341.00           6742       25397.00    111023.70
  264.54        3341.25           6746       26270.00    114852.60
  264.58        3341.50           6750       26549.00    116076.40
  264.61        3341.75           6754       26319.00    115067.50
  264.64        3342.00           6757       25781.00    112707.80
  264.67        3342.25           6761       24422.00    106748.40
  264.70        3342.50           6765       22644.00     98954.52
  264.74        3342.75           6769       21128.00     92311.75
  264.77        3343.00           6772       20247.00     88452.49
  264.80        3343.25           6776       19703.00     86069.88
  264.83        3343.50           6780       18224.00     79593.71
  264.86        3343.75           6784       16642.00     72669.03
  264.90        3344.00           6787       15653.00     68341.33
  264.93        3344.25           6791       14312.00     62474.96
  264.96        3344.50           6795       12813.00     55919.59
  264.99        3344.75           6799       11343.00     49493.30
  265.03        3345.00           6802        9973.00     43506.18
  265.06        3345.25           6806        8539.00     37241.43
  265.09        3345.50           6810        6931.00     30219.07
  265.12        3345.75           6814        5569.00     24273.10
  265.15        3346.00           6817        4018.00     17504.35
  265.18        3346.25           6821        2879.00     12535.19
  265.22        3346.50           6825        1436.00      6241.68
  265.25        3346.75           6828         708.00      3067.39
  265.28        3347.00           6832         291.00      1249.39
  265.31        3347.25           6836         134.00       564.96
  265.34        3347.50           6840          82.00       338.28
  265.38        3347.75           6843          70.00       285.97
  265.41        3348.00           6847          64.00       259.81
  265.44        3348.25           6851          53.00       211.86
  265.47        3348.50           6855          50.00       198.78
  265.50        3348.75           6858          48.00       190.06
  265.54        3349.00           6862          49.00       194.42
  265.57        3349.25           6866          43.00       168.27
  265.60        3349.50           6870          53.00       211.86
  265.63        3349.75           6873          37.00       142.11
  265.66        3350.00           6877          43.00       168.27
  265.70        3350.25           6881          64.00       259.81
  265.73        3350.50           6885          47.00       185.70
  265.76        3350.75           6888          43.00       168.27
  265.79        3351.00           6892          46.00       181.34
HL scan finished at 04:26:38
end
************************************************************
  HL Scan of (1) Internal mercury lamp
************************************************************
Integration time is 0.2294 seconds per sample
dh050619Izana 28.3081 16.4992 2.857833pr770
************************************************************
Dead Time -------------------------  2.7E-08 
Number of Cycles Used -------------  4 
Starting Wavelength (Angstroms) ---  3331 
Final Wavelength (Angstoms) -------  3351 
Wavelength Increment (Angstroms) --  .25 
Filter Wheel #1 Position ---------- (1) Ground quartz diffuser (ND=2.32)
Filter Wheel #2 Position ---------- 



************************************************************
HL scan start time = 21:30:26
Dark Count =  6.6 


Time (GMT)  Wavelength (Ang)  Step Number  Raw Counts  Counts/Second

 1290.91        3331.00           6593          42.00       154.32
 1291.13        3331.25           6597          40.00       145.60
 1291.17        3331.50           6600          40.00       145.60
 1291.20        3331.75           6604          43.00       158.68
 1291.23        3332.00           6608          45.00       167.39
 1291.26        3332.25           6612          44.00       163.03
 1291.29        3332.50           6615          34.00       119.44
 1291.32        3332.75           6619          39.00       141.24
 1291.36        3333.00           6623          50.00       189.19
 1291.39        3333.25           6627          54.00       206.63
 1291.42        3333.50           6630          46.00       171.75
 1291.45        3333.75           6634          54.00       206.63
 1291.48        3334.00           6638          66.00       258.94
 1291.52        3334.25           6642          80.00       319.97
 1291.55        3334.50           6645         101.00       411.51
 1291.58        3334.75           6649         117.00       481.26
 1291.61        3335.00           6653         149.00       620.76
 1291.64        3335.25           6656         145.00       603.32
 1291.68        3335.50           6660         176.00       738.46
 1291.71        3335.75           6664         191.00       803.85
 1291.74        3336.00           6668         364.00      1558.04
 1291.77        3336.25           6671         954.00      4130.37
 1291.80        3336.50           6675        2107.00      9158.32
 1291.83        3336.75           6679        3530.00     15365.57
 1291.86        3337.00           6683        4513.00     19654.72
 1291.90        3337.25           6686        5391.00     23486.56
 1291.93        3337.50           6690        6582.00     28685.68
 1291.96        3337.75           6694        8079.00     35222.67
 1291.99        3338.00           6698        9995.00     43592.69
 1292.03        3338.25           6701       11412.00     49785.28
 1292.06        3338.50           6705       13250.00     57820.80
 1292.09        3338.75           6709       15166.00     66201.05
 1292.12        3339.00           6712       16351.00     71385.94
 1292.15        3339.25           6716       18052.00     78831.09
 1292.18        3339.50           6720       19638.00     85775.59
 1292.22        3339.75           6724       21151.00     92402.88
 1292.25        3340.00           6727       22405.00     97897.49
 1292.28        3340.25           6731       23156.00    101188.90
 1292.31        3340.50           6735       24202.00    105774.20
 1292.34        3340.75           6739       25279.00    110496.60
 1292.38        3341.00           6742       26214.00    114597.30
 1292.41        3341.25           6746       27258.00    119177.10
 1292.44        3341.50           6750       27692.00    121081.30
 1292.47        3341.75           6754       27471.00    120111.70
 1292.50        3342.00           6757       26828.00    117290.70
 1292.54        3342.25           6761       25440.00    111202.60
 1292.57        3342.50           6765       23569.00    102999.20
 1292.60        3342.75           6769       21590.00     94326.24
 1292.63        3343.00           6772       20884.00     91233.18
 1292.66        3343.25           6776       20120.00     87886.59
 1292.69        3343.50           6780       18790.00     82062.19
 1292.73        3343.75           6784       17320.00     75626.81
 1292.76        3344.00           6787       16029.00     69976.90
 1292.79        3344.25           6791       14577.00     63624.47
 1292.82        3344.50           6795       13093.00     57134.28
 1292.85        3344.75           6799       11545.00     50366.62
 1292.89        3345.00           6802       10368.00     45222.58
 1292.92        3345.25           6806        8730.00     38066.13
 1292.95        3345.50           6810        7080.00     30860.05
 1292.98        3345.75           6814        5675.00     24726.18
 1293.02        3346.00           6817        4160.00     18114.35
 1293.07        3346.25           6821        3039.00     13223.55
 1293.11        3346.50           6825        1550.00      6729.21
 1293.16        3346.75           6828         760.00      3284.51
 1293.20        3347.00           6832         342.00      1462.13
 1293.24        3347.25           6836         129.00       533.57
 1293.27        3347.50           6840          93.00       376.64
 1293.30        3347.75           6843          74.00       293.81
 1293.34        3348.00           6847          59.00       228.42
 1293.37        3348.25           6851          53.00       202.27
 1293.40        3348.50           6855          51.00       193.55
 1293.43        3348.75           6858          47.00       176.11
 1293.46        3349.00           6862          57.00       219.70
 1293.49        3349.25           6866          55.00       210.99
 1293.53        3349.50           6870          45.00       167.39
 1293.57        3349.75           6873          50.00       189.19
 1293.60        3350.00           6877          52.00       197.91
 1293.63        3350.25           6881          48.00       180.47
 1293.67        3350.50           6885          46.00       171.75
 1293.71        3350.75           6888          45.00       167.39
 1293.75        3351.00           6892          41.00       149.96
HL scan finished at 21:34:35
end
