************************************************************
  HL Scan of (1) Internal mercury lamp
************************************************************
Integration time is 0.2294 seconds per sample
dh010619Izana 28.3081 16.4992 2.857833pr770
************************************************************
Dead Time -------------------------  2.7E-08 
Number of Cycles Used -------------  4 
Starting Wavelength (Angstroms) ---  3331 
Final Wavelength (Angstoms) -------  3351 
Wavelength Increment (Angstroms) --  .25 
Filter Wheel #1 Position ---------- (1) Ground quartz diffuser (ND=2.32)
Filter Wheel #2 Position ---------- 



************************************************************
HL scan start time = 02:03:24
Dark Count =  8.100001 


Time (GMT)  Wavelength (Ang)  Step Number  Raw Counts  Counts/Second

  123.88        3331.00           6593          44.00       156.50
  124.10        3331.25           6597          42.00       147.78
  124.14        3331.50           6600          49.00       178.29
  124.17        3331.75           6604          42.00       147.78
  124.20        3332.00           6608          37.00       125.98
  124.23        3332.25           6612          46.00       165.21
  124.26        3332.50           6615          41.00       143.42
  124.30        3332.75           6619          43.00       152.14
  124.33        3333.00           6623          48.00       173.93
  124.36        3333.25           6627          49.00       178.29
  124.39        3333.50           6630          55.00       204.45
  124.42        3333.75           6634          53.00       195.73
  124.45        3334.00           6638          66.00       252.40
  124.49        3334.25           6642          82.00       322.15
  124.52        3334.50           6645         102.00       409.33
  124.55        3334.75           6649         125.00       509.60
  124.58        3335.00           6653         139.00       570.63
  124.61        3335.25           6656         146.00       601.14
  124.65        3335.50           6660         172.00       714.49
  124.68        3335.75           6664         187.00       779.88
  124.71        3336.00           6668         342.00      1455.59
  124.74        3336.25           6671         854.00      3687.81
  124.77        3336.50           6675        2037.00      8846.49
  124.81        3336.75           6679        3575.00     15555.36
  124.84        3337.00           6683        4795.00     20878.81
  124.87        3337.25           6686        5508.00     23990.69
  124.90        3337.50           6690        6717.00     29268.55
  124.93        3337.75           6694        8253.00     35976.08
  124.97        3338.00           6698       10125.00     44154.18
  125.00        3338.25           6701       11387.00     49669.44
  125.03        3338.50           6705       13244.00     57788.01
  125.06        3338.75           6709       15262.00     66614.48
  125.09        3339.00           6712       16456.00     71838.87
  125.13        3339.25           6716       18189.00     79424.28
  125.16        3339.50           6720       19531.00     85300.41
  125.19        3339.75           6724       20995.00     91712.88
  125.22        3340.00           6727       22407.00     97899.68
  125.26        3340.25           6731       23458.00    102506.10
  125.29        3340.50           6735       24431.00    106771.60
  125.32        3340.75           6739       25728.00    112459.10
  125.35        3341.00           6742       26461.00    115674.10
  125.38        3341.25           6746       27563.00    120508.70
  125.42        3341.50           6750       27850.00    121768.10
  125.45        3341.75           6754       27568.00    120530.70
  125.48        3342.00           6757       26938.00    117766.60
  125.51        3342.25           6761       25492.00    111424.10
  125.55        3342.50           6765       23820.00    104092.90
  125.58        3342.75           6769       21852.00     95467.66
  125.61        3343.00           6772       21041.00     91914.40
  125.64        3343.25           6776       20254.00     88466.96
  125.67        3343.50           6780       18806.00     82125.68
  125.70        3343.75           6784       17372.00     75847.85
  125.74        3344.00           6787       16235.00     70871.76
  125.77        3344.25           6791       14677.00     64055.33
  125.80        3344.50           6795       13079.00     57066.51
  125.83        3344.75           6799       11751.00     51260.53
  125.86        3345.00           6802       10552.00     46020.10
  125.89        3345.25           6806        8800.00     38365.36
  125.93        3345.50           6810        7045.00     30700.68
  125.96        3345.75           6814        5535.00     24108.54
  125.99        3346.00           6817        3910.00     17016.97
  126.02        3346.25           6821        3025.00     13155.94
  126.05        3346.50           6825        1617.00      7014.84
  126.09        3346.75           6828         743.00      3203.85
  126.12        3347.00           6832         302.00      1281.21
  126.15        3347.25           6836         128.00       522.68
  126.18        3347.50           6840          86.00       339.58
  126.21        3347.75           6843          73.00       282.91
  126.24        3348.00           6847          63.00       239.32
  126.28        3348.25           6851          62.00       234.96
  126.31        3348.50           6855          56.00       208.81
  126.34        3348.75           6858          45.00       160.86
  126.37        3349.00           6862          53.00       195.73
  126.40        3349.25           6866          53.00       195.73
  126.43        3349.50           6870          44.00       156.50
  126.47        3349.75           6873          55.00       204.45
  126.50        3350.00           6877          49.00       178.29
  126.53        3350.25           6881          46.00       165.21
  126.56        3350.50           6885          42.00       147.78
  126.59        3350.75           6888          42.00       147.78
  126.63        3351.00           6892          51.00       187.01
HL scan finished at 02:07:28
end
************************************************************
  HL Scan of (1) Internal mercury lamp
************************************************************
Integration time is 0.2294 seconds per sample
dh010619Izana 28.3081 16.4992 2.857833pr770
************************************************************
Dead Time -------------------------  2.7E-08 
Number of Cycles Used -------------  4 
Starting Wavelength (Angstroms) ---  3331 
Final Wavelength (Angstoms) -------  3351 
Wavelength Increment (Angstroms) --  .25 
Filter Wheel #1 Position ---------- (1) Ground quartz diffuser (ND=2.32)
Filter Wheel #2 Position ---------- 



************************************************************
HL scan start time = 04:22:45
Dark Count =  5.9 


Time (GMT)  Wavelength (Ang)  Step Number  Raw Counts  Counts/Second

  263.23        3331.00           6593          41.00       153.01
  263.45        3331.25           6597          43.00       161.73
  263.48        3331.50           6600          44.00       166.09
  263.52        3331.75           6604          43.00       161.73
  263.55        3332.00           6608          49.00       187.88
  263.58        3332.25           6612          53.00       205.32
  263.61        3332.50           6615          44.00       166.09
  263.64        3332.75           6619          46.00       174.80
  263.67        3333.00           6623          44.00       166.09
  263.71        3333.25           6627          49.00       187.88
  263.74        3333.50           6630          58.00       227.12
  263.77        3333.75           6634          53.00       205.32
  263.80        3334.00           6638          70.00       279.43
  263.83        3334.25           6642          88.00       357.89
  263.86        3334.50           6645          94.00       384.05
  263.90        3334.75           6649         121.00       501.75
  263.93        3335.00           6653         136.00       567.14
  263.96        3335.25           6656         146.00       610.73
  263.99        3335.50           6660         167.00       702.28
  264.02        3335.75           6664         192.00       811.26
  264.06        3336.00           6668         476.00      2049.37
  264.09        3336.25           6671        1123.00      4870.30
  264.12        3336.50           6675        2162.00      9401.25
  264.15        3336.75           6679        3492.00     15202.84
  264.18        3337.00           6683        4771.00     20783.68
  264.21        3337.25           6686        5460.00     23790.78
  264.25        3337.50           6690        6619.00     28850.28
  264.28        3337.75           6694        8069.00     35182.05
  264.31        3338.00           6698        9815.00     42809.26
  264.34        3338.25           6701       11021.00     48079.38
  264.37        3338.50           6705       12846.00     56057.32
  264.41        3338.75           6709       14412.00     62905.80
  264.44        3339.00           6712       15449.00     67442.23
  264.47        3339.25           6716       17192.00     75069.61
  264.50        3339.50           6720       18922.00     82643.23
  264.53        3339.75           6724       20258.00     88494.10
  264.57        3340.00           6727       21369.00     93361.02
  264.60        3340.25           6731       22347.00     97646.37
  264.63        3340.50           6735       23198.00    101376.10
  264.66        3340.75           6739       24451.00    106869.00
  264.70        3341.00           6742       25364.00    110872.40
  264.73        3341.25           6746       26237.00    114701.20
  264.76        3341.50           6750       26484.00    115784.70
  264.79        3341.75           6754       26205.00    114560.90
  264.82        3342.00           6757       25531.00    111604.80
  264.86        3342.25           6761       24184.00    105698.40
  264.89        3342.50           6765       22419.00     97961.91
  264.92        3342.75           6769       20495.00     89532.21
  264.95        3343.00           6772       20116.00     87872.14
  264.98        3343.25           6776       19205.00     83882.44
  265.02        3343.50           6780       17769.00     77595.27
  265.05        3343.75           6784       16423.00     71704.08
  265.08        3344.00           6787       15418.00     67306.60
  265.11        3344.25           6791       13995.00     61081.91
  265.15        3344.50           6795       12545.00     54741.27
  265.18        3344.75           6799       10912.00     47602.99
  265.21        3345.00           6802        9900.00     43180.66
  265.24        3345.25           6806        8201.00     35758.57
  265.27        3345.50           6810        6685.00     29138.43
  265.31        3345.75           6814        5377.00     23428.51
  265.34        3346.00           6817        3700.00     16110.32
  265.37        3346.25           6821        2655.00     11551.56
  265.40        3346.50           6825        1356.00      5886.29
  265.43        3346.75           6828         651.00      2812.33
  265.47        3347.00           6832         277.00      1181.82
  265.50        3347.25           6836         124.00       514.83
  265.53        3347.50           6840          83.00       336.10
  265.56        3347.75           6843          69.00       275.07
  265.59        3348.00           6847          61.00       240.19
  265.62        3348.25           6851          60.00       235.83
  265.66        3348.50           6855          47.00       179.16
  265.69        3348.75           6858          46.00       174.80
  265.72        3349.00           6862          47.00       179.16
  265.75        3349.25           6866          42.00       157.37
  265.78        3349.50           6870          41.00       153.01
  265.81        3349.75           6873          48.00       183.52
  265.85        3350.00           6877          60.00       235.83
  265.88        3350.25           6881          50.00       192.24
  265.91        3350.50           6885          54.00       209.68
  265.94        3350.75           6888          47.00       179.16
  265.97        3351.00           6892          38.00       139.93
HL scan finished at 04:26:49
end
************************************************************
  HL Scan of (1) Internal mercury lamp
************************************************************
Integration time is 0.2294 seconds per sample
dh010619Izana 28.3081 16.4992 2.911481pr770
************************************************************
Dead Time -------------------------  2.7E-08 
Number of Cycles Used -------------  4 
Starting Wavelength (Angstroms) ---  3331 
Final Wavelength (Angstoms) -------  3351 
Wavelength Increment (Angstroms) --  .25 
Filter Wheel #1 Position ---------- (1) Ground quartz diffuser (ND=2.32)
Filter Wheel #2 Position ---------- 



************************************************************
HL scan start time = 21:31:23
Dark Count =  5.8 


Time (GMT)  Wavelength (Ang)  Step Number  Raw Counts  Counts/Second

 1291.87        3331.00           6593          42.00       157.80
 1292.09        3331.25           6597          44.00       166.52
 1292.13        3331.50           6600          41.00       153.44
 1292.16        3331.75           6604          37.00       136.01
 1292.19        3332.00           6608          41.00       153.44
 1292.22        3332.25           6612          47.00       179.60
 1292.25        3332.50           6615          44.00       166.52
 1292.28        3332.75           6619          47.00       179.60
 1292.32        3333.00           6623          52.00       201.40
 1292.35        3333.25           6627          46.00       175.24
 1292.38        3333.50           6630          47.00       179.60
 1292.41        3333.75           6634          49.00       188.32
 1292.44        3334.00           6638          61.00       240.63
 1292.47        3334.25           6642          75.00       301.66
 1292.51        3334.50           6645          88.00       358.33
 1292.54        3334.75           6649         109.00       449.87
 1292.57        3335.00           6653         138.00       576.29
 1292.60        3335.25           6656         146.00       611.17
 1292.63        3335.50           6660         162.00       680.92
 1292.66        3335.75           6664         179.00       755.03
 1292.70        3336.00           6668         329.00      1408.95
 1292.73        3336.25           6671         773.00      3344.68
 1292.76        3336.50           6675        2091.00      9092.03
 1292.79        3336.75           6679        3519.00     15321.07
 1292.82        3337.00           6683        4619.00     20120.78
 1292.86        3337.25           6686        5171.00     22529.83
 1292.89        3337.50           6690        6265.00     27305.22
 1292.92        3337.75           6694        7881.00     34361.42
 1292.95        3338.00           6698        9869.00     43045.65
 1292.98        3338.25           6701       11422.00     49832.48
 1293.02        3338.50           6705       12949.00     56508.12
 1293.06        3338.75           6709       14874.00     64927.15
 1293.11        3339.00           6712       15975.00     69744.11
 1293.15        3339.25           6716       17781.00     77648.23
 1293.19        3339.50           6720       19368.00     84596.66
 1293.22        3339.75           6724       20744.00     90623.39
 1293.25        3340.00           6727       21925.00     95797.60
 1293.29        3340.25           6731       23171.00    101258.20
 1293.32        3340.50           6735       23919.00    104537.00
 1293.36        3340.75           6739       24746.00    108162.90
 1293.39        3341.00           6742       25877.00    113122.70
 1293.43        3341.25           6746       27081.00    118404.10
 1293.47        3341.50           6750       27335.00    119518.50
 1293.51        3341.75           6754       27370.00    119672.00
 1293.56        3342.00           6757       26807.00    117202.00
 1293.60        3342.25           6761       25330.00    110723.70
 1293.63        3342.50           6765       23467.00    102555.60
 1293.66        3342.75           6769       21636.00     94531.29
 1293.70        3343.00           6772       21044.00     91937.62
 1293.73        3343.25           6776       20065.00     87649.19
 1293.76        3343.50           6780       18893.00     82516.68
 1293.79        3343.75           6784       17258.00     75358.93
 1293.82        3344.00           6787       16075.00     70181.70
 1293.86        3344.25           6791       14422.00     62949.98
 1293.89        3344.50           6795       13046.00     56932.27
 1293.92        3344.75           6799       11460.00     49998.58
 1293.95        3345.00           6802       10391.00     45326.58
 1293.98        3345.25           6806        8746.00     38139.52
 1294.01        3345.50           6810        6955.00     30317.75
 1294.05        3345.75           6814        4972.00     21661.32
 1294.08        3346.00           6817        4194.00     18266.20
 1294.11        3346.25           6821        2973.00     12939.13
 1294.14        3346.50           6825        1619.00      7033.59
 1294.17        3346.75           6828         788.00      3410.08
 1294.21        3347.00           6832         329.00      1408.95
 1294.24        3347.25           6836         137.00       571.94
 1294.27        3347.50           6840         100.00       410.64
 1294.30        3347.75           6843          85.00       345.25
 1294.33        3348.00           6847          66.00       262.43
 1294.37        3348.25           6851          60.00       236.27
 1294.40        3348.50           6855          41.00       153.44
 1294.43        3348.75           6858          50.00       192.68
 1294.46        3349.00           6862          40.00       149.09
 1294.49        3349.25           6866          53.00       205.76
 1294.52        3349.50           6870          46.00       175.24
 1294.55        3349.75           6873          46.00       175.24
 1294.59        3350.00           6877          47.00       179.60
 1294.62        3350.25           6881          48.00       183.96
 1294.65        3350.50           6885          43.00       162.16
 1294.68        3350.75           6888          46.00       175.24
 1294.71        3351.00           6892          46.00       175.24
HL scan finished at 21:35:33
end
