************************************************************
  HL Scan of (1) Internal mercury lamp
************************************************************
Integration time is 0.2294 seconds per sample
dh060619Izana 28.3081 16.4992 2.857833pr770
************************************************************
Dead Time -------------------------  2.7E-08 
Number of Cycles Used -------------  4 
Starting Wavelength (Angstroms) ---  3331 
Final Wavelength (Angstoms) -------  3351 
Wavelength Increment (Angstroms) --  .25 
Filter Wheel #1 Position ---------- (1) Ground quartz diffuser (ND=2.32)
Filter Wheel #2 Position ---------- 



************************************************************
HL scan start time = 04:22:30
Dark Count =  6.8 


Time (GMT)  Wavelength (Ang)  Step Number  Raw Counts  Counts/Second

  262.98        3331.00           6593          42.00       153.44
  263.20        3331.25           6597          41.00       149.09
  263.23        3331.50           6600          42.00       153.44
  263.26        3331.75           6604          40.00       144.73
  263.29        3332.00           6608          49.00       183.96
  263.33        3332.25           6612          43.00       157.80
  263.36        3332.50           6615          57.00       218.83
  263.39        3332.75           6619          40.00       144.73
  263.42        3333.00           6623          51.00       192.68
  263.45        3333.25           6627          52.00       197.04
  263.48        3333.50           6630          46.00       170.88
  263.52        3333.75           6634          58.00       223.19
  263.55        3334.00           6638          71.00       279.86
  263.58        3334.25           6642          75.00       297.30
  263.61        3334.50           6645          98.00       397.56
  263.64        3334.75           6649         116.00       476.03
  263.67        3335.00           6653         133.00       550.14
  263.71        3335.25           6656         150.00       624.25
  263.74        3335.50           6660         178.00       746.31
  263.77        3335.75           6664         193.00       811.70
  263.80        3336.00           6668         429.00      1840.54
  263.83        3336.25           6671        1011.00      4378.02
  263.87        3336.50           6675        1952.00      8481.45
  263.90        3336.75           6679        3376.00     14692.84
  263.93        3337.00           6683        4801.00     20910.67
  263.96        3337.25           6686        5610.00     24441.59
  263.99        3337.50           6690        6843.00     29824.36
  264.03        3337.75           6694        8256.00     35994.87
  264.06        3338.00           6698       10093.00     44020.03
  264.09        3338.25           6701       11300.00     49294.86
  264.12        3338.50           6705       13218.00     57680.00
  264.15        3338.75           6709       15107.00     65942.07
  264.19        3339.00           6712       16253.00     70956.21
  264.22        3339.25           6716       17935.00     78318.00
  264.25        3339.50           6720       19580.00     85520.69
  264.28        3339.75           6724       21138.00     92345.04
  264.31        3340.00           6727       22293.00     97405.79
  264.35        3340.25           6731       23088.00    100890.00
  264.38        3340.50           6735       24210.00    105808.40
  264.41        3340.75           6739       25681.00    112258.70
  264.44        3341.00           6742       26542.00    116035.20
  264.47        3341.25           6746       27584.00    120606.60
  264.50        3341.50           6750       28046.00    122633.80
  264.54        3341.75           6754       27878.00    121896.60
  264.57        3342.00           6757       27180.00    118834.00
  264.60        3342.25           6761       25795.00    112758.60
  264.63        3342.50           6765       23965.00    104734.30
  264.66        3342.75           6769       22085.00     96494.32
  264.70        3343.00           6772       21368.00     93352.69
  264.73        3343.25           6776       20740.00     90601.49
  264.76        3343.50           6780       19109.00     83458.12
  264.79        3343.75           6784       17649.00     77066.03
  264.82        3344.00           6787       16576.00     72369.69
  264.86        3344.25           6791       15033.00     65618.34
  264.89        3344.50           6795       13583.00     59276.14
  264.92        3344.75           6799       11809.00     51519.75
  264.95        3345.00           6802       10730.00     46803.66
  264.98        3345.25           6806        8936.00     38965.13
  265.02        3345.50           6810        7394.00     32230.30
  265.05        3345.75           6814        6017.00     26218.21
  265.08        3346.00           6817        4297.00     18711.28
  265.11        3346.25           6821        3130.00     13619.65
  265.14        3346.50           6825        1633.00      7090.28
  265.17        3346.75           6828         809.00      3497.28
  265.21        3347.00           6832         331.00      1413.31
  265.24        3347.25           6836         147.00       611.17
  265.27        3347.50           6840          89.00       358.33
  265.30        3347.75           6843          77.00       306.02
  265.33        3348.00           6847          67.00       262.43
  265.37        3348.25           6851          55.00       210.11
  265.40        3348.50           6855          56.00       214.47
  265.43        3348.75           6858          55.00       210.11
  265.46        3349.00           6862          51.00       192.68
  265.49        3349.25           6866          45.00       166.52
  265.52        3349.50           6870          57.00       218.83
  265.56        3349.75           6873          43.00       157.80
  265.59        3350.00           6877          49.00       183.96
  265.62        3350.25           6881          47.00       175.24
  265.65        3350.50           6885          44.00       162.16
  265.68        3350.75           6888          45.00       166.52
  265.71        3351.00           6892          42.00       153.44
HL scan finished at 04:26:33
end
************************************************************
  HL Scan of (1) Internal mercury lamp
************************************************************
Integration time is 0.2294 seconds per sample
dh060619Izana 28.3081 16.4992 2.857833pr770
************************************************************
Dead Time -------------------------  2.7E-08 
Number of Cycles Used -------------  4 
Starting Wavelength (Angstroms) ---  3331 
Final Wavelength (Angstoms) -------  3351 
Wavelength Increment (Angstroms) --  .25 
Filter Wheel #1 Position ---------- (1) Ground quartz diffuser (ND=2.32)
Filter Wheel #2 Position ---------- 



************************************************************
HL scan start time = 21:29:40
Dark Count =  5.8 


Time (GMT)  Wavelength (Ang)  Step Number  Raw Counts  Counts/Second

 1290.15        3331.00           6593          38.00       140.37
 1290.38        3331.25           6597          41.00       153.44
 1290.41        3331.50           6600          39.00       144.73
 1290.44        3331.75           6604          43.00       162.16
 1290.47        3332.00           6608          37.00       136.01
 1290.50        3332.25           6612          44.00       166.52
 1290.53        3332.50           6615          46.00       175.24
 1290.57        3332.75           6619          37.00       136.01
 1290.60        3333.00           6623          41.00       153.44
 1290.63        3333.25           6627          50.00       192.68
 1290.66        3333.50           6630          40.00       149.09
 1290.69        3333.75           6634          58.00       227.55
 1290.72        3334.00           6638          65.00       258.07
 1290.76        3334.25           6642          76.00       306.02
 1290.79        3334.50           6645          93.00       380.13
 1290.82        3334.75           6649         114.00       471.67
 1290.85        3335.00           6653         133.00       554.50
 1290.88        3335.25           6656         136.00       567.58
 1290.91        3335.50           6660         161.00       676.56
 1290.94        3335.75           6664         179.00       755.03
 1290.98        3336.00           6668         336.00      1439.46
 1291.01        3336.25           6671         880.00      3811.20
 1291.04        3336.50           6675        1935.00      8411.68
 1291.07        3336.75           6679        3349.00     14579.41
 1291.10        3337.00           6683        4370.00     19034.19
 1291.13        3337.25           6686        5181.00     22573.48
 1291.17        3337.50           6690        6148.00     26794.44
 1291.20        3337.75           6694        7881.00     34361.42
 1291.23        3338.00           6698        9610.00     41914.02
 1291.26        3338.25           6701       11058.00     48241.53
 1291.29        3338.50           6705       12712.00     55471.86
 1291.32        3338.75           6709       14659.00     63986.65
 1291.36        3339.00           6712       15926.00     69529.71
 1291.39        3339.25           6716       17588.00     76803.38
 1291.42        3339.50           6720       18952.00     82775.03
 1291.45        3339.75           6724       20498.00     89545.79
 1291.48        3340.00           6727       21489.00     93887.22
 1291.51        3340.25           6731       22292.00     97405.79
 1291.55        3340.50           6735       23395.00    102240.00
 1291.58        3340.75           6739       24567.00    107378.00
 1291.61        3341.00           6742       25354.00    110829.00
 1291.64        3341.25           6746       26581.00    116210.60
 1291.67        3341.50           6750       26951.00    117833.80
 1291.70        3341.75           6754       26695.00    116710.70
 1291.74        3342.00           6757       26087.00    114043.70
 1291.77        3342.25           6761       24683.00    107886.60
 1291.80        3342.50           6765       23011.00    100556.90
 1291.83        3342.75           6769       21084.00     92112.85
 1291.86        3343.00           6772       20379.00     89024.55
 1291.89        3343.25           6776       19548.00     85384.93
 1291.93        3343.50           6780       18205.00     79504.40
 1291.96        3343.75           6784       16796.00     73336.88
 1291.99        3344.00           6787       15623.00     68203.96
 1292.02        3344.25           6791       14103.00     61554.71
 1292.05        3344.50           6795       12778.00     55760.44
 1292.08        3344.75           6799       11183.00     48787.85
 1292.12        3345.00           6802       10138.00     44221.04
 1292.15        3345.25           6806        8447.00     36833.48
 1292.18        3345.50           6810        6907.00     30108.16
 1292.21        3345.75           6814        5508.00     24000.73
 1292.24        3346.00           6817        4107.00     17886.58
 1292.28        3346.25           6821        3040.00     13231.40
 1292.31        3346.50           6825        1516.00      6584.43
 1292.34        3346.75           6828         777.00      3362.12
 1292.37        3347.00           6832         325.00      1391.51
 1292.40        3347.25           6836         138.00       576.29
 1292.43        3347.50           6840          83.00       336.53
 1292.47        3347.75           6843          78.00       314.74
 1292.50        3348.00           6847          63.00       249.35
 1292.53        3348.25           6851          60.00       236.27
 1292.56        3348.50           6855          57.00       223.19
 1292.59        3348.75           6858          51.00       197.04
 1292.62        3349.00           6862          49.00       188.32
 1292.65        3349.25           6866          53.00       205.76
 1292.69        3349.50           6870          52.00       201.40
 1292.72        3349.75           6873          50.00       192.68
 1292.75        3350.00           6877          42.00       157.80
 1292.78        3350.25           6881          39.00       144.73
 1292.81        3350.50           6885          38.00       140.37
 1292.84        3350.75           6888          40.00       149.09
 1292.87        3351.00           6892          43.00       162.16
HL scan finished at 21:33:43
end
