************************************************************
  HL Scan of (1) Internal mercury lamp
************************************************************
Integration time is 0.2294 seconds per sample
dh080619Izana 28.3081 16.4992 2.911481pr770
************************************************************
Dead Time -------------------------  2.7E-08 
Number of Cycles Used -------------  4 
Starting Wavelength (Angstroms) ---  3331 
Final Wavelength (Angstoms) -------  3351 
Wavelength Increment (Angstroms) --  .25 
Filter Wheel #1 Position ---------- (1) Ground quartz diffuser (ND=2.32)
Filter Wheel #2 Position ---------- 



************************************************************
HL scan start time = 02:04:42
Dark Count =  6.7 


Time (GMT)  Wavelength (Ang)  Step Number  Raw Counts  Counts/Second

  125.19        3331.00           6593          43.00       158.24
  125.41        3331.25           6597          43.00       158.24
  125.44        3331.50           6600          43.00       158.24
  125.47        3331.75           6604          49.00       184.39
  125.50        3332.00           6608          57.00       219.27
  125.54        3332.25           6612          40.00       145.16
  125.57        3332.50           6615          42.00       153.88
  125.60        3332.75           6619          40.00       145.16
  125.63        3333.00           6623          44.00       162.60
  125.66        3333.25           6627          51.00       193.11
  125.69        3333.50           6630          57.00       219.27
  125.72        3333.75           6634          50.00       188.75
  125.76        3334.00           6638          69.00       271.58
  125.79        3334.25           6642          89.00       358.77
  125.82        3334.50           6645         122.00       502.62
  125.85        3334.75           6649         127.00       524.42
  125.88        3335.00           6653         147.00       611.61
  125.91        3335.25           6656         158.00       659.56
  125.94        3335.50           6660         173.00       724.95
  125.98        3335.75           6664         193.00       812.14
  126.01        3336.00           6668         486.00      2089.48
  126.04        3336.25           6671        1259.00      5459.83
  126.07        3336.50           6675        2370.00     10304.96
  126.10        3336.75           6679        3376.00     14693.28
  126.13        3337.00           6683        4742.00     20653.62
  126.17        3337.25           6686        5774.00     25157.89
  126.20        3337.50           6690        7104.00     30964.41
  126.23        3337.75           6694        8906.00     38834.51
  126.26        3338.00           6698       10388.00     45309.54
  126.29        3338.25           6701       12419.00     54186.89
  126.32        3338.50           6705       14166.00     61826.32
  126.36        3338.75           6709       15749.00     68751.31
  126.39        3339.00           6712       16887.00     73731.21
  126.42        3339.25           6716       18600.00     81229.85
  126.45        3339.50           6720       20373.00     88994.32
  126.48        3339.75           6724       21911.00     95732.32
  126.51        3340.00           6727       22799.00     99623.77
  126.55        3340.25           6731       23769.00    103875.50
  126.58        3340.50           6735       24762.00    108229.10
  126.61        3340.75           6739       26372.00    115289.90
  126.64        3341.00           6742       27389.00    119751.50
  126.67        3341.25           6746       28357.00    123999.00
  126.70        3341.50           6750       28761.00    125772.10
  126.74        3341.75           6754       28304.00    123766.40
  126.77        3342.00           6757       27202.00    118931.00
  126.80        3342.25           6761       26348.00    115184.60
  126.83        3342.50           6765       24511.00    107128.50
  126.86        3342.75           6769       22623.00     98852.42
  126.89        3343.00           6772       21782.00     95167.06
  126.93        3343.25           6776       20935.00     91456.18
  126.96        3343.50           6780       19460.00     84995.62
  126.99        3343.75           6784       17830.00     77858.80
  127.02        3344.00           6787       16792.00     73315.44
  127.05        3344.25           6791       15160.00     66174.36
  127.08        3344.50           6795       13629.00     59477.74
  127.12        3344.75           6799       11797.00     51467.72
  127.15        3345.00           6802       10667.00     46528.78
  127.18        3345.25           6806        8689.00     37886.60
  127.21        3345.50           6810        6855.00     29877.19
  127.24        3345.75           6814        5566.00     24249.96
  127.27        3346.00           6817        4189.00     18240.45
  127.31        3346.25           6821        2922.00     12712.73
  127.34        3346.50           6825        1425.00      6183.68
  127.37        3346.75           6828         742.00      3205.60
  127.40        3347.00           6832         293.00      1248.08
  127.43        3347.25           6836         121.00       498.26
  127.46        3347.50           6840          81.00       323.89
  127.49        3347.75           6843          66.00       258.50
  127.53        3348.00           6847          60.00       232.35
  127.56        3348.25           6851          57.00       219.27
  127.59        3348.50           6855          46.00       171.32
  127.62        3348.75           6858          47.00       175.68
  127.65        3349.00           6862          53.00       201.83
  127.68        3349.25           6866          44.00       162.60
  127.71        3349.50           6870          51.00       193.11
  127.75        3349.75           6873          49.00       184.39
  127.78        3350.00           6877          43.00       158.24
  127.81        3350.25           6881          50.00       188.75
  127.84        3350.50           6885          54.00       206.19
  127.87        3350.75           6888          43.00       158.24
  127.91        3351.00           6892          43.00       158.24
HL scan finished at 02:08:45
end
************************************************************
  HL Scan of (1) Internal mercury lamp
************************************************************
Integration time is 0.2294 seconds per sample
dh080619Izana 28.3081 16.4992 2.911481pr770
************************************************************
Dead Time -------------------------  2.7E-08 
Number of Cycles Used -------------  4 
Starting Wavelength (Angstroms) ---  3331 
Final Wavelength (Angstoms) -------  3351 
Wavelength Increment (Angstroms) --  .25 
Filter Wheel #1 Position ---------- (1) Ground quartz diffuser (ND=2.32)
Filter Wheel #2 Position ---------- 



************************************************************
HL scan start time = 04:21:19
Dark Count =  7 


Time (GMT)  Wavelength (Ang)  Step Number  Raw Counts  Counts/Second

  261.81        3331.00           6593          37.00       130.78
  262.03        3331.25           6597          41.00       148.21
  262.06        3331.50           6600          51.00       191.81
  262.09        3331.75           6604          43.00       156.93
  262.13        3332.00           6608          45.00       165.65
  262.16        3332.25           6612          41.00       148.21
  262.19        3332.50           6615          43.00       156.93
  262.22        3332.75           6619          41.00       148.21
  262.25        3333.00           6623          48.00       178.73
  262.29        3333.25           6627          45.00       165.65
  262.32        3333.50           6630          46.00       170.01
  262.35        3333.75           6634          57.00       217.96
  262.38        3334.00           6638          69.00       270.27
  262.41        3334.25           6642          81.00       322.58
  262.44        3334.50           6645         112.00       457.72
  262.48        3334.75           6649         122.00       501.31
  262.51        3335.00           6653         150.00       623.38
  262.54        3335.25           6656         157.00       653.89
  262.57        3335.50           6660         162.00       675.69
  262.60        3335.75           6664         195.00       819.55
  262.63        3336.00           6668         431.00      1848.39
  262.67        3336.25           6671        1009.00      4368.43
  262.70        3336.50           6675        2040.00      8864.37
  262.73        3336.75           6679        3433.00     14940.64
  262.76        3337.00           6683        4537.00     19757.71
  262.79        3337.25           6686        5385.00     23458.62
  262.82        3337.50           6690        6463.00     28164.39
  262.86        3337.75           6694        7767.00     33858.31
  262.89        3338.00           6698        9629.00     41991.79
  262.92        3338.25           6701       10961.00     47812.34
  262.95        3338.50           6705       12765.00     55698.35
  262.98        3338.75           6709       14693.00     64130.14
  263.01        3339.00           6712       16080.00     70198.31
  263.05        3339.25           6716       17720.00     77375.96
  263.08        3339.50           6720       19209.00     83895.14
  263.11        3339.75           6724       20888.00     91248.96
  263.14        3340.00           6727       22108.00     96594.22
  263.17        3340.25           6731       22892.00    100030.10
  263.20        3340.50           6735       23872.00    104325.70
  263.24        3340.75           6739       25272.00    110464.10
  263.27        3341.00           6742       26049.00    113871.80
  263.30        3341.25           6746       27032.00    118183.90
  263.33        3341.50           6750       27511.00    120285.40
  263.36        3341.75           6754       27328.00    119482.50
  263.40        3342.00           6757       26835.00    117319.60
  263.43        3342.25           6761       25396.00    111007.90
  263.46        3342.50           6765       23672.00    103449.00
  263.49        3342.75           6769       21918.00     95761.66
  263.52        3343.00           6772       21245.00     92812.94
  263.55        3343.25           6776       20448.00     89321.52
  263.59        3343.50           6780       18803.00     82117.35
  263.62        3343.75           6784       17407.00     76005.86
  263.65        3344.00           6787       16356.00     71406.07
  263.68        3344.25           6791       14751.00     64383.84
  263.71        3344.50           6795       13426.00     58588.69
  263.74        3344.75           6799       11775.00     51370.24
  263.78        3345.00           6802       10447.00     45566.06
  263.81        3345.25           6806        8942.00     38990.46
  263.84        3345.50           6810        7301.00     31823.32
  263.87        3345.75           6814        5905.00     25728.42
  263.90        3346.00           6817        4207.00     18317.69
  263.93        3346.25           6821        3097.00     13474.82
  263.97        3346.50           6825        1610.00      6989.11
  264.00        3346.75           6828         762.00      3291.49
  264.03        3347.00           6832         310.00      1320.88
  264.06        3347.25           6836         126.00       518.75
  264.09        3347.50           6840          79.00       313.86
  264.12        3347.75           6843          72.00       283.35
  264.15        3348.00           6847          55.00       209.24
  264.19        3348.25           6851          58.00       222.32
  264.22        3348.50           6855          49.00       183.09
  264.25        3348.75           6858          45.00       165.65
  264.28        3349.00           6862          44.00       161.29
  264.31        3349.25           6866          44.00       161.29
  264.34        3349.50           6870          45.00       165.65
  264.38        3349.75           6873          51.00       191.81
  264.41        3350.00           6877          42.00       152.57
  264.44        3350.25           6881          45.00       165.65
  264.47        3350.50           6885          38.00       135.14
  264.50        3350.75           6888          42.00       152.57
  264.53        3351.00           6892          45.00       165.65
HL scan finished at 04:25:22
end
************************************************************
  HL Scan of (1) Internal mercury lamp
************************************************************
Integration time is 0.2294 seconds per sample
dh080619Izana 28.3081 16.4992 2.857833pr770
************************************************************
Dead Time -------------------------  2.7E-08 
Number of Cycles Used -------------  4 
Starting Wavelength (Angstroms) ---  3331 
Final Wavelength (Angstoms) -------  3351 
Wavelength Increment (Angstroms) --  .25 
Filter Wheel #1 Position ---------- (1) Ground quartz diffuser (ND=2.32)
Filter Wheel #2 Position ---------- 



************************************************************
HL scan start time = 22:10:07
Dark Count =  4.5 


Time (GMT)  Wavelength (Ang)  Step Number  Raw Counts  Counts/Second

 1330.61        3331.00           6593          46.00       180.91
 1330.83        3331.25           6597          48.00       189.63
 1330.86        3331.50           6600          38.00       146.03
 1330.89        3331.75           6604          41.00       159.11
 1330.93        3332.00           6608          44.00       172.19
 1330.96        3332.25           6612          43.00       167.83
 1330.99        3332.50           6615          44.00       172.19
 1331.02        3332.75           6619          51.00       202.70
 1331.05        3333.00           6623          38.00       146.03
 1331.08        3333.25           6627          46.00       180.91
 1331.11        3333.50           6630          36.00       137.32
 1331.14        3333.75           6634          56.00       224.50
 1331.18        3334.00           6638          57.00       228.86
 1331.21        3334.25           6642          64.00       259.37
 1331.24        3334.50           6645          94.00       390.15
 1331.27        3334.75           6649         110.00       459.90
 1331.30        3335.00           6653         134.00       564.52
 1331.33        3335.25           6656         151.00       638.63
 1331.36        3335.50           6660         170.00       721.46
 1331.40        3335.75           6664         186.00       791.21
 1331.43        3336.00           6668         381.00      1641.31
 1331.46        3336.25           6671         980.00      4252.89
 1331.49        3336.50           6675        1969.00      8565.63
 1331.52        3336.75           6679        3491.00     15204.58
 1331.55        3337.00           6683        4463.00     19445.69
 1331.58        3337.25           6686        5241.00     22841.02
 1331.62        3337.50           6690        6443.00     28087.99
 1331.65        3337.75           6694        7933.00     34594.20
 1331.68        3338.00           6698        9785.00     42684.30
 1331.71        3338.25           6701       11062.00     48264.69
 1331.74        3338.50           6705       12917.00     56373.89
 1331.77        3338.75           6709       14741.00     64351.04
 1331.81        3339.00           6712       16132.00     70436.80
 1331.84        3339.25           6716       17541.00     76603.35
 1331.87        3339.50           6720       19257.00     84116.28
 1331.90        3339.75           6724       20719.00     90519.57
 1331.93        3340.00           6727       21838.00     95422.07
 1331.96        3340.25           6731       22631.00     98897.11
 1332.00        3340.50           6735       23581.00    103061.00
 1332.03        3340.75           6739       24517.00    107164.50
 1332.06        3341.00           6742       25678.00    112255.60
 1332.09        3341.25           6746       26763.00    117014.70
 1332.12        3341.50           6750       27067.00    118348.40
 1332.15        3341.75           6754       26888.00    117563.10
 1332.19        3342.00           6757       26161.00    114374.00
 1332.22        3342.25           6761       24774.00    108291.30
 1332.25        3342.50           6765       23018.00    100593.30
 1332.28        3342.75           6769       21067.00     92044.07
 1332.31        3343.00           6772       20356.00     88929.49
 1332.34        3343.25           6776       19654.00     85854.85
 1332.38        3343.50           6780       18335.00     80079.24
 1332.41        3343.75           6784       16730.00     73053.71
 1332.44        3344.00           6787       15692.00     68511.54
 1332.47        3344.25           6791       14093.00     61516.66
 1332.50        3344.50           6795       12729.00     55551.88
 1332.53        3344.75           6799       11208.00     48902.80
 1332.57        3345.00           6802       10047.00     43829.08
 1332.60        3345.25           6806        8566.00     37358.94
 1332.63        3345.50           6810        6892.00     30048.35
 1332.66        3345.75           6814        5553.00     24202.82
 1332.69        3346.00           6817        4108.00     17896.61
 1332.73        3346.25           6821        2945.00     12822.66
 1332.76        3346.50           6825        1488.00      6468.00
 1332.79        3346.75           6828         748.00      3241.35
 1332.82        3347.00           6832         327.00      1405.89
 1332.85        3347.25           6836         133.00       560.17
 1332.88        3347.50           6840          91.00       377.07
 1332.91        3347.75           6843          69.00       281.17
 1332.95        3348.00           6847          66.00       268.09
 1332.98        3348.25           6851          58.00       233.22
 1333.01        3348.50           6855          49.00       193.99
 1333.04        3348.75           6858          42.00       163.47
 1333.07        3349.00           6862          46.00       180.91
 1333.10        3349.25           6866          48.00       189.63
 1333.14        3349.50           6870          56.00       224.50
 1333.17        3349.75           6873          45.00       176.55
 1333.20        3350.00           6877          44.00       172.19
 1333.23        3350.25           6881          50.00       198.34
 1333.26        3350.50           6885          38.00       146.03
 1333.29        3350.75           6888          41.00       159.11
 1333.32        3351.00           6892          47.00       185.27
HL scan finished at 22:14:10
end
