************************************************************
  HL Scan of (1) Internal mercury lamp
************************************************************
Integration time is 0.2294 seconds per sample
dh300519Izana 28.3081 16.4992 2.857833pr770
************************************************************
Dead Time -------------------------  2.7E-08 
Number of Cycles Used -------------  4 
Starting Wavelength (Angstroms) ---  3331 
Final Wavelength (Angstoms) -------  3351 
Wavelength Increment (Angstroms) --  .25 
Filter Wheel #1 Position ---------- (1) Ground quartz diffuser (ND=2.32)
Filter Wheel #2 Position ---------- 



************************************************************
HL scan start time = 04:24:20
Dark Count =  8 


Time (GMT)  Wavelength (Ang)  Step Number  Raw Counts  Counts/Second

  264.82        3331.00           6593          36.00       122.06
  265.04        3331.25           6597          36.00       122.06
  265.07        3331.50           6600          37.00       126.42
  265.11        3331.75           6604          43.00       152.57
  265.14        3332.00           6608          49.00       178.73
  265.17        3332.25           6612          44.00       156.93
  265.20        3332.50           6615          38.00       130.78
  265.23        3332.75           6619          43.00       152.57
  265.26        3333.00           6623          44.00       156.93
  265.30        3333.25           6627          46.00       165.65
  265.33        3333.50           6630          51.00       187.45
  265.36        3333.75           6634          50.00       183.09
  265.39        3334.00           6638          64.00       244.12
  265.42        3334.25           6642          74.00       287.71
  265.45        3334.50           6645          91.00       361.82
  265.49        3334.75           6649         120.00       488.24
  265.52        3335.00           6653         134.00       549.27
  265.55        3335.25           6656         163.00       675.69
  265.58        3335.50           6660         154.00       636.45
  265.61        3335.75           6664         178.00       741.08
  265.64        3336.00           6668         374.00      1595.54
  265.67        3336.25           6671        1051.00      4547.20
  265.71        3336.50           6675        2107.00      9152.22
  265.74        3336.75           6679        3525.00     15337.65
  265.77        3337.00           6683        4692.00     20429.75
  265.80        3337.25           6686        5360.00     23345.14
  265.83        3337.50           6690        6659.00     29015.75
  265.86        3337.75           6694        7948.00     34644.42
  265.89        3338.00           6698        9729.00     42424.33
  265.93        3338.25           6701       11054.00     48214.43
  265.96        3338.50           6705       12966.00     56572.84
  265.99        3338.75           6709       14532.00     63421.51
  266.02        3339.00           6712       15879.00     69314.43
  266.05        3339.25           6716       17350.00     75752.00
  266.08        3339.50           6720       18763.00     81937.83
  266.12        3339.75           6724       20132.00     87933.02
  266.15        3340.00           6727       21327.00     93167.81
  266.18        3340.25           6731       22557.00     98557.47
  266.21        3340.50           6735       23414.00    102313.60
  266.24        3340.75           6739       24516.00    107144.70
  266.28        3341.00           6742       25348.00    110793.00
  266.31        3341.25           6746       26350.00    115187.70
  266.34        3341.50           6750       26904.00    117617.90
  266.37        3341.75           6754       26490.00    115801.80
  266.40        3342.00           6757       25569.00    111762.20
  266.43        3342.25           6761       24412.00    106688.80
  266.47        3342.50           6765       22645.00     98943.13
  266.50        3342.75           6769       20739.00     90591.84
  266.53        3343.00           6772       20121.00     87884.84
  266.56        3343.25           6776       19533.00     85309.61
  266.59        3343.50           6780       18066.00     78886.25
  266.62        3343.75           6784       16556.00     72276.91
  266.66        3344.00           6787       15755.00     68771.87
  266.69        3344.25           6791       14171.00     61842.50
  266.72        3344.50           6795       12809.00     55886.36
  266.75        3344.75           6799       11128.00     48537.85
  266.78        3345.00           6802        9934.00     43320.04
  266.81        3345.25           6806        8322.00     36277.89
  266.84        3345.50           6810        6772.00     29509.12
  266.88        3345.75           6814        5442.00     23703.05
  266.91        3346.00           6817        3896.00     16956.32
  266.94        3346.25           6821        2940.00     12785.58
  266.97        3346.50           6825        1417.00      6143.13
  267.00        3346.75           6828         707.00      3047.33
  267.03        3347.00           6832         304.00      1290.37
  267.07        3347.25           6836         128.00       523.11
  267.10        3347.50           6840          76.00       296.43
  267.13        3347.75           6843          86.00       340.02
  267.16        3348.00           6847          64.00       244.12
  267.19        3348.25           6851          52.00       191.81
  267.22        3348.50           6855          53.00       196.16
  267.26        3348.75           6858          49.00       178.73
  267.29        3349.00           6862          42.00       148.21
  267.32        3349.25           6866          47.00       170.01
  267.35        3349.50           6870          44.00       156.93
  267.38        3349.75           6873          51.00       187.45
  267.41        3350.00           6877          47.00       170.01
  267.44        3350.25           6881          45.00       161.29
  267.48        3350.50           6885          49.00       178.73
  267.51        3350.75           6888          43.00       152.57
  267.54        3351.00           6892          50.00       183.09
HL scan finished at 04:28:23
end
************************************************************
  HL Scan of (1) Internal mercury lamp
************************************************************
Integration time is 0.2294 seconds per sample
dh300519Izana 28.3081 16.4992 2.857833pr770
************************************************************
Dead Time -------------------------  2.7E-08 
Number of Cycles Used -------------  4 
Starting Wavelength (Angstroms) ---  3331 
Final Wavelength (Angstoms) -------  3351 
Wavelength Increment (Angstroms) --  .25 
Filter Wheel #1 Position ---------- (1) Ground quartz diffuser (ND=2.32)
Filter Wheel #2 Position ---------- 



************************************************************
HL scan start time = 21:29:59
Dark Count =  8.8 


Time (GMT)  Wavelength (Ang)  Step Number  Raw Counts  Counts/Second

 1290.46        3331.00           6593          41.00       140.37
 1290.68        3331.25           6597          38.00       127.29
 1290.71        3331.50           6600          41.00       140.37
 1290.75        3331.75           6604          36.00       118.57
 1290.78        3332.00           6608          41.00       140.37
 1290.81        3332.25           6612          38.00       127.29
 1290.84        3332.50           6615          48.00       170.88
 1290.87        3332.75           6619          39.00       131.65
 1290.90        3333.00           6623          43.00       149.09
 1290.93        3333.25           6627          46.00       162.16
 1290.96        3333.50           6630          45.00       157.80
 1291.00        3333.75           6634          54.00       197.04
 1291.03        3334.00           6638          65.00       244.99
 1291.06        3334.25           6642          85.00       332.17
 1291.09        3334.50           6645          86.00       336.53
 1291.12        3334.75           6649         116.00       467.31
 1291.15        3335.00           6653         131.00       532.70
 1291.19        3335.25           6656         151.00       619.89
 1291.22        3335.50           6660         162.00       667.84
 1291.25        3335.75           6664         186.00       772.47
 1291.28        3336.00           6668         334.00      1417.67
 1291.31        3336.25           6671         732.00      3152.84
 1291.34        3336.50           6675        2033.00      8825.99
 1291.38        3336.75           6679        3467.00     15081.12
 1291.41        3337.00           6683        4385.00     19086.56
 1291.44        3337.25           6686        4895.00     21312.17
 1291.47        3337.50           6690        5984.00     26065.42
 1291.50        3337.75           6694        7577.00     33020.71
 1291.53        3338.00           6698        9532.00     41560.13
 1291.57        3338.25           6701       10994.00     47948.70
 1291.60        3338.50           6705       12745.00     55603.03
 1291.63        3338.75           6709       14517.00     63352.39
 1291.66        3339.00           6712       15616.00     68160.20
 1291.69        3339.25           6716       17234.00     75240.75
 1291.73        3339.50           6720       18809.00     82135.74
 1291.76        3339.75           6724       20348.00     88875.61
 1291.79        3340.00           6727       21314.00     93107.36
 1291.82        3340.25           6731       22668.00     99040.43
 1291.85        3340.50           6735       23624.00    103230.70
 1291.88        3340.75           6739       24282.00    106115.30
 1291.92        3341.00           6742       25128.00    109824.70
 1291.95        3341.25           6746       26451.00    115627.20
 1291.98        3341.50           6750       26708.00    116754.60
 1292.01        3341.75           6754       26672.00    116596.70
 1292.04        3342.00           6757       25876.00    113105.10
 1292.07        3342.25           6761       24687.00    107891.00
 1292.11        3342.50           6765       22944.00    100250.10
 1292.14        3342.75           6769       20910.00     91337.44
 1292.17        3343.00           6772       20406.00     89129.66
 1292.20        3343.25           6776       19504.00     85179.11
 1292.23        3343.50           6780       18267.00     79762.71
 1292.26        3343.75           6784       16904.00     73796.41
 1292.30        3344.00           6787       15768.00     68825.26
 1292.33        3344.25           6791       14182.00     61887.11
 1292.36        3344.50           6795       12644.00     55161.44
 1292.39        3344.75           6799       11180.00     48761.63
 1292.42        3345.00           6802       10132.00     44181.71
 1292.45        3345.25           6806        8586.00     37427.52
 1292.49        3345.50           6810        6823.00     29728.30
 1292.52        3345.75           6814        4850.00     21115.79
 1292.55        3346.00           6817        3965.00     17253.90
 1292.58        3346.25           6821        3062.00     13314.29
 1292.61        3346.50           6825        1654.00      7173.14
 1292.64        3346.75           6828         826.00      3562.68
 1292.68        3347.00           6832         304.00      1286.88
 1292.71        3347.25           6836         159.00       654.76
 1292.74        3347.50           6840          97.00       384.49
 1292.77        3347.75           6843          70.00       266.78
 1292.80        3348.00           6847          64.00       240.63
 1292.83        3348.25           6851          56.00       205.76
 1292.86        3348.50           6855          48.00       170.88
 1292.90        3348.75           6858          46.00       162.16
 1292.93        3349.00           6862          49.00       175.24
 1292.96        3349.25           6866          38.00       127.29
 1292.99        3349.50           6870          43.00       149.09
 1293.03        3349.75           6873          49.00       175.24
 1293.07        3350.00           6877          45.00       157.80
 1293.11        3350.25           6881          40.00       136.01
 1293.14        3350.50           6885          44.00       153.44
 1293.17        3350.75           6888          44.00       153.44
 1293.20        3351.00           6892          45.00       157.80
HL scan finished at 21:34:02
end
