************************************************************
  HL Scan of (1) Internal mercury lamp
************************************************************
Integration time is 0.2294 seconds per sample
dh040619Izana 28.3081 16.4992 2.857833pr770
************************************************************
Dead Time -------------------------  2.7E-08 
Number of Cycles Used -------------  4 
Starting Wavelength (Angstroms) ---  3331 
Final Wavelength (Angstoms) -------  3351 
Wavelength Increment (Angstroms) --  .25 
Filter Wheel #1 Position ---------- (1) Ground quartz diffuser (ND=2.32)
Filter Wheel #2 Position ---------- 



************************************************************
HL scan start time = 04:22:03
Dark Count =  7 


Time (GMT)  Wavelength (Ang)  Step Number  Raw Counts  Counts/Second

  262.53        3331.00           6593          51.00       191.81
  262.76        3331.25           6597          46.00       170.01
  262.79        3331.50           6600          46.00       170.01
  262.82        3331.75           6604          35.00       122.06
  262.85        3332.00           6608          42.00       152.57
  262.88        3332.25           6612          42.00       152.57
  262.92        3332.50           6615          40.00       143.85
  262.95        3332.75           6619          49.00       183.09
  262.98        3333.00           6623          43.00       156.93
  263.01        3333.25           6627          45.00       165.65
  263.04        3333.50           6630          44.00       161.29
  263.07        3333.75           6634          59.00       226.68
  263.11        3334.00           6638          62.00       239.76
  263.14        3334.25           6642          83.00       331.30
  263.17        3334.50           6645         102.00       414.13
  263.20        3334.75           6649         113.00       462.08
  263.23        3335.00           6653         150.00       623.38
  263.26        3335.25           6656         153.00       636.45
  263.30        3335.50           6660         166.00       693.13
  263.33        3335.75           6664         205.00       863.14
  263.36        3336.00           6668         461.00      1979.18
  263.39        3336.25           6671        1005.00      4350.99
  263.42        3336.50           6675        1935.00      8406.44
  263.45        3336.75           6679        3514.00     15294.02
  263.49        3337.00           6683        4789.00     20857.43
  263.52        3337.25           6686        5629.00     24523.65
  263.55        3337.50           6690        6725.00     29308.28
  263.58        3337.75           6694        8299.00     36181.80
  263.61        3338.00           6698       10120.00     44137.14
  263.65        3338.25           6701       11280.00     49206.57
  263.68        3338.50           6705       13092.00     57128.16
  263.71        3338.75           6709       15216.00     66418.04
  263.74        3339.00           6712       16521.00     72128.13
  263.77        3339.25           6716       18067.00     78895.00
  263.81        3339.50           6720       19600.00     85607.41
  263.84        3339.75           6724       20862.00     91135.06
  263.87        3340.00           6727       21733.00     94951.05
  263.90        3340.25           6731       22841.00     99806.52
  263.94        3340.50           6735       24132.00    105465.50
  263.97        3340.75           6739       25410.00    111069.30
  264.00        3341.00           6742       26261.00    114801.70
  264.03        3341.25           6746       27049.00    118258.40
  264.06        3341.50           6750       27656.00    120921.60
  264.09        3341.75           6754       27231.00    119056.90
  264.13        3342.00           6757       26401.00    115415.80
  264.16        3342.25           6761       25033.00    109416.10
  264.19        3342.50           6765       23100.00    100941.70
  264.22        3342.75           6769       21564.00     94210.57
  264.26        3343.00           6772       20841.00     91043.06
  264.29        3343.25           6776       19869.00     86785.51
  264.32        3343.50           6780       18240.00     79652.38
  264.35        3343.75           6784       16882.00     73708.01
  264.38        3344.00           6787       15875.00     69301.31
  264.42        3344.25           6791       14215.00     62039.32
  264.45        3344.50           6795       12900.00     56288.63
  264.48        3344.75           6799       11325.00     49403.26
  264.51        3345.00           6802       10125.00     44158.99
  264.54        3345.25           6806        8530.00     37190.77
  264.57        3345.50           6810        6840.00     29810.39
  264.60        3345.75           6814        5426.00     23637.58
  264.64        3346.00           6817        3757.00     16354.21
  264.67        3346.25           6821        2764.00     12022.21
  264.70        3346.50           6825        1368.00      5933.82
  264.73        3346.75           6828         702.00      3029.89
  264.76        3347.00           6832         290.00      1233.69
  264.80        3347.25           6836         116.00       475.16
  264.83        3347.50           6840          85.00       340.02
  264.86        3347.75           6843          72.00       283.35
  264.89        3348.00           6847          65.00       252.84
  264.92        3348.25           6851          49.00       183.09
  264.95        3348.50           6855          47.00       174.37
  264.99        3348.75           6858          49.00       183.09
  265.02        3349.00           6862          47.00       174.37
  265.05        3349.25           6866          45.00       165.65
  265.08        3349.50           6870          54.00       204.88
  265.11        3349.75           6873          46.00       170.01
  265.15        3350.00           6877          41.00       148.21
  265.18        3350.25           6881          47.00       174.37
  265.21        3350.50           6885          51.00       191.81
  265.24        3350.75           6888          41.00       148.21
  265.27        3351.00           6892          44.00       161.29
HL scan finished at 04:26:07
end
************************************************************
  HL Scan of (1) Internal mercury lamp
************************************************************
Integration time is 0.2294 seconds per sample
dh040619Izana 28.3081 16.4992 2.857833pr770
************************************************************
Dead Time -------------------------  2.7E-08 
Number of Cycles Used -------------  4 
Starting Wavelength (Angstroms) ---  3331 
Final Wavelength (Angstoms) -------  3351 
Wavelength Increment (Angstroms) --  .25 
Filter Wheel #1 Position ---------- (1) Ground quartz diffuser (ND=2.32)
Filter Wheel #2 Position ---------- 



************************************************************
HL scan start time = 21:30:26
Dark Count =  7.7 


Time (GMT)  Wavelength (Ang)  Step Number  Raw Counts  Counts/Second

 1290.91        3331.00           6593          43.00       153.88
 1291.14        3331.25           6597          43.00       153.88
 1291.17        3331.50           6600          38.00       132.08
 1291.20        3331.75           6604          34.00       114.65
 1291.23        3332.00           6608          45.00       162.60
 1291.26        3332.25           6612          39.00       136.44
 1291.30        3332.50           6615          43.00       153.88
 1291.33        3332.75           6619          43.00       153.88
 1291.36        3333.00           6623          40.00       140.80
 1291.39        3333.25           6627          44.00       158.24
 1291.42        3333.50           6630          45.00       162.60
 1291.46        3333.75           6634          57.00       214.91
 1291.49        3334.00           6638          73.00       284.66
 1291.52        3334.25           6642          80.00       315.17
 1291.55        3334.50           6645         102.00       411.08
 1291.58        3334.75           6649         118.00       480.83
 1291.61        3335.00           6653         144.00       594.17
 1291.65        3335.25           6656         162.00       672.64
 1291.68        3335.50           6660         171.00       711.87
 1291.71        3335.75           6664         189.00       790.34
 1291.74        3336.00           6668         423.00      1810.46
 1291.77        3336.25           6671        1033.00      4470.03
 1291.81        3336.50           6675        2067.00      8979.07
 1291.84        3336.75           6679        3464.00     15072.83
 1291.87        3337.00           6683        4526.00     19706.65
 1291.90        3337.25           6686        5427.00     23638.89
 1291.93        3337.50           6690        6521.00     28414.56
 1291.97        3337.75           6694        7949.00     34650.10
 1292.00        3338.00           6698        9745.00     42495.55
 1292.03        3338.25           6701       10948.00     47752.47
 1292.06        3338.50           6705       12875.00     56176.25
 1292.09        3338.75           6709       14658.00     63973.97
 1292.13        3339.00           6712       15970.00     69713.93
 1292.16        3339.25           6716       17527.00     76528.06
 1292.19        3339.50           6720       18918.00     82617.83
 1292.22        3339.75           6724       20352.00     88897.96
 1292.25        3340.00           6727       21394.00     93462.68
 1292.29        3340.25           6731       22457.00     98120.55
 1292.32        3340.50           6735       23312.00    101867.90
 1292.35        3340.75           6739       24459.00    106896.10
 1292.38        3341.00           6742       25397.00    111009.20
 1292.41        3341.25           6746       26321.00    115061.80
 1292.45        3341.50           6750       26659.00    116544.50
 1292.48        3341.75           6754       26604.00    116303.20
 1292.51        3342.00           6757       25692.00    112303.00
 1292.54        3342.25           6761       24279.00    106107.00
 1292.57        3342.50           6765       22270.00     97301.07
 1292.61        3342.75           6769       20557.00     89795.91
 1292.64        3343.00           6772       20162.00     88065.74
 1292.67        3343.25           6776       19465.00     85013.14
 1292.70        3343.50           6780       17796.00     77705.59
 1292.73        3343.75           6784       16265.00     71004.78
 1292.76        3344.00           6787       15310.00     66826.22
 1292.80        3344.25           6791       13918.00     60737.28
 1292.83        3344.50           6795       12475.00     54427.35
 1292.86        3344.75           6799       10836.00     47262.98
 1292.89        3345.00           6802        9794.00     42709.64
 1292.93        3345.25           6806        8132.00     35449.35
 1292.96        3345.50           6810        6703.00     29209.16
 1292.99        3345.75           6814        5280.00     22997.27
 1293.03        3346.00           6817        3663.00     15941.04
 1293.07        3346.25           6821        2641.00     11482.64
 1293.11        3346.50           6825        1362.00      5904.60
 1293.15        3346.75           6828         678.00      2922.20
 1293.19        3347.00           6832         285.00      1208.85
 1293.22        3347.25           6836         113.00       459.03
 1293.25        3347.50           6840          80.00       315.17
 1293.28        3347.75           6843          72.00       280.30
 1293.32        3348.00           6847          64.00       245.42
 1293.36        3348.25           6851          50.00       184.39
 1293.39        3348.50           6855          55.00       206.19
 1293.42        3348.75           6858          49.00       180.04
 1293.46        3349.00           6862          47.00       171.32
 1293.49        3349.25           6866          45.00       162.60
 1293.53        3349.50           6870          40.00       140.80
 1293.57        3349.75           6873          39.00       136.44
 1293.61        3350.00           6877          51.00       188.75
 1293.65        3350.25           6881          49.00       180.04
 1293.69        3350.50           6885          42.00       149.52
 1293.72        3350.75           6888          35.00       119.01
 1293.75        3351.00           6892          46.00       166.96
HL scan finished at 21:34:35
end
