************************************************************
  HL Scan of (1) Internal mercury lamp
************************************************************
Integration time is 0.2294 seconds per sample
dh180619ElArenosillo 37.1 6.73 2.857833pr1023
************************************************************
Dead Time -------------------------  2.7E-08 
Number of Cycles Used -------------  4 
Starting Wavelength (Angstroms) ---  3331 
Final Wavelength (Angstoms) -------  3351 
Wavelength Increment (Angstroms) --  .25 
Filter Wheel #1 Position ---------- (1) Ground quartz diffuser (ND=2.32)
Filter Wheel #2 Position ---------- 



************************************************************
HL scan start time = 02:33:32
Dark Count =  5.3 


Time (GMT)  Wavelength (Ang)  Step Number  Raw Counts  Counts/Second

  154.02        3331.00           6593          42.00       159.98
  154.24        3331.25           6597          40.00       151.26
  154.27        3331.50           6600          46.00       177.42
  154.30        3331.75           6604          40.00       151.26
  154.33        3332.00           6608          37.00       138.19
  154.36        3332.25           6612          39.00       146.91
  154.39        3332.50           6615          42.00       159.98
  154.42        3332.75           6619          44.00       168.70
  154.45        3333.00           6623          43.00       164.34
  154.48        3333.25           6627          45.00       173.06
  154.51        3333.50           6630          42.00       159.98
  154.55        3333.75           6634          49.00       190.50
  154.58        3334.00           6638          61.00       242.81
  154.61        3334.25           6642          72.00       290.76
  154.64        3334.50           6645          93.00       382.31
  154.67        3334.75           6649         106.00       438.98
  154.70        3335.00           6653         118.00       491.29
  154.73        3335.25           6656         146.00       613.35
  154.76        3335.50           6660         165.00       696.18
  154.79        3335.75           6664         189.00       800.80
  154.82        3336.00           6668         381.00      1637.82
  154.85        3336.25           6671        1012.00      4388.93
  154.88        3336.50           6675        2059.00      8954.65
  154.91        3336.75           6679        3300.00     14367.82
  154.94        3337.00           6683        4766.00     20764.47
  154.97        3337.25           6686        5407.00     23562.07
  155.01        3337.50           6690        6418.00     27975.36
  155.04        3337.75           6694        7397.00     32249.96
  155.07        3338.00           6698        8495.00     37045.32
  155.10        3338.25           6701        9765.00     42593.42
  155.13        3338.50           6705       11334.00     49450.03
  155.16        3338.75           6709       12656.00     55229.20
  155.19        3339.00           6712       13861.00     60498.49
  155.22        3339.25           6716       15229.00     66482.35
  155.25        3339.50           6720       16719.00     73002.08
  155.28        3339.75           6724       17963.00     78447.15
  155.32        3340.00           6727       19051.00     83210.72
  155.35        3340.25           6731       20126.00     87918.57
  155.38        3340.50           6735       21396.00     93481.96
  155.41        3340.75           6739       22205.00     97026.74
  155.44        3341.00           6742       22991.00    100471.40
  155.47        3341.25           6746       23412.00    102316.70
  155.50        3341.50           6750       23586.00    103079.40
  155.53        3341.75           6754       23218.00    101466.30
  155.56        3342.00           6757       22793.00     99603.60
  155.59        3342.25           6761       21605.00     94397.66
  155.62        3342.50           6765       20185.00     88176.99
  155.65        3342.75           6769       18411.00     80408.47
  155.68        3343.00           6772       17453.00     76214.65
  155.71        3343.25           6776       16619.00     72564.44
  155.74        3343.50           6780       15854.00     69216.86
  155.77        3343.75           6784       14709.00     64207.56
  155.80        3344.00           6787       13816.00     60301.68
  155.84        3344.25           6791       12405.00     54131.81
  155.87        3344.50           6795       11217.00     48938.65
  155.90        3344.75           6799        9763.00     42584.69
  155.93        3345.00           6802        8756.00     38185.38
  155.96        3345.25           6806        7542.00     32883.15
  155.99        3345.50           6810        6145.00     26783.53
  156.02        3345.75           6814        4614.00     20101.14
  156.05        3346.00           6817        3199.00     13927.21
  156.08        3346.25           6821        1860.00      8086.77
  156.11        3346.50           6825        1188.00      5156.34
  156.14        3346.75           6828         606.00      2618.76
  156.17        3347.00           6832         236.00      1005.69
  156.20        3347.25           6836          98.00       404.10
  156.23        3347.50           6840          70.00       282.04
  156.26        3347.75           6843          73.00       295.12
  156.29        3348.00           6847          59.00       234.09
  156.32        3348.25           6851          53.00       207.93
  156.35        3348.50           6855          46.00       177.42
  156.39        3348.75           6858          45.00       173.06
  156.42        3349.00           6862          47.00       181.78
  156.45        3349.25           6866          42.00       159.98
  156.48        3349.50           6870          38.00       142.55
  156.51        3349.75           6873          45.00       173.06
  156.54        3350.00           6877          40.00       151.26
  156.57        3350.25           6881          42.00       159.98
  156.60        3350.50           6885          41.00       155.62
  156.63        3350.75           6888          39.00       146.91
  156.66        3351.00           6892          42.00       159.98
HL scan finished at 02:37:29
end
