************************************************************
  HL Scan of (1) Internal mercury lamp
************************************************************
Integration time is 0.2294 seconds per sample
dh140619ElArenosillo 37.1 6.73 2.857833pr1023
************************************************************
Dead Time -------------------------  2.7E-08 
Number of Cycles Used -------------  4 
Starting Wavelength (Angstroms) ---  3331 
Final Wavelength (Angstoms) -------  3351 
Wavelength Increment (Angstroms) --  .25 
Filter Wheel #1 Position ---------- (1) Ground quartz diffuser (ND=2.32)
Filter Wheel #2 Position ---------- 



************************************************************
HL scan start time = 21:50:14
Dark Count =  6.3 


Time (GMT)  Wavelength (Ang)  Step Number  Raw Counts  Counts/Second

 1310.71        3331.00           6593          40.00       146.91
 1310.93        3331.25           6597          40.00       146.91
 1310.96        3331.50           6600          39.00       142.55
 1310.99        3331.75           6604          44.00       164.34
 1311.02        3332.00           6608          40.00       146.91
 1311.05        3332.25           6612          56.00       216.65
 1311.08        3332.50           6615          39.00       142.55
 1311.11        3332.75           6619          42.00       155.62
 1311.15        3333.00           6623          38.00       138.19
 1311.18        3333.25           6627          44.00       164.34
 1311.21        3333.50           6630          43.00       159.98
 1311.24        3333.75           6634          47.00       177.42
 1311.27        3334.00           6638          64.00       251.53
 1311.30        3334.25           6642          63.00       247.17
 1311.33        3334.50           6645          93.00       377.95
 1311.36        3334.75           6649         115.00       473.85
 1311.39        3335.00           6653         130.00       539.24
 1311.42        3335.25           6656         151.00       630.79
 1311.45        3335.50           6660         154.00       643.86
 1311.48        3335.75           6664         198.00       835.68
 1311.51        3336.00           6668         437.00      1877.60
 1311.54        3336.25           6671         973.00      4214.52
 1311.58        3336.50           6675        2123.00      9229.41
 1311.61        3336.75           6679        3469.00     15100.75
 1311.64        3337.00           6683        4787.00     20851.76
 1311.67        3337.25           6686        5455.00     23767.21
 1311.70        3337.50           6690        6646.00     28966.41
 1311.73        3337.75           6694        7821.00     34097.20
 1311.76        3338.00           6698        9044.00     39439.10
 1311.79        3338.25           6701       10516.00     45870.64
 1311.82        3338.50           6705       12028.00     52479.28
 1311.85        3338.75           6709       13894.00     60638.43
 1311.88        3339.00           6712       15080.00     65826.13
 1311.91        3339.25           6716       16454.00     71837.99
 1311.94        3339.50           6720       17753.00     77523.47
 1311.98        3339.75           6724       19300.00     84296.69
 1312.01        3340.00           6727       20357.00     88925.98
 1312.04        3340.25           6731       21871.00     95558.78
 1312.07        3340.50           6735       23044.00    100699.30
 1312.10        3340.75           6739       23661.00    103403.80
 1312.13        3341.00           6742       24130.00    105459.90
 1312.16        3341.25           6746       24660.00    107783.60
 1312.19        3341.50           6750       24998.00    109265.60
 1312.22        3341.75           6754       24463.00    106919.80
 1312.25        3342.00           6757       23801.00    104017.50
 1312.28        3342.25           6761       22366.00     97727.89
 1312.31        3342.50           6765       21143.00     92369.13
 1312.34        3342.75           6769       19351.00     84520.03
 1312.38        3343.00           6772       18315.00     79983.78
 1312.41        3343.25           6776       16908.00     73824.85
 1312.44        3343.50           6780       16458.00     71855.49
 1312.47        3343.75           6784       15150.00     66132.37
 1312.50        3344.00           6787       14376.00     62746.58
 1312.53        3344.25           6791       13022.00     56825.14
 1312.56        3344.50           6795       11352.00     49524.33
 1312.59        3344.75           6799       10130.00     44183.89
 1312.62        3345.00           6802        8996.00     39229.42
 1312.65        3345.25           6806        7592.00     33097.13
 1312.68        3345.50           6810        6153.00     26814.09
 1312.72        3345.75           6814        4501.00     19603.66
 1312.75        3346.00           6817        3088.00     13438.62
 1312.78        3346.25           6821        1854.00      8056.24
 1312.81        3346.50           6825        1234.00      5352.56
 1312.84        3346.75           6828         609.00      2627.48
 1312.87        3347.00           6832         235.00       996.98
 1312.90        3347.25           6836         100.00       408.46
 1312.93        3347.50           6840          72.00       286.40
 1312.96        3347.75           6843          67.00       264.61
 1312.99        3348.00           6847          55.00       212.29
 1313.02        3348.25           6851          57.00       221.01
 1313.05        3348.50           6855          45.00       168.70
 1313.08        3348.75           6858          40.00       146.91
 1313.12        3349.00           6862          44.00       164.34
 1313.15        3349.25           6866          42.00       155.62
 1313.18        3349.50           6870          43.00       159.98
 1313.21        3349.75           6873          43.00       159.98
 1313.24        3350.00           6877          43.00       159.98
 1313.27        3350.25           6881          42.00       155.62
 1313.30        3350.50           6885          42.00       155.62
 1313.33        3350.75           6888          42.00       155.62
 1313.36        3351.00           6892          45.00       168.70
HL scan finished at 21:54:11
end
