************************************************************
  HL Scan of (1) Internal mercury lamp
************************************************************
Integration time is 0.2294 seconds per sample
dh110619Izana 28.3081 16.4992 2.804185pr770
************************************************************
Dead Time -------------------------  2.7E-08 
Number of Cycles Used -------------  4 
Starting Wavelength (Angstroms) ---  3331 
Final Wavelength (Angstoms) -------  3351 
Wavelength Increment (Angstroms) --  .25 
Filter Wheel #1 Position ---------- (1) Ground quartz diffuser (ND=2.32)
Filter Wheel #2 Position ---------- 



************************************************************
HL scan start time = 04:20:57
Dark Count =  6.7 


Time (GMT)  Wavelength (Ang)  Step Number  Raw Counts  Counts/Second

  261.43        3331.00           6593          45.00       166.96
  261.66        3331.25           6597          34.00       119.01
  261.69        3331.50           6600          37.00       132.08
  261.72        3331.75           6604          34.00       119.01
  261.75        3332.00           6608          43.00       158.24
  261.78        3332.25           6612          41.00       149.52
  261.81        3332.50           6615          47.00       175.68
  261.84        3332.75           6619          41.00       149.52
  261.88        3333.00           6623          39.00       140.80
  261.91        3333.25           6627          38.00       136.44
  261.94        3333.50           6630          56.00       214.91
  261.97        3333.75           6634          58.00       223.63
  262.00        3334.00           6638          67.00       262.86
  262.03        3334.25           6642          82.00       328.25
  262.06        3334.50           6645         102.00       415.44
  262.10        3334.75           6649         117.00       480.83
  262.13        3335.00           6653         136.00       563.65
  262.16        3335.25           6656         142.00       589.81
  262.19        3335.50           6660         166.00       694.43
  262.22        3335.75           6664         187.00       785.98
  262.25        3336.00           6668         494.00      2124.36
  262.29        3336.25           6671        1198.00      5193.84
  262.32        3336.50           6675        2265.00      9847.00
  262.35        3336.75           6679        3309.00     14400.98
  262.38        3337.00           6683        4505.00     19619.37
  262.41        3337.25           6686        5474.00     23848.39
  262.44        3337.50           6690        6792.00     29602.11
  262.47        3337.75           6694        8288.00     36135.06
  262.51        3338.00           6698        9667.00     42159.12
  262.54        3338.25           6701       11602.00     50615.33
  262.57        3338.50           6705       13106.00     57190.69
  262.60        3338.75           6709       14590.00     63680.89
  262.63        3339.00           6712       15698.00     68528.16
  262.66        3339.25           6716       17274.00     75425.03
  262.70        3339.50           6720       18908.00     82578.43
  262.73        3339.75           6724       20365.00     88959.28
  262.76        3340.00           6727       21232.00     92757.31
  262.79        3340.25           6731       21981.00     96039.03
  262.82        3340.50           6735       23122.00    101039.40
  262.85        3340.75           6739       24610.00    107562.60
  262.89        3341.00           6742       25675.00    112232.80
  262.92        3341.25           6746       26298.00    114965.30
  262.95        3341.50           6750       26645.00    116487.40
  262.98        3341.75           6754       26306.00    115000.40
  263.01        3342.00           6757       25178.00    110053.20
  263.04        3342.25           6761       24182.00    105686.10
  263.08        3342.50           6765       22787.00     99571.18
  263.11        3342.75           6769       20961.00     91570.06
  263.14        3343.00           6772       20231.00     88372.35
  263.17        3343.25           6776       19380.00     84645.28
  263.20        3343.50           6780       17996.00     78585.49
  263.24        3343.75           6784       16730.00     73044.10
  263.27        3344.00           6787       15427.00     67342.47
  263.30        3344.25           6791       13977.00     60999.69
  263.33        3344.50           6795       12476.00     54436.10
  263.36        3344.75           6799       11026.00     48097.73
  263.39        3345.00           6802        9883.00     43102.88
  263.43        3345.25           6806        8018.00     34955.82
  263.46        3345.50           6810        6394.00     27864.46
  263.49        3345.75           6814        4946.00     21543.92
  263.52        3346.00           6817        3798.00     16534.41
  263.55        3346.25           6821        2661.00     11574.24
  263.58        3346.50           6825        1318.00      5717.10
  263.61        3346.75           6828         672.00      2900.40
  263.64        3347.00           6832         276.00      1173.97
  263.68        3347.25           6836         113.00       463.39
  263.71        3347.50           6840          76.00       302.09
  263.74        3347.75           6843          66.00       258.50
  263.77        3348.00           6847          65.00       254.14
  263.80        3348.25           6851          52.00       197.47
  263.83        3348.50           6855          44.00       162.60
  263.86        3348.75           6858          48.00       180.04
  263.90        3349.00           6862          52.00       197.47
  263.93        3349.25           6866          55.00       210.55
  263.96        3349.50           6870          46.00       171.32
  263.99        3349.75           6873          46.00       171.32
  264.02        3350.00           6877          52.00       197.47
  264.05        3350.25           6881          45.00       166.96
  264.08        3350.50           6885          49.00       184.39
  264.12        3350.75           6888          45.00       166.96
  264.15        3351.00           6892          42.00       153.88
HL scan finished at 04:24:59
end
