************************************************************
  HL Scan of (1) Internal mercury lamp
************************************************************
Integration time is 0.2294 seconds per sample
dh150619ElArenosillo 37.1 6.73 2.804185pr1023
************************************************************
Dead Time -------------------------  2.7E-08 
Number of Cycles Used -------------  4 
Starting Wavelength (Angstroms) ---  3331 
Final Wavelength (Angstoms) -------  3351 
Wavelength Increment (Angstroms) --  .25 
Filter Wheel #1 Position ---------- (1) Ground quartz diffuser (ND=2.32)
Filter Wheel #2 Position ---------- 



************************************************************
HL scan start time = 01:25:58
Dark Count =  5.3 


Time (GMT)  Wavelength (Ang)  Step Number  Raw Counts  Counts/Second

   86.45        3331.00           6593          38.00       142.55
   86.68        3331.25           6597          37.00       138.19
   86.71        3331.50           6600          42.00       159.98
   86.74        3331.75           6604          45.00       173.06
   86.77        3332.00           6608          37.00       138.19
   86.80        3332.25           6612          39.00       146.91
   86.83        3332.50           6615          44.00       168.70
   86.86        3332.75           6619          48.00       186.14
   86.89        3333.00           6623          47.00       181.78
   86.92        3333.25           6627          52.00       203.58
   86.95        3333.50           6630          47.00       181.78
   86.98        3333.75           6634          53.00       207.93
   87.01        3334.00           6638          60.00       238.45
   87.04        3334.25           6642          71.00       286.40
   87.07        3334.50           6645         102.00       421.54
   87.11        3334.75           6649         110.00       456.41
   87.14        3335.00           6653         129.00       539.24
   87.17        3335.25           6656         150.00       630.79
   87.20        3335.50           6660         169.00       713.61
   87.23        3335.75           6664         192.00       813.88
   87.26        3336.00           6668         343.00      1472.16
   87.29        3336.25           6671        1032.00      4476.13
   87.32        3336.50           6675        2237.00      9730.98
   87.35        3336.75           6679        3685.00     16047.49
   87.38        3337.00           6683        5028.00     21907.90
   87.41        3337.25           6686        6193.00     26993.08
   87.44        3337.50           6690        7202.00     31398.45
   87.47        3337.75           6694        8300.00     36193.60
   87.50        3338.00           6698        9935.00     43336.21
   87.54        3338.25           6701       11064.00     48269.93
   87.57        3338.50           6705       13266.00     57896.45
   87.60        3338.75           6709       14850.00     64824.35
   87.63        3339.00           6712       16064.00     70135.75
   87.66        3339.25           6716       17533.00     76564.82
   87.69        3339.50           6720       18885.00     82483.84
   87.72        3339.75           6724       20414.00     89180.04
   87.75        3340.00           6727       21424.00     93604.62
   87.78        3340.25           6731       22848.00     99844.66
   87.81        3340.50           6735       23714.00    103640.50
   87.84        3340.75           6739       24742.00    108147.50
   87.87        3341.00           6742       25429.00    111160.10
   87.90        3341.25           6746       26231.00    114677.60
   87.93        3341.50           6750       26542.00    116041.70
   87.97        3341.75           6754       26152.00    114331.00
   88.00        3342.00           6757       25440.00    111208.30
   88.03        3342.25           6761       23615.00    103206.60
   88.06        3342.50           6765       22340.00     97618.33
   88.09        3342.75           6769       20920.00     91396.57
   88.12        3343.00           6772       19311.00     84349.24
   88.15        3343.25           6776       18249.00     79699.22
   88.18        3343.50           6780       17385.00     75917.00
   88.21        3343.75           6784       16098.00     70284.52
   88.24        3344.00           6787       14963.00     65318.67
   88.27        3344.25           6791       13635.00     59510.10
   88.30        3344.50           6795       12245.00     53432.31
   88.33        3344.75           6799       10712.00     46731.55
   88.36        3345.00           6802        9567.00     41728.33
   88.40        3345.25           6806        8127.00     35437.99
   88.43        3345.50           6810        6151.00     26809.72
   88.46        3345.75           6814        4586.00     19978.95
   88.49        3346.00           6817        3893.00     16955.01
   88.52        3346.25           6821        2079.00      9041.88
   88.55        3346.50           6825        1279.00      5553.14
   88.58        3346.75           6828         624.00      2697.23
   88.61        3347.00           6832         241.00      1027.49
   88.64        3347.25           6836         106.00       438.98
   88.67        3347.50           6840          84.00       343.07
   88.70        3347.75           6843          66.00       264.61
   88.73        3348.00           6847          62.00       247.17
   88.76        3348.25           6851          44.00       168.70
   88.79        3348.50           6855          54.00       212.29
   88.82        3348.75           6858          46.00       177.42
   88.85        3349.00           6862          36.00       133.83
   88.89        3349.25           6866          44.00       168.70
   88.92        3349.50           6870          43.00       164.34
   88.95        3349.75           6873          44.00       168.70
   88.98        3350.00           6877          44.00       168.70
   89.01        3350.25           6881          48.00       186.14
   89.04        3350.50           6885          43.00       164.34
   89.07        3350.75           6888          42.00       159.98
   89.10        3351.00           6892          39.00       146.91
HL scan finished at 01:29:55
end
************************************************************
  HL Scan of (1) Internal mercury lamp
************************************************************
Integration time is 0.2294 seconds per sample
dh150619ElArenosillo 37.1 6.73 2.804185pr1023
************************************************************
Dead Time -------------------------  2.7E-08 
Number of Cycles Used -------------  4 
Starting Wavelength (Angstroms) ---  3331 
Final Wavelength (Angstoms) -------  3351 
Wavelength Increment (Angstroms) --  .25 
Filter Wheel #1 Position ---------- (1) Ground quartz diffuser (ND=2.32)
Filter Wheel #2 Position ---------- 



************************************************************
HL scan start time = 02:29:18
Dark Count =  4.5 


Time (GMT)  Wavelength (Ang)  Step Number  Raw Counts  Counts/Second

  149.78        3331.00           6593          41.00       159.11
  150.00        3331.25           6597          40.00       154.75
  150.03        3331.50           6600          40.00       154.75
  150.07        3331.75           6604          36.00       137.32
  150.10        3332.00           6608          40.00       154.75
  150.13        3332.25           6612          37.00       141.67
  150.16        3332.50           6615          45.00       176.55
  150.19        3332.75           6619          43.00       167.83
  150.22        3333.00           6623          45.00       176.55
  150.25        3333.25           6627          46.00       180.91
  150.28        3333.50           6630          45.00       176.55
  150.31        3333.75           6634          43.00       167.83
  150.34        3334.00           6638          67.00       272.45
  150.37        3334.25           6642          72.00       294.25
  150.40        3334.50           6645          89.00       368.36
  150.43        3334.75           6649         105.00       438.10
  150.46        3335.00           6653         137.00       577.60
  150.49        3335.25           6656         141.00       595.04
  150.52        3335.50           6660         151.00       638.63
  150.55        3335.75           6664         167.00       708.38
  150.58        3336.00           6668         323.00      1388.46
  150.61        3336.25           6671         820.00      3555.27
  150.64        3336.50           6675        1941.00      8443.51
  150.67        3336.75           6679        3236.00     14092.11
  150.70        3337.00           6683        4442.00     19354.05
  150.74        3337.25           6686        5243.00     22849.75
  150.77        3337.50           6690        6262.00     27297.79
  150.80        3337.75           6694        7419.00     32349.52
  150.83        3338.00           6698        8571.00     37380.78
  150.86        3338.25           6701        9795.00     42727.99
  150.89        3338.50           6705       11247.00     49073.26
  150.92        3338.75           6709       13015.00     56802.40
  150.95        3339.00           6712       14143.00     61735.34
  150.98        3339.25           6716       15412.00     67286.48
  151.02        3339.50           6720       16759.00     73180.63
  151.05        3339.75           6724       17852.00     77964.74
  151.08        3340.00           6727       18972.00     82868.29
  151.11        3340.25           6731       20471.00     89433.21
  151.14        3340.50           6735       21575.00     94269.72
  151.17        3340.75           6739       22209.00     97047.77
  151.20        3341.00           6742       22896.00    100058.50
  151.23        3341.25           6746       23496.00    102688.40
  151.26        3341.50           6750       23710.00    103626.50
  151.29        3341.75           6754       23471.00    102578.80
  151.32        3342.00           6757       22887.00    100019.10
  151.35        3342.25           6761       21511.00     93989.31
  151.38        3342.50           6765       20449.00     89336.86
  151.41        3342.75           6769       18638.00     81405.85
  151.45        3343.00           6772       17586.00     76800.34
  151.48        3343.25           6776       16448.00     71819.61
  151.51        3343.50           6780       15875.00     69312.24
  151.54        3343.75           6784       14806.00     64635.37
  151.57        3344.00           6787       13757.00     60047.15
  151.60        3344.25           6791       12384.00     54043.49
  151.63        3344.50           6795       11167.00     48723.60
  151.66        3344.75           6799        9908.00     43221.73
  151.69        3345.00           6802        8956.00     39062.54
  151.72        3345.25           6806        7494.00     32677.03
  151.75        3345.50           6810        6041.00     26333.01
  151.79        3345.75           6814        4593.00     20012.99
  151.82        3346.00           6817        3161.00     13764.92
  151.85        3346.25           6821        2021.00      8792.41
  151.88        3346.50           6825        1308.00      5683.09
  151.91        3346.75           6828         642.00      2779.20
  151.94        3347.00           6832         231.00       987.38
  151.97        3347.25           6836         109.00       455.54
  152.00        3347.50           6840          88.00       364.00
  152.03        3347.75           6843          69.00       281.17
  152.06        3348.00           6847          59.00       237.58
  152.09        3348.25           6851          59.00       237.58
  152.12        3348.50           6855          54.00       215.78
  152.15        3348.75           6858          49.00       193.99
  152.19        3349.00           6862          41.00       159.11
  152.22        3349.25           6866          44.00       172.19
  152.25        3349.50           6870          42.00       163.47
  152.28        3349.75           6873          46.00       180.91
  152.31        3350.00           6877          39.00       150.39
  152.34        3350.25           6881          40.00       154.75
  152.37        3350.50           6885          43.00       167.83
  152.40        3350.75           6888          47.00       185.27
  152.43        3351.00           6892          49.00       193.99
HL scan finished at 02:33:15
end
************************************************************
  HL Scan of (1) Internal mercury lamp
************************************************************
Integration time is 0.2294 seconds per sample
dh150619ElArenosillo 37.1 6.73 2.911481pr1023
************************************************************
Dead Time -------------------------  2.7E-08 
Number of Cycles Used -------------  4 
Starting Wavelength (Angstroms) ---  3331 
Final Wavelength (Angstoms) -------  3351 
Wavelength Increment (Angstroms) --  .25 
Filter Wheel #1 Position ---------- (1) Ground quartz diffuser (ND=2.32)
Filter Wheel #2 Position ---------- 



************************************************************
HL scan start time = 21:50:13
Dark Count =  6.5 


Time (GMT)  Wavelength (Ang)  Step Number  Raw Counts  Counts/Second

 1310.70        3331.00           6593          44.00       163.47
 1310.92        3331.25           6597          42.00       154.75
 1310.95        3331.50           6600          44.00       163.47
 1310.98        3331.75           6604          39.00       141.67
 1311.02        3332.00           6608          44.00       163.47
 1311.05        3332.25           6612          41.00       150.39
 1311.08        3332.50           6615          37.00       132.96
 1311.11        3332.75           6619          42.00       154.75
 1311.14        3333.00           6623          40.00       146.03
 1311.17        3333.25           6627          47.00       176.55
 1311.20        3333.50           6630          37.00       132.96
 1311.23        3333.75           6634          46.00       172.19
 1311.26        3334.00           6638          53.00       202.70
 1311.29        3334.25           6642          79.00       316.04
 1311.32        3334.50           6645          96.00       390.15
 1311.35        3334.75           6649         116.00       477.34
 1311.38        3335.00           6653         123.00       507.85
 1311.42        3335.25           6656         135.00       560.17
 1311.45        3335.50           6660         163.00       682.23
 1311.48        3335.75           6664         180.00       756.34
 1311.51        3336.00           6668         283.00      1205.36
 1311.54        3336.25           6671         859.00      3716.59
 1311.57        3336.50           6675        1718.00      7462.27
 1311.60        3336.75           6679        3051.00     13276.34
 1311.63        3337.00           6683        4283.00     18651.50
 1311.66        3337.25           6686        4985.00     21715.00
 1311.69        3337.50           6690        6232.00     27158.10
 1311.72        3337.75           6694        7173.00     31266.58
 1311.75        3338.00           6698        8612.00     37551.13
 1311.79        3338.25           6701        9822.00     42837.23
 1311.82        3338.50           6705       11499.00     50165.99
 1311.85        3338.75           6709       12916.00     56360.77
 1311.88        3339.00           6712       14161.00     61805.32
 1311.91        3339.25           6716       15499.00     67658.36
 1311.94        3339.50           6720       16983.00     74152.24
 1311.97        3339.75           6724       18289.00     79869.09
 1312.00        3340.00           6727       19457.00     84983.35
 1312.03        3340.25           6731       20610.00     90033.34
 1312.06        3340.50           6735       21408.00     93529.26
 1312.09        3340.75           6739       22574.00     98638.56
 1312.12        3341.00           6742       23070.00    100812.40
 1312.16        3341.25           6746       23894.00    104424.40
 1312.19        3341.50           6750       24262.00    106037.70
 1312.22        3341.75           6754       24279.00    106112.20
 1312.25        3342.00           6757       23528.00    102819.90
 1312.28        3342.25           6761       21963.00     95961.05
 1312.31        3342.50           6765       20554.00     89788.03
 1312.34        3342.75           6769       18987.00     82925.22
 1312.37        3343.00           6772       18105.00     79063.54
 1312.40        3343.25           6776       17065.00     74511.13
 1312.43        3343.50           6780       15981.00     69767.31
 1312.46        3343.75           6784       14865.00     64884.72
 1312.50        3344.00           6787       14007.00     61131.77
 1312.53        3344.25           6791       12647.00     55184.60
 1312.56        3344.50           6795       11461.00     49999.89
 1312.59        3344.75           6799       10070.00     43920.85
 1312.62        3345.00           6802        9162.00     39953.71
 1312.65        3345.25           6806        7726.00     33681.45
 1312.68        3345.50           6810        6522.00     28424.16
 1312.71        3345.75           6814        4794.00     20881.43
 1312.74        3346.00           6817        3306.00     14388.76
 1312.77        3346.25           6821        2062.00      8962.50
 1312.80        3346.50           6825        1300.00      5639.48
 1312.83        3346.75           6828         707.00      3053.87
 1312.86        3347.00           6832         309.00      1318.70
 1312.89        3347.25           6836         122.00       503.49
 1312.92        3347.50           6840          83.00       333.48
 1312.95        3347.75           6843          67.00       263.73
 1312.98        3348.00           6847          61.00       237.58
 1313.01        3348.25           6851          46.00       172.19
 1313.05        3348.50           6855          43.00       159.11
 1313.08        3348.75           6858          40.00       146.03
 1313.11        3349.00           6862          47.00       176.55
 1313.14        3349.25           6866          46.00       172.19
 1313.17        3349.50           6870          40.00       146.03
 1313.20        3349.75           6873          40.00       146.03
 1313.23        3350.00           6877          46.00       172.19
 1313.26        3350.25           6881          46.00       172.19
 1313.29        3350.50           6885          47.00       176.55
 1313.32        3350.75           6888          41.00       150.39
 1313.35        3351.00           6892          44.00       163.47
HL scan finished at 21:54:10
end
