************************************************************
  HL Scan of (1) Internal mercury lamp
************************************************************
Integration time is 0.2294 seconds per sample
dh170619ElArenosillo 37.1 6.73 2.857833pr1023
************************************************************
Dead Time -------------------------  2.7E-08 
Number of Cycles Used -------------  4 
Starting Wavelength (Angstroms) ---  3331 
Final Wavelength (Angstoms) -------  3351 
Wavelength Increment (Angstroms) --  .25 
Filter Wheel #1 Position ---------- (1) Ground quartz diffuser (ND=2.32)
Filter Wheel #2 Position ---------- 



************************************************************
HL scan start time = 02:22:12
Dark Count =  4.9 


Time (GMT)  Wavelength (Ang)  Step Number  Raw Counts  Counts/Second

  142.68        3331.00           6593          37.00       139.93
  142.91        3331.25           6597          38.00       144.29
  142.94        3331.50           6600          44.00       170.45
  142.97        3331.75           6604          37.00       139.93
  143.00        3332.00           6608          46.00       179.16
  143.03        3332.25           6612          46.00       179.16
  143.06        3332.50           6615          49.00       192.24
  143.09        3332.75           6619          41.00       157.37
  143.12        3333.00           6623          45.00       174.80
  143.15        3333.25           6627          46.00       179.16
  143.18        3333.50           6630          57.00       227.12
  143.21        3333.75           6634          51.00       200.96
  143.24        3334.00           6638          63.00       253.27
  143.28        3334.25           6642          68.00       275.07
  143.31        3334.50           6645          90.00       370.97
  143.34        3334.75           6649         106.00       440.72
  143.37        3335.00           6653         125.00       523.55
  143.40        3335.25           6656         146.00       615.09
  143.43        3335.50           6660         150.00       632.53
  143.46        3335.75           6664         178.00       754.59
  143.49        3336.00           6668         339.00      1456.47
  143.52        3336.25           6671         861.00      3732.29
  143.55        3336.50           6675        1825.00      7935.88
  143.58        3336.75           6679        3098.00     13488.35
  143.61        3337.00           6683        4580.00     19954.52
  143.64        3337.25           6686        5262.00     22930.93
  143.67        3337.50           6690        6339.00     27632.20
  143.70        3337.75           6694        7267.00     31684.02
  143.73        3338.00           6698        8472.00     36946.60
  143.77        3338.25           6701        9893.00     43154.44
  143.80        3338.50           6705       11326.00     49416.81
  143.83        3338.75           6709       13091.00     57132.96
  143.86        3339.00           6712       14295.00     62398.42
  143.89        3339.25           6716       15599.00     68102.88
  143.92        3339.50           6720       16969.00     74097.96
  143.95        3339.75           6724       18182.00     79407.65
  143.98        3340.00           6727       19171.00     83737.93
  144.01        3340.25           6731       20442.00     89304.44
  144.04        3340.50           6735       21582.00     94298.63
  144.08        3340.75           6739       22452.00     98110.91
  144.11        3341.00           6742       22986.00    100451.20
  144.14        3341.25           6746       23629.00    103269.70
  144.17        3341.50           6750       23846.00    104220.90
  144.20        3341.75           6754       23552.00    102932.10
  144.23        3342.00           6757       23035.00    100666.00
  144.26        3342.25           6761       21659.00     94636.02
  144.29        3342.50           6765       20193.00     88213.78
  144.32        3342.75           6769       18771.00     81986.43
  144.35        3343.00           6772       17770.00     77604.02
  144.38        3343.25           6776       16629.00     72609.96
  144.41        3343.50           6780       15876.00     69314.87
  144.44        3343.75           6784       14661.00     63999.34
  144.47        3344.00           6787       13642.00     59542.47
  144.51        3344.25           6791       12488.00     54496.43
  144.54        3344.50           6795       11159.00     48686.89
  144.57        3344.75           6799        9819.00     42831.11
  144.60        3345.00           6802        8821.00     38471.07
  144.63        3345.25           6806        7820.00     34098.95
  144.66        3345.50           6810        6191.00     26986.09
  144.69        3345.75           6814        4656.00     20286.18
  144.72        3346.00           6817        3217.00     14007.48
  144.75        3346.25           6821        1938.00      8428.68
  144.78        3346.50           6825        1322.00      5742.39
  144.81        3346.75           6828         672.00      2908.25
  144.84        3347.00           6832         284.00      1216.69
  144.87        3347.25           6836         106.00       440.72
  144.90        3347.50           6840          80.00       327.38
  144.94        3347.75           6843          75.00       305.58
  144.97        3348.00           6847          62.00       248.91
  145.00        3348.25           6851          54.00       214.04
  145.03        3348.50           6855          48.00       187.88
  145.06        3348.75           6858          52.00       205.32
  145.09        3349.00           6862          44.00       170.45
  145.12        3349.25           6866          48.00       187.88
  145.15        3349.50           6870          38.00       144.29
  145.18        3349.75           6873          47.00       183.52
  145.21        3350.00           6877          44.00       170.45
  145.24        3350.25           6881          39.00       148.65
  145.27        3350.50           6885          42.00       161.73
  145.30        3350.75           6888          41.00       157.37
  145.34        3351.00           6892          47.00       183.52
HL scan finished at 02:26:10
end
