************************************************************
  HL Scan of (1) Internal mercury lamp
************************************************************
Integration time is 0.2294 seconds per sample
dh170619ElArenosillo 37.1 6.73 2.857833pr1023
************************************************************
Dead Time -------------------------  2.7E-08 
Number of Cycles Used -------------  4 
Starting Wavelength (Angstroms) ---  3331 
Final Wavelength (Angstoms) -------  3351 
Wavelength Increment (Angstroms) --  .25 
Filter Wheel #1 Position ---------- (1) Ground quartz diffuser (ND=2.32)
Filter Wheel #2 Position ---------- 



************************************************************
HL scan start time = 02:22:12
Dark Count =  4.9 


Time (GMT)  Wavelength (Ang)  Step Number  Raw Counts  Counts/Second

  142.68        3331.00           6593          37.00       139.93
  142.91        3331.25           6597          38.00       144.29
  142.94        3331.50           6600          44.00       170.45
  142.97        3331.75           6604          37.00       139.93
  143.00        3332.00           6608          46.00       179.16
  143.03        3332.25           6612          46.00       179.16
  143.06        3332.50           6615          49.00       192.24
  143.09        3332.75           6619          41.00       157.37
  143.12        3333.00           6623          45.00       174.80
  143.15        3333.25           6627          46.00       179.16
  143.18        3333.50           6630          57.00       227.12
  143.21        3333.75           6634          51.00       200.96
  143.24        3334.00           6638          63.00       253.27
  143.28        3334.25           6642          68.00       275.07
  143.31        3334.50           6645          90.00       370.97
  143.34        3334.75           6649         106.00       440.72
  143.37        3335.00           6653         125.00       523.55
  143.40        3335.25           6656         146.00       615.09
  143.43        3335.50           6660         150.00       632.53
  143.46        3335.75           6664         178.00       754.59
  143.49        3336.00           6668         339.00      1456.47
  143.52        3336.25           6671         861.00      3732.29
  143.55        3336.50           6675        1825.00      7935.88
  143.58        3336.75           6679        3098.00     13488.35
  143.61        3337.00           6683        4580.00     19954.52
  143.64        3337.25           6686        5262.00     22930.93
  143.67        3337.50           6690        6339.00     27632.20
  143.70        3337.75           6694        7267.00     31684.02
  143.73        3338.00           6698        8472.00     36946.60
  143.77        3338.25           6701        9893.00     43154.44
  143.80        3338.50           6705       11326.00     49416.81
  143.83        3338.75           6709       13091.00     57132.96
  143.86        3339.00           6712       14295.00     62398.42
  143.89        3339.25           6716       15599.00     68102.88
  143.92        3339.50           6720       16969.00     74097.96
  143.95        3339.75           6724       18182.00     79407.65
  143.98        3340.00           6727       19171.00     83737.93
  144.01        3340.25           6731       20442.00     89304.44
  144.04        3340.50           6735       21582.00     94298.63
  144.08        3340.75           6739       22452.00     98110.91
  144.11        3341.00           6742       22986.00    100451.20
  144.14        3341.25           6746       23629.00    103269.70
  144.17        3341.50           6750       23846.00    104220.90
  144.20        3341.75           6754       23552.00    102932.10
  144.23        3342.00           6757       23035.00    100666.00
  144.26        3342.25           6761       21659.00     94636.02
  144.29        3342.50           6765       20193.00     88213.78
  144.32        3342.75           6769       18771.00     81986.43
  144.35        3343.00           6772       17770.00     77604.02
  144.38        3343.25           6776       16629.00     72609.96
  144.41        3343.50           6780       15876.00     69314.87
  144.44        3343.75           6784       14661.00     63999.34
  144.47        3344.00           6787       13642.00     59542.47
  144.51        3344.25           6791       12488.00     54496.43
  144.54        3344.50           6795       11159.00     48686.89
  144.57        3344.75           6799        9819.00     42831.11
  144.60        3345.00           6802        8821.00     38471.07
  144.63        3345.25           6806        7820.00     34098.95
  144.66        3345.50           6810        6191.00     26986.09
  144.69        3345.75           6814        4656.00     20286.18
  144.72        3346.00           6817        3217.00     14007.48
  144.75        3346.25           6821        1938.00      8428.68
  144.78        3346.50           6825        1322.00      5742.39
  144.81        3346.75           6828         672.00      2908.25
  144.84        3347.00           6832         284.00      1216.69
  144.87        3347.25           6836         106.00       440.72
  144.90        3347.50           6840          80.00       327.38
  144.94        3347.75           6843          75.00       305.58
  144.97        3348.00           6847          62.00       248.91
  145.00        3348.25           6851          54.00       214.04
  145.03        3348.50           6855          48.00       187.88
  145.06        3348.75           6858          52.00       205.32
  145.09        3349.00           6862          44.00       170.45
  145.12        3349.25           6866          48.00       187.88
  145.15        3349.50           6870          38.00       144.29
  145.18        3349.75           6873          47.00       183.52
  145.21        3350.00           6877          44.00       170.45
  145.24        3350.25           6881          39.00       148.65
  145.27        3350.50           6885          42.00       161.73
  145.30        3350.75           6888          41.00       157.37
  145.34        3351.00           6892          47.00       183.52
HL scan finished at 02:26:10
end
************************************************************
  HL Scan of (1) Internal mercury lamp
************************************************************
Integration time is 0.2294 seconds per sample
dh170619ElArenosillo 37.1 6.73 2.857833pr1023
************************************************************
Dead Time -------------------------  2.7E-08 
Number of Cycles Used -------------  4 
Starting Wavelength (Angstroms) ---  3331 
Final Wavelength (Angstoms) -------  3351 
Wavelength Increment (Angstroms) --  .25 
Filter Wheel #1 Position ---------- (1) Ground quartz diffuser (ND=2.32)
Filter Wheel #2 Position ---------- 



************************************************************
HL scan start time = 21:50:25
Dark Count =  5.3 


Time (GMT)  Wavelength (Ang)  Step Number  Raw Counts  Counts/Second

 1310.90        3331.00           6593          41.00       155.62
 1311.12        3331.25           6597          46.00       177.42
 1311.15        3331.50           6600          38.00       142.55
 1311.18        3331.75           6604          43.00       164.34
 1311.21        3332.00           6608          42.00       159.98
 1311.24        3332.25           6612          38.00       142.55
 1311.27        3332.50           6615          40.00       151.26
 1311.30        3332.75           6619          39.00       146.91
 1311.33        3333.00           6623          36.00       133.83
 1311.37        3333.25           6627          44.00       168.70
 1311.40        3333.50           6630          50.00       194.86
 1311.43        3333.75           6634          50.00       194.86
 1311.46        3334.00           6638          61.00       242.81
 1311.49        3334.25           6642          74.00       299.48
 1311.52        3334.50           6645          88.00       360.51
 1311.55        3334.75           6649         115.00       478.21
 1311.58        3335.00           6653         120.00       500.01
 1311.61        3335.25           6656         135.00       565.40
 1311.64        3335.50           6660         153.00       643.86
 1311.67        3335.75           6664         156.00       656.94
 1311.70        3336.00           6668         363.00      1559.35
 1311.74        3336.25           6671        1013.00      4393.28
 1311.77        3336.50           6675        1983.00      8623.19
 1311.80        3336.75           6679        3131.00     13630.56
 1311.83        3337.00           6683        4408.00     19202.20
 1311.86        3337.25           6686        5238.00     22824.44
 1311.89        3337.50           6690        6258.00     27276.84
 1311.92        3337.75           6694        7380.00     32175.72
 1311.95        3338.00           6698        8376.00     36525.54
 1311.98        3338.25           6701        9735.00     42462.35
 1312.01        3338.50           6705       11169.00     48728.85
 1312.04        3338.75           6709       12718.00     55500.28
 1312.07        3339.00           6712       13869.00     60533.48
 1312.10        3339.25           6716       15261.00     66622.35
 1312.13        3339.50           6720       16641.00     72660.71
 1312.16        3339.75           6724       17668.00     77155.77
 1312.20        3340.00           6727       18794.00     82085.38
 1312.23        3340.25           6731       19957.00     87178.36
 1312.26        3340.50           6735       20994.00     91720.77
 1312.29        3340.75           6739       21618.00     94454.62
 1312.32        3341.00           6742       22345.00     97640.24
 1312.35        3341.25           6746       22838.00     99800.83
 1312.38        3341.50           6750       23272.00    101703.10
 1312.41        3341.75           6754       22864.00     99914.77
 1312.44        3342.00           6757       22349.00     97657.78
 1312.48        3342.25           6761       21126.00     92299.04
 1312.51        3342.50           6765       19686.00     85991.49
 1312.54        3342.75           6769       17958.00     78425.26
 1312.57        3343.00           6772       17044.00     74424.47
 1312.60        3343.25           6776       15968.00     69715.68
 1312.63        3343.50           6780       15311.00     66841.10
 1312.66        3343.75           6784       13897.00     60655.93
 1312.69        3344.00           6787       13081.00     57087.49
 1312.72        3344.25           6791       11889.00     51876.01
 1312.75        3344.50           6795       10764.00     46958.81
 1312.78        3344.75           6799        9463.00     41273.96
 1312.81        3345.00           6802        8450.00     36848.77
 1312.84        3345.25           6806        7177.00     31289.29
 1312.88        3345.50           6810        5731.00     24976.30
 1312.91        3345.75           6814        4266.00     18582.56
 1312.94        3346.00           6817        2938.00     12788.64
 1312.97        3346.25           6821        1679.00      7297.43
 1313.01        3346.50           6825        1087.00      4715.94
 1313.05        3346.75           6828         547.00      2361.53
 1313.08        3347.00           6832         238.00      1014.41
 1313.11        3347.25           6836          96.00       395.38
 1313.16        3347.50           6840          71.00       286.40
 1313.20        3347.75           6843          62.00       247.17
 1313.23        3348.00           6847          53.00       207.93
 1313.26        3348.25           6851          49.00       190.50
 1313.29        3348.50           6855          47.00       181.78
 1313.32        3348.75           6858          44.00       168.70
 1313.35        3349.00           6862          44.00       168.70
 1313.38        3349.25           6866          41.00       155.62
 1313.41        3349.50           6870          39.00       146.91
 1313.44        3349.75           6873          41.00       155.62
 1313.47        3350.00           6877          44.00       168.70
 1313.50        3350.25           6881          43.00       164.34
 1313.53        3350.50           6885          40.00       151.26
 1313.57        3350.75           6888          43.00       164.34
 1313.60        3351.00           6892          50.00       194.86
HL scan finished at 21:54:25
end
