************************************************************
  HL Scan of (1) Internal mercury lamp
************************************************************
Integration time is 0.2294 seconds per sample
dh100619Izana 28.3081 16.4992 2.857833pr770
************************************************************
Dead Time -------------------------  2.7E-08 
Number of Cycles Used -------------  4 
Starting Wavelength (Angstroms) ---  3331 
Final Wavelength (Angstoms) -------  3351 
Wavelength Increment (Angstroms) --  .25 
Filter Wheel #1 Position ---------- (1) Ground quartz diffuser (ND=2.32)
Filter Wheel #2 Position ---------- 



************************************************************
HL scan start time = 04:20:59
Dark Count =  7.5 


Time (GMT)  Wavelength (Ang)  Step Number  Raw Counts  Counts/Second

  261.47        3331.00           6593          65.00       250.66
  261.69        3331.25           6597          45.00       163.47
  261.72        3331.50           6600          44.00       159.11
  261.75        3331.75           6604          48.00       176.55
  261.78        3332.00           6608          41.00       146.03
  261.82        3332.25           6612          41.00       146.03
  261.85        3332.50           6615          47.00       172.19
  261.88        3332.75           6619          43.00       154.75
  261.91        3333.00           6623          46.00       167.83
  261.94        3333.25           6627          48.00       176.55
  261.97        3333.50           6630          46.00       167.83
  262.00        3333.75           6634          57.00       215.78
  262.04        3334.00           6638          64.00       246.30
  262.07        3334.25           6642          73.00       285.53
  262.10        3334.50           6645          94.00       377.07
  262.13        3334.75           6649         127.00       520.93
  262.16        3335.00           6653         126.00       516.57
  262.19        3335.25           6656         159.00       660.43
  262.22        3335.50           6660         164.00       682.23
  262.26        3335.75           6664         194.00       813.01
  262.29        3336.00           6668         528.00      2269.10
  262.32        3336.25           6671        1212.00      5251.40
  262.35        3336.50           6675        2434.00     10580.62
  262.38        3336.75           6679        3462.00     15064.98
  262.41        3337.00           6683        4697.00     20453.75
  262.45        3337.25           6686        5763.00     25106.38
  262.48        3337.50           6690        6948.00     30279.76
  262.51        3337.75           6694        8647.00     37699.65
  262.54        3338.00           6698       10013.00     43667.41
  262.57        3338.25           6701       12115.00     52854.37
  262.60        3338.50           6705       13470.00     58778.92
  262.64        3338.75           6709       15196.00     66328.36
  262.67        3339.00           6712       16399.00     71592.06
  262.70        3339.25           6716       18025.00     78708.94
  262.73        3339.50           6720       19589.00     85557.04
  262.76        3339.75           6724       21072.00     92052.83
  262.79        3340.00           6727       21900.00     95680.60
  262.83        3340.25           6731       23013.00    100558.20
  262.86        3340.50           6735       24367.00    106493.70
  262.89        3340.75           6739       25604.00    111917.90
  262.92        3341.00           6742       26608.00    116321.60
  262.95        3341.25           6746       27431.00    119932.20
  262.99        3341.50           6750       27836.00    121709.30
  263.02        3341.75           6754       27445.00    119993.60
  263.05        3342.00           6757       26176.00    114426.70
  263.08        3342.25           6761       25281.00    110501.40
  263.11        3342.50           6765       23853.00    104240.20
  263.14        3342.75           6769       21893.00     95649.93
  263.18        3343.00           6772       21130.00     92306.94
  263.21        3343.25           6776       20245.00     88430.16
  263.24        3343.50           6780       18915.00     82605.57
  263.27        3343.75           6784       17475.00     76301.31
  263.30        3344.00           6787       16148.00     70493.68
  263.34        3344.25           6791       14670.00     64027.33
  263.37        3344.50           6795       13090.00     57117.23
  263.40        3344.75           6799       11658.00     50856.63
  263.43        3345.00           6802       10419.00     45441.51
  263.46        3345.25           6806        8461.00     36887.20
  263.49        3345.50           6810        6621.00     28852.02
  263.53        3345.75           6814        5004.00     21793.56
  263.56        3346.00           6817        3979.00     17320.65
  263.59        3346.25           6821        2778.00     12081.10
  263.62        3346.50           6825        1442.00      6254.33
  263.65        3346.75           6828         726.00      3132.35
  263.68        3347.00           6832         284.00      1205.36
  263.72        3347.25           6836         127.00       520.93
  263.75        3347.50           6840          83.00       329.12
  263.78        3347.75           6843          66.00       255.01
  263.81        3348.00           6847          77.00       302.97
  263.84        3348.25           6851          53.00       198.34
  263.87        3348.50           6855          50.00       185.27
  263.91        3348.75           6858          46.00       167.83
  263.94        3349.00           6862          51.00       189.63
  263.97        3349.25           6866          45.00       163.47
  264.00        3349.50           6870          43.00       154.75
  264.03        3349.75           6873          39.00       137.32
  264.06        3350.00           6877          45.00       163.47
  264.09        3350.25           6881          44.00       159.11
  264.13        3350.50           6885          47.00       172.19
  264.16        3350.75           6888          52.00       193.99
  264.19        3351.00           6892          46.00       167.83
HL scan finished at 04:25:02
end
************************************************************
  HL Scan of (1) Internal mercury lamp
************************************************************
Integration time is 0.2294 seconds per sample
dh100619Izana 28.3081 16.4992 2.804185pr770
************************************************************
Dead Time -------------------------  2.7E-08 
Number of Cycles Used -------------  4 
Starting Wavelength (Angstroms) ---  3331 
Final Wavelength (Angstoms) -------  3351 
Wavelength Increment (Angstroms) --  .25 
Filter Wheel #1 Position ---------- (1) Ground quartz diffuser (ND=2.32)
Filter Wheel #2 Position ---------- 



************************************************************
HL scan start time = 22:10:08
Dark Count =  8.600001 


Time (GMT)  Wavelength (Ang)  Step Number  Raw Counts  Counts/Second

 1330.61        3331.00           6593          41.00       141.24
 1330.84        3331.25           6597          38.00       128.16
 1330.87        3331.50           6600          37.00       123.80
 1330.90        3331.75           6604          35.00       115.08
 1330.93        3332.00           6608          40.00       136.88
 1330.96        3332.25           6612          40.00       136.88
 1330.99        3332.50           6615          42.00       145.60
 1331.03        3332.75           6619          45.00       158.68
 1331.06        3333.00           6623          42.00       145.60
 1331.09        3333.25           6627          50.00       180.47
 1331.12        3333.50           6630          41.00       141.24
 1331.15        3333.75           6634          51.00       184.83
 1331.18        3334.00           6638          67.00       254.58
 1331.21        3334.25           6642          77.00       298.17
 1331.25        3334.50           6645          89.00       350.48
 1331.28        3334.75           6649         112.00       450.75
 1331.31        3335.00           6653         131.00       533.57
 1331.34        3335.25           6656         149.00       612.04
 1331.37        3335.50           6660         152.00       625.12
 1331.40        3335.75           6664         187.00       777.70
 1331.44        3336.00           6668         337.00      1431.62
 1331.47        3336.25           6671         881.00      3803.35
 1331.50        3336.50           6675        1837.00      7972.07
 1331.53        3336.75           6679        3178.00     13821.20
 1331.56        3337.00           6683        4166.00     18131.81
 1331.59        3337.25           6686        4890.00     21291.23
 1331.63        3337.50           6690        6173.00     26891.36
 1331.66        3337.75           6694        7593.00     33091.45
 1331.69        3338.00           6698        9344.00     40739.65
 1331.72        3338.25           6701       10735.00     46817.65
 1331.75        3338.50           6705       12387.00     54038.69
 1331.78        3338.75           6709       14293.00     62373.49
 1331.82        3339.00           6712       15417.00     67290.41
 1331.85        3339.25           6716       16925.00     73889.21
 1331.88        3339.50           6720       18653.00     81453.57
 1331.91        3339.75           6724       19931.00     87050.04
 1331.94        3340.00           6727       21185.00     92543.08
 1331.97        3340.25           6731       21952.00     95903.64
 1332.01        3340.50           6735       22773.00     99501.49
 1332.04        3340.75           6739       23851.00    104226.60
 1332.07        3341.00           6742       24827.00    108505.70
 1332.10        3341.25           6746       25963.00    113487.60
 1332.13        3341.50           6750       26445.00    115601.80
 1332.16        3341.75           6754       26093.00    114057.80
 1332.20        3342.00           6757       25517.00    111531.50
 1332.23        3342.25           6761       24455.00    106874.70
 1332.26        3342.50           6765       22587.00     98686.33
 1332.29        3342.75           6769       20666.00     90269.44
 1332.32        3343.00           6772       19959.00     87172.68
 1332.35        3343.25           6776       19363.00     84562.52
 1332.39        3343.50           6780       17975.00     78485.24
 1332.42        3343.75           6784       16426.00     71705.40
 1332.45        3344.00           6787       15304.00     66796.03
 1332.48        3344.25           6791       13850.00     60435.94
 1332.51        3344.50           6795       12518.00     54611.42
 1332.54        3344.75           6799       11055.00     48216.18
 1332.58        3345.00           6802        9949.00     43382.96
 1332.61        3345.25           6806        8351.00     36401.94
 1332.64        3345.50           6810        6796.00     29611.29
 1332.67        3345.75           6814        5567.00     24246.03
 1332.70        3346.00           6817        4019.00     17490.38
 1332.73        3346.25           6821        2958.00     12861.49
 1332.77        3346.50           6825        1541.00      6681.24
 1332.80        3346.75           6828         746.00      3214.75
 1332.83        3347.00           6832         347.00      1475.21
 1332.86        3347.25           6836         121.00       489.98
 1332.89        3347.50           6840          80.00       311.25
 1332.93        3347.75           6843          68.00       258.94
 1332.96        3348.00           6847          67.00       254.58
 1332.99        3348.25           6851          53.00       193.55
 1333.02        3348.50           6855          46.00       163.03
 1333.05        3348.75           6858          51.00       184.83
 1333.08        3349.00           6862          56.00       206.63
 1333.11        3349.25           6866          42.00       145.60
 1333.15        3349.50           6870          45.00       158.68
 1333.18        3349.75           6873          47.00       167.39
 1333.21        3350.00           6877          37.00       123.80
 1333.24        3350.25           6881          47.00       167.39
 1333.27        3350.50           6885          49.00       176.11
 1333.30        3350.75           6888          47.00       167.39
 1333.34        3351.00           6892          47.00       167.39
HL scan finished at 22:14:10
end
