************************************************************
  HL Scan of (1) Internal mercury lamp
************************************************************
Integration time is 0.2294 seconds per sample
dh090619Izana 28.3081 16.4992 2.857833pr770
************************************************************
Dead Time -------------------------  2.7E-08 
Number of Cycles Used -------------  4 
Starting Wavelength (Angstroms) ---  3331 
Final Wavelength (Angstoms) -------  3351 
Wavelength Increment (Angstroms) --  .25 
Filter Wheel #1 Position ---------- (1) Ground quartz diffuser (ND=2.32)
Filter Wheel #2 Position ---------- 



************************************************************
HL scan start time = 04:20:59
Dark Count =  6.5 


Time (GMT)  Wavelength (Ang)  Step Number  Raw Counts  Counts/Second

  261.46        3331.00           6593          47.00       176.55
  261.68        3331.25           6597          44.00       163.47
  261.71        3331.50           6600          39.00       141.67
  261.75        3331.75           6604          45.00       167.83
  261.78        3332.00           6608          43.00       159.11
  261.81        3332.25           6612          41.00       150.39
  261.84        3332.50           6615          45.00       167.83
  261.87        3332.75           6619          44.00       163.47
  261.90        3333.00           6623          36.00       128.60
  261.94        3333.25           6627          48.00       180.91
  261.97        3333.50           6630          52.00       198.34
  262.00        3333.75           6634          53.00       202.70
  262.03        3334.00           6638          67.00       263.73
  262.06        3334.25           6642          92.00       372.72
  262.10        3334.50           6645         107.00       438.10
  262.13        3334.75           6649         121.00       499.13
  262.16        3335.00           6653         146.00       608.12
  262.19        3335.25           6656         149.00       621.20
  262.22        3335.50           6660         169.00       708.38
  262.25        3335.75           6664         188.00       791.21
  262.28        3336.00           6668         415.00      1780.82
  262.32        3336.25           6671        1021.00      4422.93
  262.35        3336.50           6675        2016.00      8761.88
  262.38        3336.75           6679        3524.00     15339.83
  262.41        3337.00           6683        4784.00     20837.79
  262.44        3337.25           6686        5540.00     24137.35
  262.48        3337.50           6690        6832.00     29777.64
  262.51        3337.75           6694        8272.00     36066.06
  262.54        3338.00           6698       10061.00     43881.52
  262.57        3338.25           6701       11389.00     49685.18
  262.60        3338.50           6705       13090.00     57121.60
  262.63        3338.75           6709       15050.00     65694.01
  262.67        3339.00           6712       16158.00     70541.81
  262.70        3339.25           6716       17950.00     78384.99
  262.73        3339.50           6720       19696.00     86030.03
  262.76        3339.75           6724       20937.00     91465.80
  262.79        3340.00           6727       22279.00     97345.75
  262.82        3340.25           6731       23150.00    101163.00
  262.86        3340.50           6735       24124.00    105432.70
  262.89        3340.75           6739       25474.00    111352.20
  262.92        3341.00           6742       26564.00    116133.00
  262.95        3341.25           6746       27359.00    119620.70
  262.98        3341.50           6750       27889.00    121946.20
  263.01        3341.75           6754       27746.00    121318.70
  263.05        3342.00           6757       27000.00    118045.70
  263.08        3342.25           6761       25461.00    111295.10
  263.11        3342.50           6765       23702.00    103582.70
  263.14        3342.75           6769       22133.00     96705.98
  263.17        3343.00           6772       21269.00     92920.28
  263.20        3343.25           6776       20574.00     89875.64
  263.24        3343.50           6780       18966.00     82833.27
  263.27        3343.75           6784       17704.00     77308.10
  263.30        3344.00           6787       16511.00     72086.55
  263.33        3344.25           6791       14871.00     64910.97
  263.36        3344.50           6795       13424.00     58582.13
  263.40        3344.75           6799       11738.00     51210.69
  263.43        3345.00           6802       10627.00     46354.85
  263.46        3345.25           6806        9102.00     39691.60
  263.49        3345.50           6810        7441.00     32436.85
  263.52        3345.75           6814        5794.00     25246.06
  263.56        3346.00           6817        4123.00     17953.34
  263.59        3346.25           6821        3094.00     13463.92
  263.62        3346.50           6825        1602.00      6956.41
  263.65        3346.75           6828         788.00      3407.03
  263.68        3347.00           6832         328.00      1401.54
  263.71        3347.25           6836         122.00       503.49
  263.74        3347.50           6840          88.00       355.28
  263.78        3347.75           6843          80.00       320.40
  263.81        3348.00           6847          71.00       281.17
  263.84        3348.25           6851          57.00       220.14
  263.87        3348.50           6855          51.00       193.99
  263.90        3348.75           6858          51.00       193.99
  263.93        3349.00           6862          43.00       159.11
  263.97        3349.25           6866          57.00       220.14
  264.00        3349.50           6870          46.00       172.19
  264.03        3349.75           6873          42.00       154.75
  264.06        3350.00           6877          45.00       167.83
  264.09        3350.25           6881          49.00       185.27
  264.12        3350.50           6885          44.00       163.47
  264.15        3350.75           6888          41.00       150.39
  264.19        3351.00           6892          41.00       150.39
HL scan finished at 04:25:01
end
************************************************************
  HL Scan of (1) Internal mercury lamp
************************************************************
Integration time is 0.2294 seconds per sample
dh090619Izana 28.3081 16.4992 2.857833pr770
************************************************************
Dead Time -------------------------  2.7E-08 
Number of Cycles Used -------------  4 
Starting Wavelength (Angstroms) ---  3331 
Final Wavelength (Angstoms) -------  3351 
Wavelength Increment (Angstroms) --  .25 
Filter Wheel #1 Position ---------- (1) Ground quartz diffuser (ND=2.32)
Filter Wheel #2 Position ---------- 



************************************************************
HL scan start time = 22:10:09
Dark Count =  5.7 


Time (GMT)  Wavelength (Ang)  Step Number  Raw Counts  Counts/Second

 1330.64        3331.00           6593          37.00       136.44
 1330.86        3331.25           6597          41.00       153.88
 1330.89        3331.50           6600          44.00       166.96
 1330.92        3331.75           6604          41.00       153.88
 1330.96        3332.00           6608          46.00       175.68
 1330.99        3332.25           6612          41.00       153.88
 1331.02        3332.50           6615          36.00       132.08
 1331.05        3332.75           6619          39.00       145.16
 1331.08        3333.00           6623          47.00       180.04
 1331.11        3333.25           6627          41.00       153.88
 1331.15        3333.50           6630          47.00       180.04
 1331.18        3333.75           6634          50.00       193.11
 1331.21        3334.00           6638          56.00       219.27
 1331.24        3334.25           6642          68.00       271.58
 1331.27        3334.50           6645          90.00       367.48
 1331.30        3334.75           6649         112.00       463.39
 1331.33        3335.00           6653         124.00       515.70
 1331.37        3335.25           6656         145.00       607.25
 1331.40        3335.50           6660         143.00       598.53
 1331.43        3335.75           6664         165.00       694.43
 1331.46        3336.00           6668         356.00      1527.09
 1331.49        3336.25           6671         858.00      3715.72
 1331.52        3336.50           6675        1900.00      8259.47
 1331.56        3336.75           6679        3100.00     13493.58
 1331.59        3337.00           6683        4118.00     17935.01
 1331.62        3337.25           6686        5100.00     22220.39
 1331.65        3337.50           6690        6325.00     27567.59
 1331.68        3337.75           6694        7771.00     33881.46
 1331.71        3338.00           6698        9520.00     41521.24
 1331.75        3338.25           6701       10831.00     47249.87
 1331.78        3338.50           6705       12570.00     54851.45
 1331.81        3338.75           6709       14436.00     63011.65
 1331.84        3339.00           6712       15576.00     67998.75
 1331.87        3339.25           6716       17306.00     75569.47
 1331.90        3339.50           6720       18797.00     82096.78
 1331.94        3339.75           6724       20288.00     88626.38
 1331.97        3340.00           6727       21192.00     92586.44
 1332.00        3340.25           6731       22157.00     96814.64
 1332.03        3340.50           6735       22927.00    100189.20
 1332.06        3340.75           6739       24314.00    106269.20
 1332.09        3341.00           6742       25300.00    110592.60
 1332.13        3341.25           6746       26209.00    114579.30
 1332.16        3341.50           6750       26702.00    116741.90
 1332.19        3341.75           6754       26505.00    115877.70
 1332.22        3342.00           6757       25818.00    112864.40
 1332.25        3342.25           6761       24589.00    107474.90
 1332.28        3342.50           6765       22611.00     98804.21
 1332.31        3342.75           6769       20780.00     90781.54
 1332.35        3343.00           6772       20350.00     88897.96
 1332.38        3343.25           6776       19714.00     86112.36
 1332.41        3343.50           6780       18094.00     79018.90
 1332.44        3343.75           6784       16423.00     71704.96
 1332.47        3344.00           6787       15389.00     67180.60
 1332.51        3344.25           6791       14088.00     61489.53
 1332.54        3344.50           6795       12653.00     55214.34
 1332.57        3344.75           6799       10996.00     47970.99
 1332.60        3345.00           6802        9987.00     43561.67
 1332.63        3345.25           6806        8498.00     37056.67
 1332.66        3345.50           6810        6928.00     30200.29
 1332.70        3345.75           6814        5537.00     24127.75
 1332.73        3346.00           6817        3940.00     17158.34
 1332.76        3346.25           6821        2914.00     12682.20
 1332.79        3346.50           6825        1511.00      6563.06
 1332.82        3346.75           6828         779.00      3371.28
 1332.85        3347.00           6832         341.00      1461.70
 1332.89        3347.25           6836         139.00       581.09
 1332.92        3347.50           6840          95.00       389.28
 1332.95        3347.75           6843          74.00       297.74
 1332.98        3348.00           6847          62.00       245.42
 1333.01        3348.25           6851          61.00       241.07
 1333.04        3348.50           6855          57.00       223.63
 1333.07        3348.75           6858          48.00       184.39
 1333.11        3349.00           6862          43.00       162.60
 1333.14        3349.25           6866          50.00       193.11
 1333.17        3349.50           6870          41.00       153.88
 1333.20        3349.75           6873          48.00       184.39
 1333.23        3350.00           6877          44.00       166.96
 1333.26        3350.25           6881          44.00       166.96
 1333.30        3350.50           6885          41.00       153.88
 1333.33        3350.75           6888          43.00       162.60
 1333.36        3351.00           6892          44.00       166.96
HL scan finished at 22:14:12
end
