************************************************************
  HL Scan of (1) Internal mercury lamp
************************************************************
Integration time is 0.2294 seconds per sample
dh160619ElArenosillo 37.1 6.73 2.857833pr1023
************************************************************
Dead Time -------------------------  2.7E-08 
Number of Cycles Used -------------  4 
Starting Wavelength (Angstroms) ---  3331 
Final Wavelength (Angstoms) -------  3351 
Wavelength Increment (Angstroms) --  .25 
Filter Wheel #1 Position ---------- (1) Ground quartz diffuser (ND=2.32)
Filter Wheel #2 Position ---------- 



************************************************************
HL scan start time = 02:31:11
Dark Count =  6.5 


Time (GMT)  Wavelength (Ang)  Step Number  Raw Counts  Counts/Second

  151.66        3331.00           6593          43.00       159.11
  151.88        3331.25           6597          46.00       172.19
  151.92        3331.50           6600          38.00       137.32
  151.95        3331.75           6604          46.00       172.19
  151.98        3332.00           6608          39.00       141.67
  152.01        3332.25           6612          42.00       154.75
  152.04        3332.50           6615          39.00       141.67
  152.07        3332.75           6619          50.00       189.63
  152.10        3333.00           6623          42.00       154.75
  152.13        3333.25           6627          44.00       163.47
  152.16        3333.50           6630          47.00       176.55
  152.19        3333.75           6634          46.00       172.19
  152.22        3334.00           6638          68.00       268.09
  152.25        3334.25           6642          80.00       320.40
  152.29        3334.50           6645         100.00       407.59
  152.32        3334.75           6649         106.00       433.75
  152.35        3335.00           6653         128.00       529.65
  152.38        3335.25           6656         141.00       586.32
  152.41        3335.50           6660         158.00       660.43
  152.44        3335.75           6664         184.00       773.77
  152.47        3336.00           6668         423.00      1815.70
  152.50        3336.25           6671        1143.00      4954.89
  152.53        3336.50           6675        2267.00      9856.59
  152.56        3336.75           6679        3609.00     15710.67
  152.59        3337.00           6683        4893.00     21313.48
  152.62        3337.25           6686        5791.00     25232.97
  152.66        3337.50           6690        6672.00     29079.06
  152.69        3337.75           6694        7785.00     33939.11
  152.72        3338.00           6698        8694.00     37909.32
  152.75        3338.25           6701       10083.00     43977.65
  152.78        3338.50           6705       11683.00     50970.27
  152.81        3338.75           6709       13425.00     58586.50
  152.84        3339.00           6712       14577.00     63624.90
  152.87        3339.25           6716       15922.00     69509.15
  152.90        3339.50           6720       17359.00     75797.95
  152.93        3339.75           6724       18703.00     81681.69
  152.96        3340.00           6727       19802.00     86494.27
  152.99        3340.25           6731       21335.00     93209.44
  153.02        3340.50           6735       22396.00     97858.49
  153.06        3340.75           6739       23173.00    101263.90
  153.09        3341.00           6742       23703.00    103587.10
  153.12        3341.25           6746       24101.00    105331.80
  153.15        3341.50           6750       24439.00    106813.70
  153.18        3341.75           6754       24028.00    105011.80
  153.21        3342.00           6757       23667.00    103429.20
  153.24        3342.25           6761       22117.00     96635.86
  153.27        3342.50           6765       21032.00     91881.98
  153.30        3342.75           6769       19398.00     84724.99
  153.33        3343.00           6772       18506.00     80819.15
  153.36        3343.25           6776       17138.00     74830.65
  153.39        3343.50           6780       16572.00     72353.51
  153.43        3343.75           6784       15129.00     66039.62
  153.46        3344.00           6787       14173.00     61857.81
  153.49        3344.25           6791       12853.00     56085.31
  153.52        3344.50           6795       11643.00     50795.43
  153.55        3344.75           6799       10313.00     44982.67
  153.58        3345.00           6802        9126.00     39796.45
  153.61        3345.25           6806        7818.00     34083.23
  153.64        3345.50           6810        6254.00     27254.14
  153.67        3345.75           6814        4617.00     20109.00
  153.70        3346.00           6817        3262.00     14196.81
  153.74        3346.25           6821        2082.00      9049.73
  153.77        3346.50           6825        1236.00      5360.41
  153.80        3346.75           6828         591.00      2548.13
  153.83        3347.00           6832         246.00      1044.06
  153.86        3347.25           6836         101.00       411.95
  153.89        3347.50           6840          73.00       289.89
  153.92        3347.75           6843          64.00       250.66
  153.95        3348.00           6847          58.00       224.50
  153.98        3348.25           6851          49.00       185.27
  154.01        3348.50           6855          46.00       172.19
  154.04        3348.75           6858          46.00       172.19
  154.07        3349.00           6862          55.00       211.42
  154.10        3349.25           6866          41.00       150.39
  154.13        3349.50           6870          42.00       154.75
  154.16        3349.75           6873          46.00       172.19
  154.20        3350.00           6877          44.00       163.47
  154.23        3350.25           6881          43.00       159.11
  154.26        3350.50           6885          41.00       150.39
  154.29        3350.75           6888          41.00       150.39
  154.32        3351.00           6892          44.00       163.47
HL scan finished at 02:35:08
end
