************************************************************
  HL Scan of (1) Internal mercury lamp
************************************************************
Integration time is 0.2294 seconds per sample
dh230619ElArenosillo 37.1 6.73 2.965129pr1023
************************************************************
Dead Time -------------------------  2.7E-08 
Number of Cycles Used -------------  4 
Starting Wavelength (Angstroms) ---  3331 
Final Wavelength (Angstoms) -------  3351 
Wavelength Increment (Angstroms) --  .25 
Filter Wheel #1 Position ---------- (1) Ground quartz diffuser (ND=2.32)
Filter Wheel #2 Position ---------- 



************************************************************
HL scan start time = 02:31:39
Dark Count =  4.7 


Time (GMT)  Wavelength (Ang)  Step Number  Raw Counts  Counts/Second

  152.13        3331.00           6593          39.00       149.52
  152.35        3331.25           6597          46.00       180.04
  152.38        3331.50           6600          35.00       132.08
  152.41        3331.75           6604          46.00       180.04
  152.44        3332.00           6608          45.00       175.68
  152.48        3332.25           6612          40.00       153.88
  152.51        3332.50           6615          44.00       171.32
  152.54        3332.75           6619          47.00       184.39
  152.57        3333.00           6623          39.00       149.52
  152.60        3333.25           6627          48.00       188.75
  152.63        3333.50           6630          44.00       171.32
  152.66        3333.75           6634          54.00       214.91
  152.69        3334.00           6638          60.00       241.07
  152.72        3334.25           6642          80.00       328.25
  152.75        3334.50           6645          89.00       367.48
  152.78        3334.75           6649         107.00       445.95
  152.81        3335.00           6653         141.00       594.17
  152.84        3335.25           6656         146.00       615.96
  152.87        3335.50           6660         175.00       742.39
  152.91        3335.75           6664         181.00       768.54
  152.94        3336.00           6668         498.00      2150.52
  152.97        3336.25           6671        1276.00      5542.68
  153.00        3336.50           6675        2569.00     11181.67
  153.03        3336.75           6679        3770.00     16420.97
  153.06        3337.00           6683        5204.00     22678.66
  153.09        3337.25           6686        6103.00     26602.80
  153.12        3337.50           6690        7141.00     31134.71
  153.15        3337.75           6694        8267.00     36052.08
  153.18        3338.00           6698        9350.00     40782.90
  153.21        3338.25           6701       10717.00     46756.03
  153.24        3338.50           6705       12384.00     54042.62
  153.28        3338.75           6709       13817.00     60308.68
  153.31        3339.00           6712       15277.00     66694.98
  153.34        3339.25           6716       16896.00     73779.35
  153.37        3339.50           6720       18116.00     79119.59
  153.40        3339.75           6724       19737.00     86217.48
  153.43        3340.00           6727       20697.00     90422.32
  153.46        3340.25           6731       22204.00     97024.99
  153.49        3340.50           6735       23415.00    102332.50
  153.52        3340.75           6739       24355.00    106453.30
  153.55        3341.00           6742       24712.00    108018.60
  153.58        3341.25           6746       25407.00    111066.20
  153.62        3341.50           6750       25536.00    111632.00
  153.65        3341.75           6754       25208.00    110193.50
  153.68        3342.00           6757       24418.00    106729.50
  153.71        3342.25           6761       23177.00    101289.30
  153.74        3342.50           6765       21756.00     95061.90
  153.77        3342.75           6769       19938.00     87097.78
  153.80        3343.00           6772       18789.00     82066.13
  153.83        3343.25           6776       17910.00     78217.76
  153.86        3343.50           6780       17316.00     75617.62
  153.89        3343.75           6784       15549.00     67885.00
  153.92        3344.00           6787       14625.00     63842.74
  153.95        3344.25           6791       13340.00     58222.67
  153.99        3344.50           6795       11850.00     51708.15
  154.02        3344.75           6799       10652.00     46471.96
  154.05        3345.00           6802        9516.00     41508.14
  154.08        3345.25           6806        8003.00     34899.04
  154.11        3345.50           6810        6278.00     27366.77
  154.14        3345.75           6814        4652.00     20269.59
  154.17        3346.00           6817        3202.00     13942.91
  154.20        3346.25           6821        1982.00      8621.45
  154.23        3346.50           6825        1196.00      5193.84
  154.26        3346.75           6828         565.00      2442.62
  154.29        3347.00           6832         210.00       894.97
  154.32        3347.25           6836         100.00       415.44
  154.35        3347.50           6840          81.00       332.61
  154.39        3347.75           6843          62.00       249.78
  154.42        3348.00           6847          59.00       236.71
  154.45        3348.25           6851          57.00       227.99
  154.48        3348.50           6855          44.00       171.32
  154.51        3348.75           6858          37.00       140.80
  154.54        3349.00           6862          46.00       180.04
  154.57        3349.25           6866          47.00       184.39
  154.60        3349.50           6870          55.00       219.27
  154.63        3349.75           6873          44.00       171.32
  154.66        3350.00           6877          42.00       162.60
  154.69        3350.25           6881          45.00       175.68
  154.72        3350.50           6885          34.00       127.72
  154.75        3350.75           6888          47.00       184.39
  154.79        3351.00           6892          51.00       201.83
HL scan finished at 02:35:37
end
