************************************************************
  HL Scan of (1) Internal mercury lamp
************************************************************
Integration time is 0.2294 seconds per sample
dh250619ElArenosillo 37.1 6.73 3.072425pr1023
************************************************************
Dead Time -------------------------  2.7E-08 
Number of Cycles Used -------------  4 
Starting Wavelength (Angstroms) ---  3331 
Final Wavelength (Angstoms) -------  3351 
Wavelength Increment (Angstroms) --  .25 
Filter Wheel #1 Position ---------- (1) Ground quartz diffuser (ND=2.32)
Filter Wheel #2 Position ---------- 



************************************************************
HL scan start time = 02:25:37
Dark Count =  4.1 


Time (GMT)  Wavelength (Ang)  Step Number  Raw Counts  Counts/Second

  146.10        3331.00           6593          42.00       165.21
  146.32        3331.25           6597          39.00       152.14
  146.35        3331.50           6600          40.00       156.50
  146.38        3331.75           6604          39.00       152.14
  146.41        3332.00           6608          45.00       178.29
  146.45        3332.25           6612          44.00       173.93
  146.48        3332.50           6615          40.00       156.50
  146.51        3332.75           6619          45.00       178.29
  146.54        3333.00           6623          45.00       178.29
  146.57        3333.25           6627          47.00       187.01
  146.60        3333.50           6630          49.00       195.73
  146.63        3333.75           6634          58.00       234.96
  146.66        3334.00           6638          76.00       313.43
  146.69        3334.25           6642          73.00       300.35
  146.72        3334.50           6645         112.00       470.36
  146.75        3334.75           6649         134.00       566.27
  146.78        3335.00           6653         158.00       670.89
  146.81        3335.25           6656         163.00       692.69
  146.84        3335.50           6660         189.00       806.03
  146.87        3335.75           6664         194.00       827.83
  146.90        3336.00           6668         507.00      2192.37
  146.93        3336.25           6671        1105.00      4799.66
  146.97        3336.50           6675        2645.00     11515.79
  147.00        3336.75           6679        4100.00     17863.45
  147.03        3337.00           6683        5653.00     24641.06
  147.06        3337.25           6686        6624.00     28879.97
  147.09        3337.50           6690        7983.00     34814.32
  147.12        3337.75           6694        8984.00     39186.60
  147.15        3338.00           6698       10815.00     47186.94
  147.18        3338.25           6701       12440.00     54290.07
  147.21        3338.50           6705       14459.00     63119.25
  147.24        3338.75           6709       16048.00     70070.99
  147.27        3339.00           6712       17474.00     76311.83
  147.30        3339.25           6716       19136.00     83588.18
  147.33        3339.50           6720       20981.00     91669.06
  147.36        3339.75           6724       22447.00     98092.51
  147.39        3340.00           6727       23491.00    102668.30
  147.43        3340.25           6731       25314.00    110661.00
  147.46        3340.50           6735       26483.00    115788.20
  147.49        3340.75           6739       27516.00    120320.10
  147.52        3341.00           6742       28059.00    122702.70
  147.55        3341.25           6746       28588.00    125024.20
  147.58        3341.50           6750       29037.00    126994.90
  147.61        3341.75           6754       28727.00    125634.30
  147.64        3342.00           6757       28097.00    122869.50
  147.67        3342.25           6761       26276.00    114880.20
  147.70        3342.50           6765       24174.00    105662.40
  147.73        3342.75           6769       22462.00     98158.24
  147.76        3343.00           6772       20953.00     91546.41
  147.79        3343.25           6776       19939.00     87104.80
  147.83        3343.50           6780       18809.00     82156.31
  147.86        3343.75           6784       17530.00     76556.96
  147.89        3344.00           6787       16148.00     70508.56
  147.92        3344.25           6791       14849.00     64825.22
  147.95        3344.50           6795       13228.00     57735.54
  147.98        3344.75           6799       11607.00     50648.56
  148.01        3345.00           6802       10411.00     45421.41
  148.04        3345.25           6806        8819.00     38465.83
  148.07        3345.50           6810        7166.00     31246.49
  148.10        3345.75           6814        5330.00     23231.22
  148.13        3346.00           6817        3769.00     16419.22
  148.16        3346.25           6821        2079.00      9047.11
  148.20        3346.50           6825        1250.00      5431.92
  148.23        3346.75           6828         636.00      2754.78
  148.26        3347.00           6832         269.00      1154.79
  148.29        3347.25           6836         118.00       496.52
  148.32        3347.50           6840          86.00       357.02
  148.35        3347.75           6843          69.00       282.91
  148.38        3348.00           6847          68.00       278.55
  148.41        3348.25           6851          64.00       261.12
  148.44        3348.50           6855          53.00       213.17
  148.47        3348.75           6858          52.00       208.81
  148.50        3349.00           6862          45.00       178.29
  148.53        3349.25           6866          44.00       173.93
  148.56        3349.50           6870          57.00       230.60
  148.59        3349.75           6873          45.00       178.29
  148.63        3350.00           6877          47.00       187.01
  148.66        3350.25           6881          46.00       182.65
  148.69        3350.50           6885          47.00       187.01
  148.72        3350.75           6888          42.00       165.21
  148.75        3351.00           6892          50.00       200.09
HL scan finished at 02:29:34
end
************************************************************
  HL Scan of (1) Internal mercury lamp
************************************************************
Integration time is 0.2294 seconds per sample
dh250619ElArenosillo 37.1 6.73 3.072425pr1023
************************************************************
Dead Time -------------------------  2.7E-08 
Number of Cycles Used -------------  4 
Starting Wavelength (Angstroms) ---  3331 
Final Wavelength (Angstoms) -------  3351 
Wavelength Increment (Angstroms) --  .25 
Filter Wheel #1 Position ---------- (1) Ground quartz diffuser (ND=2.32)
Filter Wheel #2 Position ---------- 



************************************************************
HL scan start time = 22:54:16
Dark Count =  6.1 


Time (GMT)  Wavelength (Ang)  Step Number  Raw Counts  Counts/Second

 1374.74        3331.00           6593          41.00       152.14
 1374.96        3331.25           6597          34.00       121.62
 1374.99        3331.50           6600          40.00       147.78
 1375.02        3331.75           6604          42.00       156.50
 1375.06        3332.00           6608          52.00       200.09
 1375.09        3332.25           6612          45.00       169.57
 1375.12        3332.50           6615          48.00       182.65
 1375.15        3332.75           6619          44.00       165.21
 1375.18        3333.00           6623          44.00       165.21
 1375.21        3333.25           6627          50.00       191.37
 1375.24        3333.50           6630          52.00       200.09
 1375.27        3333.75           6634          54.00       208.81
 1375.30        3334.00           6638          64.00       252.40
 1375.33        3334.25           6642          84.00       339.58
 1375.36        3334.50           6645         104.00       426.77
 1375.39        3334.75           6649         127.00       527.03
 1375.42        3335.00           6653         153.00       640.38
 1375.45        3335.25           6656         169.00       710.13
 1375.48        3335.50           6660         175.00       736.28
 1375.52        3335.75           6664         193.00       814.75
 1375.55        3336.00           6668         418.00      1795.64
 1375.58        3336.25           6671         941.00      4075.86
 1375.61        3336.50           6675        2329.00     10128.75
 1375.64        3336.75           6679        3795.00     16523.93
 1375.67        3337.00           6683        5472.00     23842.28
 1375.70        3337.25           6686        6549.00     28543.79
 1375.73        3337.50           6690        7605.00     33154.78
 1375.76        3337.75           6694        8898.00     38802.18
 1375.79        3338.00           6698       10455.00     45604.95
 1375.82        3338.25           6701       12023.00     52458.30
 1375.85        3338.50           6705       13596.00     59336.05
 1375.88        3338.75           6709       15871.00     69287.75
 1375.92        3339.00           6712       17246.00     75305.10
 1375.95        3339.25           6716       18847.00     82313.96
 1375.98        3339.50           6720       20473.00     89434.98
 1376.01        3339.75           6724       22127.00     96681.43
 1376.04        3340.00           6727       23253.00    101616.30
 1376.07        3340.25           6731       24992.00    109240.20
 1376.10        3340.50           6735       26248.00    114748.60
 1376.13        3340.75           6739       27251.00    119148.60
 1376.16        3341.00           6742       27744.00    121311.70
 1376.19        3341.25           6746       28355.00    123992.90
 1376.22        3341.50           6750       28861.00    126213.60
 1376.25        3341.75           6754       28586.00    125006.70
 1376.28        3342.00           6757       27771.00    121430.20
 1376.32        3342.25           6761       26308.00    115011.80
 1376.35        3342.50           6765       24743.00    108148.40
 1376.38        3342.75           6769       22967.00    100362.70
 1376.41        3343.00           6772       21794.00     95222.28
 1376.44        3343.25           6776       19634.00     85760.26
 1376.47        3343.50           6780       18317.00     79993.43
 1376.50        3343.75           6784       17658.00     77108.50
 1376.53        3344.00           6787       16718.00     72994.21
 1376.56        3344.25           6791       15188.00     66299.49
 1376.59        3344.50           6795       13491.00     58876.88
 1376.62        3344.75           6799       11798.00     51474.73
 1376.65        3345.00           6802       10493.00     45771.01
 1376.69        3345.25           6806        8987.00     39190.97
 1376.72        3345.50           6810        7256.00     31630.75
 1376.75        3345.75           6814        4881.00     21262.86
 1376.78        3346.00           6817        3872.00     16859.90
 1376.81        3346.25           6821        2269.00      9867.06
 1376.84        3346.50           6825        1577.00      6849.13
 1376.87        3346.75           6828         762.00      3295.41
 1376.90        3347.00           6832         298.00      1272.49
 1376.93        3347.25           6836         120.00       496.52
 1376.96        3347.50           6840          90.00       365.74
 1376.99        3347.75           6843          71.00       282.91
 1377.02        3348.00           6847          68.00       269.84
 1377.05        3348.25           6851          56.00       217.53
 1377.08        3348.50           6855          48.00       182.65
 1377.11        3348.75           6858          44.00       165.21
 1377.15        3349.00           6862          49.00       187.01
 1377.18        3349.25           6866          49.00       187.01
 1377.21        3349.50           6870          50.00       191.37
 1377.24        3349.75           6873          52.00       200.09
 1377.27        3350.00           6877          54.00       208.81
 1377.30        3350.25           6881          46.00       173.93
 1377.33        3350.50           6885          47.00       178.29
 1377.36        3350.75           6888          42.00       156.50
 1377.39        3351.00           6892          49.00       187.01
HL scan finished at 22:58:13
end
