************************************************************
  HL Scan of (1) Internal mercury lamp
************************************************************
Integration time is 0.2294 seconds per sample
dh250619ElArenosillo 37.1 6.73 3.072425pr1023
************************************************************
Dead Time -------------------------  2.7E-08 
Number of Cycles Used -------------  4 
Starting Wavelength (Angstroms) ---  3331 
Final Wavelength (Angstoms) -------  3351 
Wavelength Increment (Angstroms) --  .25 
Filter Wheel #1 Position ---------- (1) Ground quartz diffuser (ND=2.32)
Filter Wheel #2 Position ---------- 



************************************************************
HL scan start time = 02:25:37
Dark Count =  4.1 


Time (GMT)  Wavelength (Ang)  Step Number  Raw Counts  Counts/Second

  146.10        3331.00           6593          42.00       165.21
  146.32        3331.25           6597          39.00       152.14
  146.35        3331.50           6600          40.00       156.50
  146.38        3331.75           6604          39.00       152.14
  146.41        3332.00           6608          45.00       178.29
  146.45        3332.25           6612          44.00       173.93
  146.48        3332.50           6615          40.00       156.50
  146.51        3332.75           6619          45.00       178.29
  146.54        3333.00           6623          45.00       178.29
  146.57        3333.25           6627          47.00       187.01
  146.60        3333.50           6630          49.00       195.73
  146.63        3333.75           6634          58.00       234.96
  146.66        3334.00           6638          76.00       313.43
  146.69        3334.25           6642          73.00       300.35
  146.72        3334.50           6645         112.00       470.36
  146.75        3334.75           6649         134.00       566.27
  146.78        3335.00           6653         158.00       670.89
  146.81        3335.25           6656         163.00       692.69
  146.84        3335.50           6660         189.00       806.03
  146.87        3335.75           6664         194.00       827.83
  146.90        3336.00           6668         507.00      2192.37
  146.93        3336.25           6671        1105.00      4799.66
  146.97        3336.50           6675        2645.00     11515.79
  147.00        3336.75           6679        4100.00     17863.45
  147.03        3337.00           6683        5653.00     24641.06
  147.06        3337.25           6686        6624.00     28879.97
  147.09        3337.50           6690        7983.00     34814.32
  147.12        3337.75           6694        8984.00     39186.60
  147.15        3338.00           6698       10815.00     47186.94
  147.18        3338.25           6701       12440.00     54290.07
  147.21        3338.50           6705       14459.00     63119.25
  147.24        3338.75           6709       16048.00     70070.99
  147.27        3339.00           6712       17474.00     76311.83
  147.30        3339.25           6716       19136.00     83588.18
  147.33        3339.50           6720       20981.00     91669.06
  147.36        3339.75           6724       22447.00     98092.51
  147.39        3340.00           6727       23491.00    102668.30
  147.43        3340.25           6731       25314.00    110661.00
  147.46        3340.50           6735       26483.00    115788.20
  147.49        3340.75           6739       27516.00    120320.10
  147.52        3341.00           6742       28059.00    122702.70
  147.55        3341.25           6746       28588.00    125024.20
  147.58        3341.50           6750       29037.00    126994.90
  147.61        3341.75           6754       28727.00    125634.30
  147.64        3342.00           6757       28097.00    122869.50
  147.67        3342.25           6761       26276.00    114880.20
  147.70        3342.50           6765       24174.00    105662.40
  147.73        3342.75           6769       22462.00     98158.24
  147.76        3343.00           6772       20953.00     91546.41
  147.79        3343.25           6776       19939.00     87104.80
  147.83        3343.50           6780       18809.00     82156.31
  147.86        3343.75           6784       17530.00     76556.96
  147.89        3344.00           6787       16148.00     70508.56
  147.92        3344.25           6791       14849.00     64825.22
  147.95        3344.50           6795       13228.00     57735.54
  147.98        3344.75           6799       11607.00     50648.56
  148.01        3345.00           6802       10411.00     45421.41
  148.04        3345.25           6806        8819.00     38465.83
  148.07        3345.50           6810        7166.00     31246.49
  148.10        3345.75           6814        5330.00     23231.22
  148.13        3346.00           6817        3769.00     16419.22
  148.16        3346.25           6821        2079.00      9047.11
  148.20        3346.50           6825        1250.00      5431.92
  148.23        3346.75           6828         636.00      2754.78
  148.26        3347.00           6832         269.00      1154.79
  148.29        3347.25           6836         118.00       496.52
  148.32        3347.50           6840          86.00       357.02
  148.35        3347.75           6843          69.00       282.91
  148.38        3348.00           6847          68.00       278.55
  148.41        3348.25           6851          64.00       261.12
  148.44        3348.50           6855          53.00       213.17
  148.47        3348.75           6858          52.00       208.81
  148.50        3349.00           6862          45.00       178.29
  148.53        3349.25           6866          44.00       173.93
  148.56        3349.50           6870          57.00       230.60
  148.59        3349.75           6873          45.00       178.29
  148.63        3350.00           6877          47.00       187.01
  148.66        3350.25           6881          46.00       182.65
  148.69        3350.50           6885          47.00       187.01
  148.72        3350.75           6888          42.00       165.21
  148.75        3351.00           6892          50.00       200.09
HL scan finished at 02:29:34
end
