************************************************************
  HL Scan of (1) Internal mercury lamp
************************************************************
Integration time is 0.2294 seconds per sample
dh200619ElArenosillo 37.1 6.73 2.911481pr1023
************************************************************
Dead Time -------------------------  2.7E-08 
Number of Cycles Used -------------  4 
Starting Wavelength (Angstroms) ---  3331 
Final Wavelength (Angstoms) -------  3351 
Wavelength Increment (Angstroms) --  .25 
Filter Wheel #1 Position ---------- (1) Ground quartz diffuser (ND=2.32)
Filter Wheel #2 Position ---------- 



************************************************************
HL scan start time = 02:37:00
Dark Count =  5.9 


Time (GMT)  Wavelength (Ang)  Step Number  Raw Counts  Counts/Second

  157.48        3331.00           6593          47.00       179.16
  157.70        3331.25           6597          41.00       153.01
  157.73        3331.50           6600          45.00       170.45
  157.76        3331.75           6604          39.00       144.29
  157.79        3332.00           6608          41.00       153.01
  157.82        3332.25           6612          40.00       148.65
  157.85        3332.50           6615          44.00       166.09
  157.88        3332.75           6619          41.00       153.01
  157.91        3333.00           6623          41.00       153.01
  157.95        3333.25           6627          49.00       187.88
  157.98        3333.50           6630          44.00       166.09
  158.01        3333.75           6634          55.00       214.04
  158.04        3334.00           6638          64.00       253.27
  158.07        3334.25           6642          79.00       318.66
  158.10        3334.50           6645         100.00       410.21
  158.13        3334.75           6649         119.00       493.03
  158.16        3335.00           6653         134.00       558.42
  158.19        3335.25           6656         146.00       610.73
  158.22        3335.50           6660         169.00       711.00
  158.25        3335.75           6664         194.00       819.98
  158.28        3336.00           6668         431.00      1853.19
  158.31        3336.25           6671        1116.00      4839.78
  158.34        3336.50           6675        2149.00      9344.56
  158.37        3336.75           6679        3463.00     15076.32
  158.40        3337.00           6683        5031.00     21918.38
  158.44        3337.25           6686        6080.00     26497.16
  158.47        3337.50           6690        7216.00     31456.96
  158.50        3337.75           6694        8239.00     35924.54
  158.53        3338.00           6698        9392.00     40961.15
  158.56        3338.25           6701       10899.00     47546.18
  158.59        3338.50           6705       12649.00     55195.98
  158.62        3338.75           6709       14062.00     61374.94
  158.65        3339.00           6712       15528.00     67787.86
  158.68        3339.25           6716       16927.00     73909.77
  158.71        3339.50           6720       18477.00     80694.81
  158.74        3339.75           6724       19836.00     86645.80
  158.77        3340.00           6727       20745.00     90627.34
  158.80        3340.25           6731       22123.00     96664.78
  158.83        3340.50           6735       23442.00    102445.60
  158.86        3340.75           6739       24424.00    106750.60
  158.90        3341.00           6742       24961.00    109105.20
  158.93        3341.25           6746       25375.00    110920.60
  158.96        3341.50           6750       25760.00    112609.10
  158.99        3341.75           6754       25266.00    110442.60
  159.02        3342.00           6757       24569.00    107386.30
  159.05        3342.25           6761       23242.00    101568.90
  159.08        3342.50           6765       21752.00     95039.12
  159.11        3342.75           6769       19853.00     86720.24
  159.14        3343.00           6772       18762.00     81942.65
  159.18        3343.25           6776       17645.00     77052.46
  159.21        3343.50           6780       16976.00     74124.22
  159.24        3343.75           6784       15492.00     67630.36
  159.27        3344.00           6787       14377.00     62752.71
  159.30        3344.25           6791       13090.00     57124.22
  159.33        3344.50           6795       11816.00     51554.28
  159.36        3344.75           6799       10413.00     45422.28
  159.39        3345.00           6802        9308.00     40594.17
  159.42        3345.25           6806        8028.00     35002.99
  159.45        3345.50           6810        6341.00     27636.57
  159.48        3345.75           6814        4612.00     20089.80
  159.51        3346.00           6817        3229.00     14055.47
  159.54        3346.25           6821        1840.00      7996.93
  159.58        3346.50           6825        1154.00      5005.47
  159.61        3346.75           6828         579.00      2498.42
  159.64        3347.00           6832         251.00      1068.47
  159.67        3347.25           6836         108.00       445.08
  159.70        3347.50           6840          83.00       336.10
  159.73        3347.75           6843          76.00       305.58
  159.76        3348.00           6847          55.00       214.04
  159.79        3348.25           6851          60.00       235.83
  159.82        3348.50           6855          49.00       187.88
  159.85        3348.75           6858          45.00       170.45
  159.88        3349.00           6862          48.00       183.52
  159.91        3349.25           6866          40.00       148.65
  159.94        3349.50           6870          56.00       218.40
  159.97        3349.75           6873          45.00       170.45
  160.00        3350.00           6877          46.00       174.80
  160.04        3350.25           6881          40.00       148.65
  160.07        3350.50           6885          46.00       174.80
  160.10        3350.75           6888          43.00       161.73
  160.13        3351.00           6892          46.00       174.80
HL scan finished at 02:40:57
end
