************************************************************
  HL Scan of (1) Internal mercury lamp
************************************************************
Integration time is 0.2294 seconds per sample
dh210619ElArenosillo 37.1 6.73 2.911481pr1023
************************************************************
Dead Time -------------------------  2.7E-08 
Number of Cycles Used -------------  4 
Starting Wavelength (Angstroms) ---  3331 
Final Wavelength (Angstoms) -------  3351 
Wavelength Increment (Angstroms) --  .25 
Filter Wheel #1 Position ---------- (1) Ground quartz diffuser (ND=2.32)
Filter Wheel #2 Position ---------- 



************************************************************
HL scan start time = 03:11:14
Dark Count =  6.9 


Time (GMT)  Wavelength (Ang)  Step Number  Raw Counts  Counts/Second

  191.72        3331.00           6593          44.00       161.73
  191.94        3331.25           6597          41.00       148.65
  191.97        3331.50           6600          40.00       144.29
  192.00        3331.75           6604          43.00       157.37
  192.03        3332.00           6608          38.00       135.57
  192.06        3332.25           6612          42.00       153.01
  192.09        3332.50           6615          39.00       139.93
  192.12        3332.75           6619          45.00       166.09
  192.15        3333.00           6623          44.00       161.73
  192.18        3333.25           6627          43.00       157.37
  192.21        3333.50           6630          50.00       187.88
  192.24        3333.75           6634          45.00       166.09
  192.27        3334.00           6638          70.00       275.07
  192.31        3334.25           6642          72.00       283.79
  192.34        3334.50           6645          85.00       340.46
  192.37        3334.75           6649         110.00       449.44
  192.40        3335.00           6653         132.00       545.34
  192.43        3335.25           6656         150.00       623.81
  192.46        3335.50           6660         163.00       680.48
  192.49        3335.75           6664         179.00       750.23
  192.52        3336.00           6668         313.00      1334.40
  192.55        3336.25           6671         687.00      2964.93
  192.58        3336.50           6675        1952.00      8481.02
  192.61        3336.75           6679        3265.00     14208.15
  192.64        3337.00           6683        4619.00     20115.98
  192.68        3337.25           6686        5392.00     23489.61
  192.71        3337.50           6690        6329.00     27579.82
  192.74        3337.75           6694        7263.00     31657.83
  192.77        3338.00           6698        8749.00     38147.82
  192.80        3338.25           6701       10124.00     44155.05
  192.83        3338.50           6705       11768.00     51340.08
  192.86        3338.75           6709       13221.00     57692.67
  192.89        3339.00           6712       14506.00     63312.58
  192.92        3339.25           6716       15965.00     69695.54
  192.95        3339.50           6720       17227.00     75218.43
  192.98        3339.75           6724       18525.00     80900.58
  193.01        3340.00           6727       19539.00     85340.71
  193.04        3340.25           6731       20958.00     91556.03
  193.08        3340.50           6735       22394.00     97847.96
  193.11        3340.75           6739       23198.00    101371.70
  193.14        3341.00           6742       23342.00    102002.90
  193.17        3341.25           6746       24184.00    105694.00
  193.20        3341.50           6750       24686.00    107895.00
  193.23        3341.75           6754       24586.00    107456.50
  193.26        3342.00           6757       23868.00    104308.60
  193.29        3342.25           6761       22539.00     98483.41
  193.32        3342.50           6765       21108.00     92213.18
  193.35        3342.75           6769       19737.00     86207.84
  193.38        3343.00           6772       18383.00     80278.87
  193.41        3343.25           6776       17326.00     75651.75
  193.44        3343.50           6780       16437.00     71760.96
  193.48        3343.75           6784       15382.00     67144.72
  193.51        3344.00           6787       14471.00     63159.49
  193.54        3344.25           6791       13049.00     56940.57
  193.57        3344.50           6795       11768.00     51340.08
  193.60        3344.75           6799       10507.00     45828.69
  193.63        3345.00           6802        9430.00     41122.79
  193.66        3345.25           6806        8081.00     35230.10
  193.69        3345.50           6810        6536.00     28483.54
  193.72        3345.75           6814        4816.00     20975.70
  193.75        3346.00           6817        3525.00     15342.45
  193.78        3346.25           6821        2225.00      9671.66
  193.81        3346.50           6825        1427.00      6191.53
  193.84        3346.75           6828         739.00      3191.64
  193.87        3347.00           6832         271.00      1151.30
  193.90        3347.25           6836         112.00       458.16
  193.93        3347.50           6840          88.00       353.53
  193.96        3347.75           6843          69.00       270.71
  193.99        3348.00           6847          62.00       240.19
  194.03        3348.25           6851          60.00       231.47
  194.06        3348.50           6855          53.00       200.96
  194.09        3348.75           6858          48.00       179.16
  194.12        3349.00           6862          48.00       179.16
  194.15        3349.25           6866          48.00       179.16
  194.18        3349.50           6870          44.00       161.73
  194.21        3349.75           6873          43.00       157.37
  194.24        3350.00           6877          51.00       192.24
  194.27        3350.25           6881          45.00       166.09
  194.30        3350.50           6885          42.00       153.01
  194.33        3350.75           6888          42.00       153.01
  194.36        3351.00           6892          49.00       183.52
HL scan finished at 03:15:11
end
