************************************************************
  HL Scan of (1) Internal mercury lamp
************************************************************
Integration time is 0.2294 seconds per sample
dh240619ElArenosillo 37.1 6.73 2.965129pr1023
************************************************************
Dead Time -------------------------  2.7E-08 
Number of Cycles Used -------------  4 
Starting Wavelength (Angstroms) ---  3331 
Final Wavelength (Angstoms) -------  3351 
Wavelength Increment (Angstroms) --  .25 
Filter Wheel #1 Position ---------- (1) Ground quartz diffuser (ND=2.32)
Filter Wheel #2 Position ---------- 



************************************************************
HL scan start time = 02:24:09
Dark Count =  6.1 


Time (GMT)  Wavelength (Ang)  Step Number  Raw Counts  Counts/Second

  144.63        3331.00           6593          36.00       130.34
  144.85        3331.25           6597          41.00       152.14
  144.88        3331.50           6600          42.00       156.50
  144.91        3331.75           6604          43.00       160.86
  144.94        3332.00           6608          45.00       169.57
  144.97        3332.25           6612          44.00       165.21
  145.01        3332.50           6615          40.00       147.78
  145.04        3332.75           6619          46.00       173.93
  145.07        3333.00           6623          45.00       169.57
  145.11        3333.25           6627          42.00       156.50
  145.14        3333.50           6630          48.00       182.65
  145.17        3333.75           6634          47.00       178.29
  145.20        3334.00           6638          62.00       243.68
  145.23        3334.25           6642          74.00       295.99
  145.26        3334.50           6645          97.00       396.26
  145.29        3334.75           6649         127.00       527.03
  145.32        3335.00           6653         133.00       553.19
  145.35        3335.25           6656         147.00       614.22
  145.38        3335.50           6660         186.00       784.24
  145.42        3335.75           6664         184.00       775.52
  145.45        3336.00           6668         536.00      2310.08
  145.48        3336.25           6671        1344.00      5833.09
  145.51        3336.50           6675        2598.00     11302.05
  145.54        3336.75           6679        3804.00     16563.20
  145.57        3337.00           6683        5348.00     23301.06
  145.60        3337.25           6686        6334.00     27605.14
  145.63        3337.50           6690        7433.00     32403.67
  145.66        3337.75           6694        8591.00     37461.15
  145.69        3338.00           6698        9852.00     42970.06
  145.72        3338.25           6701       11385.00     49669.44
  145.75        3338.50           6705       13015.00     56795.40
  145.78        3338.75           6709       14481.00     63206.73
  145.82        3339.00           6712       15678.00     68443.28
  145.85        3339.25           6716       17249.00     75318.23
  145.88        3339.50           6720       18888.00     82493.49
  145.91        3339.75           6724       20327.00     88795.46
  145.94        3340.00           6727       21421.00     93587.98
  145.97        3340.25           6731       22743.00     99380.96
  146.00        3340.50           6735       23960.00    104715.40
  146.03        3340.75           6739       24981.00    109192.00
  146.06        3341.00           6742       25744.00    112538.00
  146.09        3341.25           6746       26179.00    114446.00
  146.12        3341.50           6750       26442.00    115599.60
  146.15        3341.75           6754       25667.00    112200.30
  146.19        3342.00           6757       25142.00    109898.00
  146.22        3342.25           6761       23853.00    104246.40
  146.25        3342.50           6765       22441.00     98057.44
  146.28        3342.75           6769       20344.00     88869.93
  146.31        3343.00           6772       19126.00     83535.63
  146.34        3343.25           6776       18098.00     79034.66
  146.37        3343.50           6780       17455.00     76219.91
  146.40        3343.75           6784       16086.00     70228.51
  146.43        3344.00           6787       15076.00     65809.52
  146.46        3344.25           6791       13801.00     60232.58
  146.49        3344.50           6795       12168.00     53092.19
  146.52        3344.75           6799       10700.00     46675.61
  146.55        3345.00           6802        9413.00     41052.02
  146.58        3345.25           6806        8030.00     35010.85
  146.62        3345.50           6810        6507.00     28360.42
  146.65        3345.75           6814        4871.00     21219.22
  146.68        3346.00           6817        3346.00     14565.01
  146.71        3346.25           6821        1772.00      7699.51
  146.74        3346.50           6825        1101.00      4773.50
  146.77        3346.75           6828         541.00      2331.88
  146.80        3347.00           6832         218.00       923.74
  146.83        3347.25           6836         101.00       413.69
  146.86        3347.50           6840          79.00       317.79
  146.89        3347.75           6843          61.00       239.32
  146.92        3348.00           6847          59.00       230.60
  146.95        3348.25           6851          56.00       217.53
  146.98        3348.50           6855          54.00       208.81
  147.01        3348.75           6858          51.00       195.73
  147.04        3349.00           6862          47.00       178.29
  147.08        3349.25           6866          47.00       178.29
  147.11        3349.50           6870          43.00       160.86
  147.14        3349.75           6873          42.00       156.50
  147.17        3350.00           6877          49.00       187.01
  147.20        3350.25           6881          45.00       169.57
  147.23        3350.50           6885          47.00       178.29
  147.26        3350.75           6888          44.00       165.21
  147.29        3351.00           6892          49.00       187.01
HL scan finished at 02:28:07
end
