************************************************************
  HL Scan of (1) Internal mercury lamp
************************************************************
Integration time is 0.2294 seconds per sample
dh260619ElArenosillo 37.1 6.73 3.072425pr1023
************************************************************
Dead Time -------------------------  2.7E-08 
Number of Cycles Used -------------  4 
Starting Wavelength (Angstroms) ---  3331 
Final Wavelength (Angstoms) -------  3351 
Wavelength Increment (Angstroms) --  .25 
Filter Wheel #1 Position ---------- (1) Ground quartz diffuser (ND=2.32)
Filter Wheel #2 Position ---------- 



************************************************************
HL scan start time = 02:25:22
Dark Count =  6 


Time (GMT)  Wavelength (Ang)  Step Number  Raw Counts  Counts/Second

  145.85        3331.00           6593          46.00       174.37
  146.08        3331.25           6597          40.00       148.21
  146.11        3331.50           6600          50.00       191.81
  146.14        3331.75           6604          44.00       165.65
  146.17        3332.00           6608          44.00       165.65
  146.20        3332.25           6612          45.00       170.01
  146.23        3332.50           6615          48.00       183.09
  146.26        3332.75           6619          43.00       161.29
  146.29        3333.00           6623          47.00       178.73
  146.32        3333.25           6627          45.00       170.01
  146.35        3333.50           6630          45.00       170.01
  146.38        3333.75           6634          58.00       226.68
  146.41        3334.00           6638          73.00       292.07
  146.45        3334.25           6642          87.00       353.10
  146.48        3334.50           6645         105.00       431.57
  146.51        3334.75           6649         124.00       514.39
  146.54        3335.00           6653         148.00       619.02
  146.57        3335.25           6656         176.00       741.08
  146.60        3335.50           6660         191.00       806.47
  146.63        3335.75           6664         214.00       906.74
  146.66        3336.00           6668         370.00      1586.82
  146.69        3336.25           6671         879.00      3805.97
  146.72        3336.50           6675        2275.00      9893.66
  146.76        3336.75           6679        3718.00     16188.42
  146.79        3337.00           6683        5351.00     23314.59
  146.82        3337.25           6686        6394.00     27867.52
  146.85        3337.50           6690        7742.00     33753.51
  146.88        3337.75           6694        9134.00     39833.58
  146.91        3338.00           6698       10871.00     47423.37
  146.94        3338.25           6701       12195.00     53210.66
  146.97        3338.50           6705       13688.00     59738.82
  147.00        3338.75           6709       16084.00     70220.19
  147.03        3339.00           6712       17480.00     76329.78
  147.06        3339.25           6716       19223.00     83960.83
  147.09        3339.50           6720       20938.00     91472.37
  147.12        3339.75           6724       22426.00     97992.14
  147.15        3340.00           6727       23746.00    103777.70
  147.18        3340.25           6731       25262.00    110424.70
  147.22        3340.50           6735       26619.00    116376.40
  147.25        3340.75           6739       27696.00    121101.50
  147.28        3341.00           6742       28257.00    123563.30
  147.31        3341.25           6746       29104.00    127280.60
  147.34        3341.50           6750       29546.00    129220.80
  147.37        3341.75           6754       29406.00    128606.20
  147.40        3342.00           6757       28550.00    124849.10
  147.43        3342.25           6761       26989.00    117999.60
  147.46        3342.50           6765       25208.00    110187.80
  147.49        3342.75           6769       23263.00    101660.50
  147.52        3343.00           6772       22200.00     97001.76
  147.56        3343.25           6776       20466.00     89404.75
  147.59        3343.50           6780       19411.00     84784.09
  147.62        3343.75           6784       18114.00     79105.13
  147.65        3344.00           6787       16982.00     74150.05
  147.68        3344.25           6791       15474.00     67551.18
  147.71        3344.50           6795       13756.00     60036.21
  147.74        3344.75           6799       12313.00     53726.53
  147.77        3345.00           6802       11040.00     48161.98
  147.80        3345.25           6806        9492.00     41397.60
  147.83        3345.50           6810        7782.00     33928.19
  147.86        3345.75           6814        5191.00     22616.25
  147.89        3346.00           6817        4018.00     17497.37
  147.92        3346.25           6821        2378.00     10342.91
  147.95        3346.50           6825        1578.00      6853.93
  147.98        3346.75           6828         815.00      3526.93
  148.02        3347.00           6832         321.00      1373.20
  148.05        3347.25           6836         140.00       584.14
  148.08        3347.50           6840          94.00       383.61
  148.11        3347.75           6843          66.00       261.55
  148.14        3348.00           6847          69.00       274.63
  148.17        3348.25           6851          62.00       244.12
  148.20        3348.50           6855          53.00       204.88
  148.23        3348.75           6858          70.00       278.99
  148.26        3349.00           6862          47.00       178.73
  148.29        3349.25           6866          45.00       170.01
  148.32        3349.50           6870          47.00       178.73
  148.35        3349.75           6873          50.00       191.81
  148.38        3350.00           6877          50.00       191.81
  148.41        3350.25           6881          47.00       178.73
  148.45        3350.50           6885          43.00       161.29
  148.48        3350.75           6888          53.00       204.88
  148.51        3351.00           6892          48.00       183.09
HL scan finished at 02:29:20
end
************************************************************
  HL Scan of (1) Internal mercury lamp
************************************************************
Integration time is 0.2294 seconds per sample
dh260619ElArenosillo 37.1 6.73 3.126073pr1023
************************************************************
Dead Time -------------------------  2.7E-08 
Number of Cycles Used -------------  4 
Starting Wavelength (Angstroms) ---  3331 
Final Wavelength (Angstoms) -------  3351 
Wavelength Increment (Angstroms) --  .25 
Filter Wheel #1 Position ---------- (1) Ground quartz diffuser (ND=2.32)
Filter Wheel #2 Position ---------- 



************************************************************
HL scan start time = 20:43:22
Dark Count =  4.4 


Time (GMT)  Wavelength (Ang)  Step Number  Raw Counts  Counts/Second

 1243.84        3331.00           6593          39.00       150.83
 1244.07        3331.25           6597          37.00       142.11
 1244.10        3331.50           6600          43.00       168.27
 1244.13        3331.75           6604          41.00       159.55
 1244.16        3332.00           6608          38.00       146.47
 1244.19        3332.25           6612          47.00       185.70
 1244.22        3332.50           6615          43.00       168.27
 1244.25        3332.75           6619          47.00       185.70
 1244.28        3333.00           6623          49.00       194.42
 1244.31        3333.25           6627          46.00       181.34
 1244.34        3333.50           6630          48.00       190.06
 1244.37        3333.75           6634          60.00       242.37
 1244.40        3334.00           6638          69.00       281.61
 1244.43        3334.25           6642          75.00       307.76
 1244.46        3334.50           6645         103.00       429.82
 1244.49        3334.75           6649         121.00       508.29
 1244.52        3335.00           6653         139.00       586.76
 1244.55        3335.25           6656         169.00       717.54
 1244.59        3335.50           6660         186.00       791.65
 1244.62        3335.75           6664         205.00       874.48
 1244.65        3336.00           6668         442.00      1907.68
 1244.68        3336.25           6671        1001.00      4344.89
 1244.71        3336.50           6675        2531.00     11017.23
 1244.74        3336.75           6679        4166.00     18150.13
 1244.77        3337.00           6683        5774.00     25167.93
 1244.80        3337.25           6686        6768.00     29507.37
 1244.83        3337.50           6690        8021.00     34978.97
 1244.86        3337.75           6694        9367.00     40858.47
 1244.89        3338.00           6698       11140.00     48606.03
 1244.92        3338.25           6701       12577.00     54887.74
 1244.95        3338.50           6705       14138.00     61713.90
 1244.99        3338.75           6709       16550.00     72266.41
 1245.02        3339.00           6712       17649.00     77076.53
 1245.05        3339.25           6716       19686.00     85995.43
 1245.08        3339.50           6720       21007.00     91781.66
 1245.11        3339.75           6724       22762.00     99471.68
 1245.14        3340.00           6727       23958.00    104714.10
 1245.17        3340.25           6731       25710.00    112396.40
 1245.20        3340.50           6735       26979.00    117962.70
 1245.24        3340.75           6739       27990.00    122398.60
 1245.27        3341.00           6742       28545.00    124834.20
 1245.30        3341.25           6746       29120.00    127357.90
 1245.33        3341.50           6750       29585.00    129399.00
 1245.36        3341.75           6754       29238.00    127875.80
 1245.39        3342.00           6757       28258.00    123574.70
 1245.42        3342.25           6761       26875.00    117506.50
 1245.45        3342.50           6765       25202.00    110168.50
 1245.48        3342.75           6769       23311.00    101877.90
 1245.51        3343.00           6772       22048.00     96342.69
 1245.54        3343.25           6776       20075.00     87699.13
 1245.58        3343.50           6780       18959.00     82811.81
 1245.61        3343.75           6784       18037.00     78775.05
 1245.64        3344.00           6787       16966.00     74087.03
 1245.67        3344.25           6791       15335.00     66950.03
 1245.70        3344.50           6795       13525.00     59032.99
 1245.73        3344.75           6799       11972.00     52242.78
 1245.76        3345.00           6802       10720.00     46770.45
 1245.79        3345.25           6806        9131.00     39827.46
 1245.82        3345.50           6810        7187.00     31336.88
 1245.85        3345.75           6814        4857.00     21165.54
 1245.88        3346.00           6817        3815.00     16618.62
 1245.91        3346.25           6821        2311.00     10057.66
 1245.94        3346.50           6825        1462.00      6355.06
 1245.97        3346.75           6828         708.00      3067.39
 1246.01        3347.00           6832         283.00      1214.51
 1246.04        3347.25           6836         123.00       517.01
 1246.07        3347.50           6840          96.00       399.31
 1246.10        3347.75           6843          69.00       281.61
 1246.13        3348.00           6847          57.00       229.30
 1246.16        3348.25           6851          58.00       233.65
 1246.19        3348.50           6855          57.00       229.30
 1246.22        3348.75           6858          54.00       216.22
 1246.25        3349.00           6862          56.00       224.94
 1246.28        3349.25           6866          49.00       194.42
 1246.31        3349.50           6870          44.00       172.63
 1246.34        3349.75           6873          49.00       194.42
 1246.38        3350.00           6877          46.00       181.34
 1246.41        3350.25           6881          41.00       159.55
 1246.44        3350.50           6885          51.00       203.14
 1246.47        3350.75           6888          44.00       172.63
 1246.50        3351.00           6892          48.00       190.06
HL scan finished at 20:47:19
end
