************************************************************
  HL Scan of (1) Internal mercury lamp
************************************************************
Integration time is 0.2294 seconds per sample
dh280619ElArenosillo 37.1 6.73 3.126073pr1023
************************************************************
Dead Time -------------------------  2.7E-08 
Number of Cycles Used -------------  4 
Starting Wavelength (Angstroms) ---  3331 
Final Wavelength (Angstoms) -------  3351 
Wavelength Increment (Angstroms) --  .25 
Filter Wheel #1 Position ---------- (1) Ground quartz diffuser (ND=2.32)
Filter Wheel #2 Position ---------- 



************************************************************
HL scan start time = 03:01:52
Dark Count =  4.8 


Time (GMT)  Wavelength (Ang)  Step Number  Raw Counts  Counts/Second

  182.35        3331.00           6593          45.00       175.24
  182.57        3331.25           6597          43.00       166.52
  182.60        3331.50           6600          39.00       149.09
  182.63        3331.75           6604          36.00       136.01
  182.66        3332.00           6608          49.00       192.68
  182.69        3332.25           6612          43.00       166.52
  182.73        3332.50           6615          51.00       201.40
  182.76        3332.75           6619          46.00       179.60
  182.79        3333.00           6623          55.00       218.83
  182.82        3333.25           6627          44.00       170.88
  182.85        3333.50           6630          46.00       179.60
  182.88        3333.75           6634          55.00       218.83
  182.91        3334.00           6638          64.00       258.07
  182.94        3334.25           6642          86.00       353.97
  182.97        3334.50           6645         102.00       423.72
  183.00        3334.75           6649         127.00       532.70
  183.03        3335.00           6653         147.00       619.89
  183.06        3335.25           6656         157.00       663.48
  183.09        3335.50           6660         191.00       811.70
  183.12        3335.75           6664         205.00       872.73
  183.16        3336.00           6668         368.00      1583.33
  183.19        3336.25           6671         936.00      4059.73
  183.22        3336.50           6675        2252.00      9798.58
  183.25        3336.75           6679        3911.00     17035.73
  183.28        3337.00           6683        5611.00     24454.68
  183.31        3337.25           6686        6740.00     29383.38
  183.34        3337.50           6690        8259.00     36016.70
  183.37        3337.75           6694        9577.00     41774.21
  183.40        3338.00           6698       11217.00     48940.83
  183.43        3338.25           6701       12632.00     55126.46
  183.47        3338.50           6705       14353.00     62652.54
  183.50        3338.75           6709       16764.00     73201.21
  183.53        3339.00           6712       17882.00     78094.75
  183.56        3339.25           6716       20012.00     87421.46
  183.59        3339.50           6720       21591.00     94338.50
  183.62        3339.75           6724       23121.00    101043.40
  183.65        3340.00           6727       24509.00    107128.10
  183.68        3340.25           6731       25805.00    112811.30
  183.71        3340.50           6735       27490.00    120202.90
  183.74        3340.75           6739       28719.00    125596.10
  183.77        3341.00           6742       29404.00    128602.70
  183.80        3341.25           6746       30132.00    131798.60
  183.84        3341.50           6750       30585.00    133787.60
  183.87        3341.75           6754       30259.00    132356.20
  183.90        3342.00           6757       29402.00    128593.90
  183.93        3342.25           6761       27571.00    120558.30
  183.96        3342.50           6765       26040.00    113842.00
  183.99        3342.75           6769       24120.00    105422.60
  184.02        3343.00           6772       23036.00    100670.80
  184.05        3343.25           6776       21284.00     92993.44
  184.08        3343.50           6780       19636.00     85774.71
  184.11        3343.75           6784       18532.00     80940.41
  184.14        3344.00           6787       17419.00     76068.02
  184.17        3344.25           6791       15879.00     69328.43
  184.20        3344.50           6795       14217.00     62057.69
  184.23        3344.75           6799       12643.00     55174.55
  184.26        3345.00           6802       11287.00     49246.78
  184.30        3345.25           6806        9649.00     42088.78
  184.33        3345.50           6810        7900.00     34448.77
  184.36        3345.75           6814        5244.00     22852.81
  184.39        3346.00           6817        4103.00     17873.49
  184.42        3346.25           6821        2448.00     10653.46
  184.45        3346.50           6825        1565.00      6802.47
  184.48        3346.75           6828         802.00      3475.48
  184.51        3347.00           6832         356.00      1531.01
  184.54        3347.25           6836         122.00       510.91
  184.57        3347.50           6840          96.00       397.56
  184.60        3347.75           6843          74.00       301.66
  184.63        3348.00           6847          73.00       297.30
  184.67        3348.25           6851          54.00       214.47
  184.70        3348.50           6855          54.00       214.47
  184.73        3348.75           6858          53.00       210.11
  184.76        3349.00           6862          47.00       183.96
  184.79        3349.25           6866          52.00       205.76
  184.82        3349.50           6870          51.00       201.40
  184.85        3349.75           6873          55.00       218.83
  184.88        3350.00           6877          47.00       183.96
  184.91        3350.25           6881          53.00       210.11
  184.94        3350.50           6885          49.00       192.68
  184.97        3350.75           6888          53.00       210.11
  185.00        3351.00           6892          37.00       140.37
HL scan finished at 03:05:50
end
