************************************************************
  HL Scan of (1) Internal mercury lamp
************************************************************
Integration time is 0.2294 seconds per sample
dh210619ElArenosillo 37.1 6.73 2.911481pr1023
************************************************************
Dead Time -------------------------  2.7E-08 
Number of Cycles Used -------------  4 
Starting Wavelength (Angstroms) ---  3331 
Final Wavelength (Angstoms) -------  3351 
Wavelength Increment (Angstroms) --  .25 
Filter Wheel #1 Position ---------- (1) Ground quartz diffuser (ND=2.32)
Filter Wheel #2 Position ---------- 



************************************************************
HL scan start time = 03:11:14
Dark Count =  6.9 


Time (GMT)  Wavelength (Ang)  Step Number  Raw Counts  Counts/Second

  191.72        3331.00           6593          44.00       161.73
  191.94        3331.25           6597          41.00       148.65
  191.97        3331.50           6600          40.00       144.29
  192.00        3331.75           6604          43.00       157.37
  192.03        3332.00           6608          38.00       135.57
  192.06        3332.25           6612          42.00       153.01
  192.09        3332.50           6615          39.00       139.93
  192.12        3332.75           6619          45.00       166.09
  192.15        3333.00           6623          44.00       161.73
  192.18        3333.25           6627          43.00       157.37
  192.21        3333.50           6630          50.00       187.88
  192.24        3333.75           6634          45.00       166.09
  192.27        3334.00           6638          70.00       275.07
  192.31        3334.25           6642          72.00       283.79
  192.34        3334.50           6645          85.00       340.46
  192.37        3334.75           6649         110.00       449.44
  192.40        3335.00           6653         132.00       545.34
  192.43        3335.25           6656         150.00       623.81
  192.46        3335.50           6660         163.00       680.48
  192.49        3335.75           6664         179.00       750.23
  192.52        3336.00           6668         313.00      1334.40
  192.55        3336.25           6671         687.00      2964.93
  192.58        3336.50           6675        1952.00      8481.02
  192.61        3336.75           6679        3265.00     14208.15
  192.64        3337.00           6683        4619.00     20115.98
  192.68        3337.25           6686        5392.00     23489.61
  192.71        3337.50           6690        6329.00     27579.82
  192.74        3337.75           6694        7263.00     31657.83
  192.77        3338.00           6698        8749.00     38147.82
  192.80        3338.25           6701       10124.00     44155.05
  192.83        3338.50           6705       11768.00     51340.08
  192.86        3338.75           6709       13221.00     57692.67
  192.89        3339.00           6712       14506.00     63312.58
  192.92        3339.25           6716       15965.00     69695.54
  192.95        3339.50           6720       17227.00     75218.43
  192.98        3339.75           6724       18525.00     80900.58
  193.01        3340.00           6727       19539.00     85340.71
  193.04        3340.25           6731       20958.00     91556.03
  193.08        3340.50           6735       22394.00     97847.96
  193.11        3340.75           6739       23198.00    101371.70
  193.14        3341.00           6742       23342.00    102002.90
  193.17        3341.25           6746       24184.00    105694.00
  193.20        3341.50           6750       24686.00    107895.00
  193.23        3341.75           6754       24586.00    107456.50
  193.26        3342.00           6757       23868.00    104308.60
  193.29        3342.25           6761       22539.00     98483.41
  193.32        3342.50           6765       21108.00     92213.18
  193.35        3342.75           6769       19737.00     86207.84
  193.38        3343.00           6772       18383.00     80278.87
  193.41        3343.25           6776       17326.00     75651.75
  193.44        3343.50           6780       16437.00     71760.96
  193.48        3343.75           6784       15382.00     67144.72
  193.51        3344.00           6787       14471.00     63159.49
  193.54        3344.25           6791       13049.00     56940.57
  193.57        3344.50           6795       11768.00     51340.08
  193.60        3344.75           6799       10507.00     45828.69
  193.63        3345.00           6802        9430.00     41122.79
  193.66        3345.25           6806        8081.00     35230.10
  193.69        3345.50           6810        6536.00     28483.54
  193.72        3345.75           6814        4816.00     20975.70
  193.75        3346.00           6817        3525.00     15342.45
  193.78        3346.25           6821        2225.00      9671.66
  193.81        3346.50           6825        1427.00      6191.53
  193.84        3346.75           6828         739.00      3191.64
  193.87        3347.00           6832         271.00      1151.30
  193.90        3347.25           6836         112.00       458.16
  193.93        3347.50           6840          88.00       353.53
  193.96        3347.75           6843          69.00       270.71
  193.99        3348.00           6847          62.00       240.19
  194.03        3348.25           6851          60.00       231.47
  194.06        3348.50           6855          53.00       200.96
  194.09        3348.75           6858          48.00       179.16
  194.12        3349.00           6862          48.00       179.16
  194.15        3349.25           6866          48.00       179.16
  194.18        3349.50           6870          44.00       161.73
  194.21        3349.75           6873          43.00       157.37
  194.24        3350.00           6877          51.00       192.24
  194.27        3350.25           6881          45.00       166.09
  194.30        3350.50           6885          42.00       153.01
  194.33        3350.75           6888          42.00       153.01
  194.36        3351.00           6892          49.00       183.52
HL scan finished at 03:15:11
end
************************************************************
  HL Scan of (1) Internal mercury lamp
************************************************************
Integration time is 0.2294 seconds per sample
dh210619ElArenosillo 37.1 6.73 3.072425pr1023
************************************************************
Dead Time -------------------------  2.7E-08 
Number of Cycles Used -------------  4 
Starting Wavelength (Angstroms) ---  3331 
Final Wavelength (Angstoms) -------  3351 
Wavelength Increment (Angstroms) --  .25 
Filter Wheel #1 Position ---------- (1) Ground quartz diffuser (ND=2.32)
Filter Wheel #2 Position ---------- 



************************************************************
HL scan start time = 21:44:53
Dark Count =  5.1 


Time (GMT)  Wavelength (Ang)  Step Number  Raw Counts  Counts/Second

 1305.36        3331.00           6593          41.00       156.50
 1305.58        3331.25           6597          40.00       152.14
 1305.61        3331.50           6600          44.00       169.57
 1305.64        3331.75           6604          43.00       165.21
 1305.67        3332.00           6608          47.00       182.65
 1305.70        3332.25           6612          43.00       165.21
 1305.73        3332.50           6615          45.00       173.93
 1305.76        3332.75           6619          45.00       173.93
 1305.79        3333.00           6623          49.00       191.37
 1305.82        3333.25           6627          46.00       178.29
 1305.85        3333.50           6630          47.00       182.65
 1305.89        3333.75           6634          57.00       226.24
 1305.92        3334.00           6638          65.00       261.12
 1305.95        3334.25           6642          85.00       348.30
 1305.98        3334.50           6645         108.00       448.57
 1306.01        3334.75           6649         126.00       527.03
 1306.04        3335.00           6653         139.00       583.71
 1306.07        3335.25           6656         159.00       670.89
 1306.10        3335.50           6660         181.00       766.80
 1306.13        3335.75           6664         205.00       871.42
 1306.16        3336.00           6668         488.00      2105.18
 1306.19        3336.25           6671        1073.00      4655.77
 1306.22        3336.50           6675        2341.00     10185.45
 1306.26        3336.75           6679        3904.00     17003.88
 1306.29        3337.00           6683        5331.00     23231.22
 1306.32        3337.25           6686        6317.00     27535.29
 1306.35        3337.50           6690        7579.00     33045.60
 1306.38        3337.75           6694        8593.00     37474.26
 1306.41        3338.00           6698       10255.00     44735.35
 1306.44        3338.25           6701       11867.00     51780.71
 1306.47        3338.50           6705       13595.00     59336.05
 1306.50        3338.75           6709       15092.00     65883.88
 1306.53        3339.00           6712       16660.00     72744.75
 1306.56        3339.25           6716       18375.00     80251.74
 1306.59        3339.50           6720       19886.00     86868.29
 1306.63        3339.75           6724       21538.00     94104.98
 1306.66        3340.00           6727       22643.00     98947.09
 1306.69        3340.25           6731       24003.00    104908.40
 1306.72        3340.50           6735       25390.00    110989.90
 1306.75        3340.75           6739       26264.00    114823.20
 1306.78        3341.00           6742       26713.00    116792.70
 1306.81        3341.25           6746       27483.00    120170.90
 1306.84        3341.50           6750       27947.00    122206.90
 1306.87        3341.75           6754       27679.00    121030.90
 1306.90        3342.00           6757       26889.00    117564.80
 1306.93        3342.25           6761       25109.00    109757.70
 1306.96        3342.50           6765       23521.00    102795.40
 1306.99        3342.75           6769       21605.00     94398.54
 1307.02        3343.00           6772       20379.00     89027.61
 1307.05        3343.25           6776       19243.00     84052.35
 1307.08        3343.50           6780       18130.00     79179.13
 1307.11        3343.75           6784       16836.00     73515.00
 1307.15        3344.00           6787       15691.00     68504.53
 1307.18        3344.25           6791       14233.00     62126.36
 1307.21        3344.50           6795       12794.00     55833.45
 1307.24        3344.75           6799       11338.00     49468.39
 1307.27        3345.00           6802       10072.00     43935.71
 1307.30        3345.25           6806        8519.00     37151.02
 1307.33        3345.50           6810        6920.00     30167.98
 1307.36        3345.75           6814        5084.00     22153.18
 1307.39        3346.00           6817        3734.00     16262.15
 1307.42        3346.25           6821        2095.00      9112.53
 1307.45        3346.50           6825        1217.00      5283.67
 1307.48        3346.75           6828         643.00      2780.94
 1307.51        3347.00           6832         264.00      1128.63
 1307.55        3347.25           6836         111.00       461.64
 1307.58        3347.50           6840          88.00       361.38
 1307.61        3347.75           6843          72.00       291.63
 1307.64        3348.00           6847          68.00       274.20
 1307.67        3348.25           6851          53.00       208.81
 1307.70        3348.50           6855          51.00       200.09
 1307.73        3348.75           6858          48.00       187.01
 1307.76        3349.00           6862          50.00       195.73
 1307.79        3349.25           6866          50.00       195.73
 1307.82        3349.50           6870          40.00       152.14
 1307.85        3349.75           6873          42.00       160.86
 1307.88        3350.00           6877          53.00       208.81
 1307.91        3350.25           6881          47.00       182.65
 1307.94        3350.50           6885          43.00       165.21
 1307.98        3350.75           6888          43.00       165.21
 1308.01        3351.00           6892          43.00       165.21
HL scan finished at 21:48:50
end
