************************************************************
  HL Scan of (1) Internal mercury lamp
************************************************************
Integration time is 0.2294 seconds per sample
dh230619ElArenosillo 37.1 6.73 2.965129pr1023
************************************************************
Dead Time -------------------------  2.7E-08 
Number of Cycles Used -------------  4 
Starting Wavelength (Angstroms) ---  3331 
Final Wavelength (Angstoms) -------  3351 
Wavelength Increment (Angstroms) --  .25 
Filter Wheel #1 Position ---------- (1) Ground quartz diffuser (ND=2.32)
Filter Wheel #2 Position ---------- 



************************************************************
HL scan start time = 02:31:39
Dark Count =  4.7 


Time (GMT)  Wavelength (Ang)  Step Number  Raw Counts  Counts/Second

  152.13        3331.00           6593          39.00       149.52
  152.35        3331.25           6597          46.00       180.04
  152.38        3331.50           6600          35.00       132.08
  152.41        3331.75           6604          46.00       180.04
  152.44        3332.00           6608          45.00       175.68
  152.48        3332.25           6612          40.00       153.88
  152.51        3332.50           6615          44.00       171.32
  152.54        3332.75           6619          47.00       184.39
  152.57        3333.00           6623          39.00       149.52
  152.60        3333.25           6627          48.00       188.75
  152.63        3333.50           6630          44.00       171.32
  152.66        3333.75           6634          54.00       214.91
  152.69        3334.00           6638          60.00       241.07
  152.72        3334.25           6642          80.00       328.25
  152.75        3334.50           6645          89.00       367.48
  152.78        3334.75           6649         107.00       445.95
  152.81        3335.00           6653         141.00       594.17
  152.84        3335.25           6656         146.00       615.96
  152.87        3335.50           6660         175.00       742.39
  152.91        3335.75           6664         181.00       768.54
  152.94        3336.00           6668         498.00      2150.52
  152.97        3336.25           6671        1276.00      5542.68
  153.00        3336.50           6675        2569.00     11181.67
  153.03        3336.75           6679        3770.00     16420.97
  153.06        3337.00           6683        5204.00     22678.66
  153.09        3337.25           6686        6103.00     26602.80
  153.12        3337.50           6690        7141.00     31134.71
  153.15        3337.75           6694        8267.00     36052.08
  153.18        3338.00           6698        9350.00     40782.90
  153.21        3338.25           6701       10717.00     46756.03
  153.24        3338.50           6705       12384.00     54042.62
  153.28        3338.75           6709       13817.00     60308.68
  153.31        3339.00           6712       15277.00     66694.98
  153.34        3339.25           6716       16896.00     73779.35
  153.37        3339.50           6720       18116.00     79119.59
  153.40        3339.75           6724       19737.00     86217.48
  153.43        3340.00           6727       20697.00     90422.32
  153.46        3340.25           6731       22204.00     97024.99
  153.49        3340.50           6735       23415.00    102332.50
  153.52        3340.75           6739       24355.00    106453.30
  153.55        3341.00           6742       24712.00    108018.60
  153.58        3341.25           6746       25407.00    111066.20
  153.62        3341.50           6750       25536.00    111632.00
  153.65        3341.75           6754       25208.00    110193.50
  153.68        3342.00           6757       24418.00    106729.50
  153.71        3342.25           6761       23177.00    101289.30
  153.74        3342.50           6765       21756.00     95061.90
  153.77        3342.75           6769       19938.00     87097.78
  153.80        3343.00           6772       18789.00     82066.13
  153.83        3343.25           6776       17910.00     78217.76
  153.86        3343.50           6780       17316.00     75617.62
  153.89        3343.75           6784       15549.00     67885.00
  153.92        3344.00           6787       14625.00     63842.74
  153.95        3344.25           6791       13340.00     58222.67
  153.99        3344.50           6795       11850.00     51708.15
  154.02        3344.75           6799       10652.00     46471.96
  154.05        3345.00           6802        9516.00     41508.14
  154.08        3345.25           6806        8003.00     34899.04
  154.11        3345.50           6810        6278.00     27366.77
  154.14        3345.75           6814        4652.00     20269.59
  154.17        3346.00           6817        3202.00     13942.91
  154.20        3346.25           6821        1982.00      8621.45
  154.23        3346.50           6825        1196.00      5193.84
  154.26        3346.75           6828         565.00      2442.62
  154.29        3347.00           6832         210.00       894.97
  154.32        3347.25           6836         100.00       415.44
  154.35        3347.50           6840          81.00       332.61
  154.39        3347.75           6843          62.00       249.78
  154.42        3348.00           6847          59.00       236.71
  154.45        3348.25           6851          57.00       227.99
  154.48        3348.50           6855          44.00       171.32
  154.51        3348.75           6858          37.00       140.80
  154.54        3349.00           6862          46.00       180.04
  154.57        3349.25           6866          47.00       184.39
  154.60        3349.50           6870          55.00       219.27
  154.63        3349.75           6873          44.00       171.32
  154.66        3350.00           6877          42.00       162.60
  154.69        3350.25           6881          45.00       175.68
  154.72        3350.50           6885          34.00       127.72
  154.75        3350.75           6888          47.00       184.39
  154.79        3351.00           6892          51.00       201.83
HL scan finished at 02:35:37
end
************************************************************
  HL Scan of (1) Internal mercury lamp
************************************************************
Integration time is 0.2294 seconds per sample
dh230619ElArenosillo 37.1 6.73 3.018777pr1023
************************************************************
Dead Time -------------------------  2.7E-08 
Number of Cycles Used -------------  4 
Starting Wavelength (Angstroms) ---  3331 
Final Wavelength (Angstoms) -------  3351 
Wavelength Increment (Angstroms) --  .25 
Filter Wheel #1 Position ---------- (1) Ground quartz diffuser (ND=2.32)
Filter Wheel #2 Position ---------- 



************************************************************
HL scan start time = 21:45:56
Dark Count =  4.7 


Time (GMT)  Wavelength (Ang)  Step Number  Raw Counts  Counts/Second

 1306.42        3331.00           6593          43.00       166.96
 1306.64        3331.25           6597          48.00       188.75
 1306.67        3331.50           6600          40.00       153.88
 1306.70        3331.75           6604          44.00       171.32
 1306.73        3332.00           6608          35.00       132.08
 1306.76        3332.25           6612          44.00       171.32
 1306.79        3332.50           6615          48.00       188.75
 1306.82        3332.75           6619          47.00       184.39
 1306.85        3333.00           6623          43.00       166.96
 1306.89        3333.25           6627          43.00       166.96
 1306.93        3333.50           6630          46.00       180.04
 1306.96        3333.75           6634          49.00       193.11
 1306.99        3334.00           6638          57.00       227.99
 1307.02        3334.25           6642          79.00       323.89
 1307.05        3334.50           6645          99.00       411.08
 1307.08        3334.75           6649         118.00       493.90
 1307.11        3335.00           6653         131.00       550.57
 1307.14        3335.25           6656         142.00       598.53
 1307.17        3335.50           6660         177.00       751.11
 1307.20        3335.75           6664         188.00       799.06
 1307.23        3336.00           6668         388.00      1670.96
 1307.26        3336.25           6671         872.00      3781.12
 1307.29        3336.50           6675        2143.00      9323.62
 1307.33        3336.75           6679        3584.00     15609.46
 1307.36        3337.00           6683        4857.00     21164.23
 1307.39        3337.25           6686        5810.00     25323.76
 1307.42        3337.50           6690        6917.00     30156.63
 1307.45        3337.75           6694        7945.00     34645.74
 1307.48        3338.00           6698        9470.00     41307.16
 1307.51        3338.25           6701       10908.00     47590.76
 1307.54        3338.50           6705       12564.00     54829.59
 1307.57        3338.75           6709       14051.00     61332.08
 1307.60        3339.00           6712       15498.00     67661.86
 1307.63        3339.25           6716       17042.00     74418.35
 1307.66        3339.50           6720       18695.00     81654.55
 1307.69        3339.75           6724       20147.00     88013.18
 1307.72        3340.00           6727       21143.00     92376.16
 1307.75        3340.25           6731       22537.00     98484.29
 1307.79        3340.50           6735       23827.00    104138.50
 1307.82        3340.75           6739       24775.00    108294.80
 1307.85        3341.00           6742       25026.00    109395.50
 1307.88        3341.25           6746       25849.00    113004.70
 1307.91        3341.50           6750       26238.00    114710.90
 1307.94        3341.75           6754       26324.00    115088.10
 1307.97        3342.00           6757       25480.00    111386.40
 1308.00        3342.25           6761       23803.00    104033.30
 1308.03        3342.50           6765       22349.00     97660.41
 1308.06        3342.75           6769       20530.00     89690.79
 1308.09        3343.00           6772       19413.00     84798.56
 1308.13        3343.25           6776       18367.00     80218.47
 1308.16        3343.50           6780       17226.00     75223.69
 1308.19        3343.75           6784       15966.00     69709.56
 1308.22        3344.00           6787       14887.00     64988.83
 1308.25        3344.25           6791       13386.00     58423.82
 1308.28        3344.50           6795       12122.00     52897.21
 1308.31        3344.75           6799       10599.00     46240.35
 1308.34        3345.00           6802        9749.00     42526.13
 1308.37        3345.25           6806        8182.00     35680.83
 1308.41        3345.50           6810        6620.00     28859.88
 1308.44        3345.75           6814        4938.00     21517.73
 1308.47        3346.00           6817        3564.00     15522.20
 1308.50        3346.25           6821        2086.00      9075.02
 1308.53        3346.50           6825        1229.00      5337.74
 1308.56        3346.75           6828         698.00      3022.48
 1308.59        3347.00           6832         275.00      1178.33
 1308.62        3347.25           6836         114.00       476.47
 1308.65        3347.50           6840          92.00       380.56
 1308.68        3347.75           6843          72.00       293.38
 1308.71        3348.00           6847          57.00       227.99
 1308.74        3348.25           6851          45.00       175.68
 1308.77        3348.50           6855          55.00       219.27
 1308.80        3348.75           6858          49.00       193.11
 1308.84        3349.00           6862          47.00       184.39
 1308.87        3349.25           6866          48.00       188.75
 1308.90        3349.50           6870          45.00       175.68
 1308.93        3349.75           6873          39.00       149.52
 1308.96        3350.00           6877          48.00       188.75
 1308.99        3350.25           6881          50.00       197.47
 1309.02        3350.50           6885          40.00       153.88
 1309.05        3350.75           6888          47.00       184.39
 1309.08        3351.00           6892          55.00       219.27
HL scan finished at 21:49:54
end
