************************************************************
  HL Scan of (1) Internal mercury lamp
************************************************************
Integration time is 0.2294 seconds per sample
dh220619ElArenosillo 37.1 6.73 3.126073pr1023
************************************************************
Dead Time -------------------------  2.7E-08 
Number of Cycles Used -------------  4 
Starting Wavelength (Angstroms) ---  3331 
Final Wavelength (Angstoms) -------  3351 
Wavelength Increment (Angstroms) --  .25 
Filter Wheel #1 Position ---------- (1) Ground quartz diffuser (ND=2.32)
Filter Wheel #2 Position ---------- 



************************************************************
HL scan start time = 01:27:46
Dark Count =  5.6 


Time (GMT)  Wavelength (Ang)  Step Number  Raw Counts  Counts/Second

   88.25        3331.00           6593          42.00       158.68
   88.47        3331.25           6597          49.00       189.19
   88.50        3331.50           6600          42.00       158.68
   88.53        3331.75           6604          41.00       154.32
   88.56        3332.00           6608          45.00       171.75
   88.59        3332.25           6612          51.00       197.91
   88.62        3332.50           6615          52.00       202.27
   88.66        3332.75           6619          46.00       176.11
   88.70        3333.00           6623          44.00       167.39
   88.73        3333.25           6627          45.00       171.75
   88.76        3333.50           6630          48.00       184.83
   88.79        3333.75           6634          58.00       228.42
   88.82        3334.00           6638          78.00       315.61
   88.85        3334.25           6642          87.00       354.84
   88.88        3334.50           6645         101.00       415.87
   88.91        3334.75           6649         129.00       537.93
   88.94        3335.00           6653         151.00       633.84
   88.98        3335.25           6656         177.00       747.18
   89.01        3335.50           6660         196.00       830.01
   89.04        3335.75           6664         221.00       939.00
   89.07        3336.00           6668         392.00      1684.47
   89.10        3336.25           6671         929.00      4025.72
   89.13        3336.50           6675        2426.00     10554.01
   89.16        3336.75           6679        4300.00     18729.61
   89.19        3337.00           6683        5964.00     25992.08
   89.22        3337.25           6686        6951.00     30301.16
   89.25        3337.50           6690        8226.00     35869.07
   89.28        3337.75           6694        9371.00     40870.71
   89.31        3338.00           6698       11233.00     49007.26
   89.34        3338.25           6701       12891.00     56255.39
   89.38        3338.50           6705       15000.00     65479.23
   89.41        3338.75           6709       16594.00     72453.72
   89.44        3339.00           6712       18395.00     80337.10
   89.47        3339.25           6716       20223.00     88342.12
   89.50        3339.50           6720       21718.00     94891.47
   89.53        3339.75           6724       23325.00    101934.00
   89.56        3340.00           6727       24927.00    108957.40
   89.59        3340.25           6731       26539.00    116027.30
   89.62        3340.50           6735       28151.00    123099.90
   89.65        3340.75           6739       29371.00    128454.30
   89.69        3341.00           6742       29607.00    129490.30
   89.72        3341.25           6746       30698.00    134280.20
   89.75        3341.50           6750       31016.00    135676.60
   89.78        3341.75           6754       30865.00    135013.50
   89.81        3342.00           6757       29812.00    130390.20
   89.84        3342.25           6761       28138.00    123042.80
   89.87        3342.50           6765       26450.00    115636.90
   89.90        3342.75           6769       24604.00    107541.10
   89.93        3343.00           6772       22902.00    100080.00
   89.96        3343.25           6776       21570.00     94243.00
   89.99        3343.50           6780       20098.00     87794.61
   90.02        3343.75           6784       19048.00     83196.28
   90.05        3344.00           6787       17839.00     77903.01
   90.08        3344.25           6791       16197.00     70716.41
   90.11        3344.50           6795       14487.00     63235.17
   90.14        3344.75           6799       12785.00     55791.92
   90.17        3345.00           6802       11454.00     49973.23
   90.21        3345.25           6806        9717.00     42382.39
   90.24        3345.50           6810        7859.00     34266.21
   90.27        3345.75           6814        5659.00     24660.70
   90.30        3346.00           6817        4175.00     18184.17
   90.33        3346.25           6821        2548.00     11086.14
   90.36        3346.50           6825        1595.00      6929.81
   90.39        3346.75           6828         774.00      3349.91
   90.42        3347.00           6832         321.00      1374.94
   90.45        3347.25           6836         127.00       529.21
   90.48        3347.50           6840          99.00       407.15
   90.51        3347.75           6843          69.00       276.38
   90.54        3348.00           6847          65.00       258.94
   90.57        3348.25           6851          54.00       210.99
   90.61        3348.50           6855          54.00       210.99
   90.64        3348.75           6858          51.00       197.91
   90.67        3349.00           6862          55.00       215.35
   90.70        3349.25           6866          49.00       189.19
   90.73        3349.50           6870          51.00       197.91
   90.76        3349.75           6873          52.00       202.27
   90.79        3350.00           6877          52.00       202.27
   90.82        3350.25           6881          46.00       176.11
   90.85        3350.50           6885          47.00       180.47
   90.88        3350.75           6888          46.00       176.11
   90.91        3351.00           6892          51.00       197.91
HL scan finished at 01:31:44
end
************************************************************
  HL Scan of (1) Internal mercury lamp
************************************************************
Integration time is 0.2294 seconds per sample
dh220619ElArenosillo 37.1 6.73 3.072425pr1023
************************************************************
Dead Time -------------------------  2.7E-08 
Number of Cycles Used -------------  4 
Starting Wavelength (Angstroms) ---  3331 
Final Wavelength (Angstoms) -------  3351 
Wavelength Increment (Angstroms) --  .25 
Filter Wheel #1 Position ---------- (1) Ground quartz diffuser (ND=2.32)
Filter Wheel #2 Position ---------- 



************************************************************
HL scan start time = 02:31:10
Dark Count =  6.9 


Time (GMT)  Wavelength (Ang)  Step Number  Raw Counts  Counts/Second

  151.64        3331.00           6593          41.00       148.65
  151.86        3331.25           6597          38.00       135.57
  151.89        3331.50           6600          44.00       161.73
  151.92        3331.75           6604          47.00       174.80
  151.95        3332.00           6608          46.00       170.45
  151.98        3332.25           6612          40.00       144.29
  152.02        3332.50           6615          44.00       161.73
  152.05        3332.75           6619          42.00       153.01
  152.08        3333.00           6623          50.00       187.88
  152.11        3333.25           6627          52.00       196.60
  152.14        3333.50           6630          46.00       170.45
  152.17        3333.75           6634          55.00       209.68
  152.20        3334.00           6638          67.00       261.99
  152.23        3334.25           6642          89.00       357.89
  152.26        3334.50           6645         104.00       423.28
  152.29        3334.75           6649         135.00       558.42
  152.32        3335.00           6653         141.00       584.58
  152.35        3335.25           6656         159.00       663.05
  152.39        3335.50           6660         185.00       776.39
  152.42        3335.75           6664         212.00       894.09
  152.45        3336.00           6668         562.00      2419.95
  152.48        3336.25           6671        1114.00      4826.70
  152.51        3336.50           6675        2602.00     11316.01
  152.54        3336.75           6679        4245.00     18483.94
  152.57        3337.00           6683        5747.00     25039.16
  152.60        3337.25           6686        6766.00     29487.72
  152.63        3337.50           6690        7835.00     34155.72
  152.66        3337.75           6694        8773.00     38252.65
  152.69        3338.00           6698       10391.00     45321.78
  152.72        3338.25           6701       11697.00     51029.73
  152.75        3338.50           6705       13409.00     58514.78
  152.78        3338.75           6709       14981.00     65390.42
  152.82        3339.00           6712       16546.00     72237.97
  152.85        3339.25           6716       18282.00     79836.69
  152.88        3339.50           6720       19907.00     86952.38
  152.91        3339.75           6724       21462.00     93764.11
  152.94        3340.00           6727       22722.00     99285.42
  152.97        3340.25           6731       23983.00    104812.80
  153.00        3340.50           6735       25781.00    112696.80
  153.03        3340.75           6739       26836.00    117324.40
  153.06        3341.00           6742       27017.00    118118.50
  153.09        3341.25           6746       27600.00    120676.40
  153.12        3341.50           6750       27887.00    121935.70
  153.15        3341.75           6754       27707.00    121145.80
  153.19        3342.00           6757       26859.00    117425.30
  153.22        3342.25           6761       25205.00    110170.70
  153.25        3342.50           6765       23684.00    103502.00
  153.28        3342.75           6769       22079.00     96467.59
  153.31        3343.00           6772       20884.00     91231.87
  153.34        3343.25           6776       19523.00     85270.62
  153.37        3343.50           6780       18316.00     79985.55
  153.40        3343.75           6784       17171.00     74973.32
  153.43        3344.00           6787       15893.00     69380.50
  153.46        3344.25           6791       14375.00     62739.58
  153.49        3344.50           6795       12983.00     56651.98
  153.53        3344.75           6799       11479.00     50076.82
  153.56        3345.00           6802       10320.00     45011.52
  153.59        3345.25           6806        8846.00     38571.54
  153.62        3345.50           6810        6986.00     30448.30
  153.65        3345.75           6814        4990.00     21735.07
  153.68        3346.00           6817        3564.00     15512.60
  153.71        3346.25           6821        2111.00      9174.46
  153.74        3346.50           6825        1256.00      5445.88
  153.77        3346.75           6828         615.00      2651.02
  153.80        3347.00           6832         244.00      1033.59
  153.83        3347.25           6836         107.00       436.36
  153.86        3347.50           6840          86.00       344.82
  153.90        3347.75           6843          65.00       253.27
  153.93        3348.00           6847          62.00       240.19
  153.96        3348.25           6851          58.00       222.76
  153.99        3348.50           6855          51.00       192.24
  154.02        3348.75           6858          56.00       214.04
  154.05        3349.00           6862          47.00       174.80
  154.08        3349.25           6866          46.00       170.45
  154.11        3349.50           6870          48.00       179.16
  154.14        3349.75           6873          42.00       153.01
  154.17        3350.00           6877          48.00       179.16
  154.20        3350.25           6881          48.00       179.16
  154.23        3350.50           6885          46.00       170.45
  154.26        3350.75           6888          49.00       183.52
  154.29        3351.00           6892          48.00       179.16
HL scan finished at 02:35:07
end
************************************************************
  HL Scan of (1) Internal mercury lamp
************************************************************
Integration time is 0.2294 seconds per sample
dh220619ElArenosillo 37.1 6.73 2.965129pr1023
************************************************************
Dead Time -------------------------  2.7E-08 
Number of Cycles Used -------------  4 
Starting Wavelength (Angstroms) ---  3331 
Final Wavelength (Angstoms) -------  3351 
Wavelength Increment (Angstroms) --  .25 
Filter Wheel #1 Position ---------- (1) Ground quartz diffuser (ND=2.32)
Filter Wheel #2 Position ---------- 



************************************************************
HL scan start time = 21:45:52
Dark Count =  6.3 


Time (GMT)  Wavelength (Ang)  Step Number  Raw Counts  Counts/Second

 1306.34        3331.00           6593          37.00       133.83
 1306.57        3331.25           6597          39.00       142.55
 1306.60        3331.50           6600          42.00       155.62
 1306.63        3331.75           6604          42.00       155.62
 1306.66        3332.00           6608          43.00       159.98
 1306.69        3332.25           6612          42.00       155.62
 1306.72        3332.50           6615          46.00       173.06
 1306.75        3332.75           6619          39.00       142.55
 1306.78        3333.00           6623          39.00       142.55
 1306.81        3333.25           6627          44.00       164.34
 1306.84        3333.50           6630          43.00       159.98
 1306.87        3333.75           6634          49.00       186.14
 1306.90        3334.00           6638          62.00       242.81
 1306.93        3334.25           6642          73.00       290.76
 1306.96        3334.50           6645          95.00       386.66
 1307.00        3334.75           6649         113.00       465.13
 1307.03        3335.00           6653         137.00       569.76
 1307.06        3335.25           6656         136.00       565.40
 1307.09        3335.50           6660         155.00       648.22
 1307.12        3335.75           6664         178.00       748.49
 1307.15        3336.00           6668         417.00      1790.41
 1307.18        3336.25           6671         885.00      3830.82
 1307.21        3336.50           6675        2059.00      8950.29
 1307.24        3336.75           6679        3351.00     14585.95
 1307.27        3337.00           6683        4804.00     20925.95
 1307.30        3337.25           6686        5838.00     25439.00
 1307.33        3337.50           6690        6862.00     29909.50
 1307.36        3337.75           6694        7764.00     33848.27
 1307.39        3338.00           6698        9342.00     40740.96
 1307.43        3338.25           6701       10731.00     46810.22
 1307.46        3338.50           6705       12376.00     54000.65
 1307.49        3338.75           6709       13910.00     60708.41
 1307.52        3339.00           6712       15418.00     67304.85
 1307.55        3339.25           6716       16871.00     73662.93
 1307.58        3339.50           6720       18473.00     80675.54
 1307.61        3339.75           6724       19764.00     86328.72
 1307.64        3340.00           6727       20676.00     90323.32
 1307.67        3340.25           6731       21858.00     95501.82
 1307.71        3340.50           6735       23223.00    101483.90
 1307.74        3340.75           6739       24474.00    106968.00
 1307.77        3341.00           6742       24655.00    107761.70
 1307.80        3341.25           6746       25502.00    111475.80
 1307.83        3341.50           6750       25780.00    112695.00
 1307.86        3341.75           6754       25673.00    112225.80
 1307.89        3342.00           6757       25103.00    109726.10
 1307.92        3342.25           6761       23572.00    103013.70
 1307.95        3342.50           6765       21904.00     95703.38
 1307.98        3342.75           6769       20207.00     88268.97
 1308.01        3343.00           6772       19164.00     83701.15
 1308.04        3343.25           6776       18029.00     78731.71
 1308.07        3343.50           6780       16818.00     73430.97
 1308.10        3343.75           6784       15560.00     67926.12
 1308.13        3344.00           6787       14543.00     63477.05
 1308.16        3344.25           6791       13243.00     57791.51
 1308.19        3344.50           6795       12005.00     52378.74
 1308.23        3344.75           6799       10623.00     46338.24
 1308.26        3345.00           6802        9674.00     42191.46
 1308.29        3345.25           6806        8044.00     35071.12
 1308.32        3345.50           6810        6610.00     28809.24
 1308.35        3345.75           6814        4768.00     20768.84
 1308.38        3346.00           6817        3361.00     14629.58
 1308.41        3346.25           6821        1985.00      8627.55
 1308.44        3346.50           6825        1216.00      5274.07
 1308.47        3346.75           6828         691.00      2984.98
 1308.50        3347.00           6832         266.00      1132.12
 1308.53        3347.25           6836         112.00       460.77
 1308.56        3347.50           6840          85.00       343.07
 1308.59        3347.75           6843          70.00       277.68
 1308.63        3348.00           6847          65.00       255.89
 1308.66        3348.25           6851          54.00       207.93
 1308.69        3348.50           6855          54.00       207.93
 1308.72        3348.75           6858          49.00       186.14
 1308.75        3349.00           6862          52.00       199.22
 1308.78        3349.25           6866          43.00       159.98
 1308.81        3349.50           6870          43.00       159.98
 1308.84        3349.75           6873          38.00       138.19
 1308.87        3350.00           6877          39.00       142.55
 1308.90        3350.25           6881          47.00       177.42
 1308.93        3350.50           6885          44.00       164.34
 1308.96        3350.75           6888          40.00       146.91
 1308.99        3351.00           6892          41.00       151.26
HL scan finished at 21:49:49
end
