************************************************************
  HL Scan of (1) Internal mercury lamp
************************************************************
Integration time is 0.2294 seconds per sample
dh270619ElArenosillo 37.1 6.73 3.018777pr1023
************************************************************
Dead Time -------------------------  2.7E-08 
Number of Cycles Used -------------  4 
Starting Wavelength (Angstroms) ---  3331 
Final Wavelength (Angstoms) -------  3351 
Wavelength Increment (Angstroms) --  .25 
Filter Wheel #1 Position ---------- (1) Ground quartz diffuser (ND=2.32)
Filter Wheel #2 Position ---------- 



************************************************************
HL scan start time = 02:28:11
Dark Count =  5 


Time (GMT)  Wavelength (Ang)  Step Number  Raw Counts  Counts/Second

  148.67        3331.00           6593          40.00       152.57
  148.89        3331.25           6597          37.00       139.49
  148.92        3331.50           6600          36.00       135.14
  148.95        3331.75           6604          44.00       170.01
  148.98        3332.00           6608          40.00       152.57
  149.01        3332.25           6612          44.00       170.01
  149.04        3332.50           6615          42.00       161.29
  149.07        3332.75           6619          46.00       178.73
  149.10        3333.00           6623          43.00       165.65
  149.13        3333.25           6627          46.00       178.73
  149.16        3333.50           6630          53.00       209.24
  149.19        3333.75           6634          56.00       222.32
  149.23        3334.00           6638          74.00       300.79
  149.26        3334.25           6642          82.00       335.66
  149.29        3334.50           6645         109.00       453.36
  149.32        3334.75           6649         129.00       540.55
  149.35        3335.00           6653         153.00       645.17
  149.38        3335.25           6656         167.00       706.20
  149.41        3335.50           6660         197.00       836.99
  149.44        3335.75           6664         206.00       876.22
  149.47        3336.00           6668         461.00      1987.90
  149.50        3336.25           6671         976.00      4233.27
  149.53        3336.50           6675        2364.00     10286.20
  149.56        3336.75           6679        4043.00     17610.82
  149.59        3337.00           6683        5623.00     24506.18
  149.62        3337.25           6686        6820.00     29731.79
  149.65        3337.50           6690        7892.00     34412.96
  149.68        3337.75           6694        8904.00     38833.20
  149.72        3338.00           6698       10526.00     45920.02
  149.75        3338.25           6701       12307.00     53704.68
  149.78        3338.50           6705       14338.00     62586.06
  149.81        3338.75           6709       15660.00     68369.33
  149.84        3339.00           6712       17455.00     76224.72
  149.87        3339.25           6716       18945.00     82747.88
  149.90        3339.50           6720       20747.00     90640.03
  149.93        3339.75           6724       22306.00     97470.65
  149.96        3340.00           6727       23366.00    102116.40
  149.99        3340.25           6731       24874.00    108727.60
  150.03        3340.50           6735       26487.00    115801.80
  150.06        3340.75           6739       27532.00    120386.30
  150.09        3341.00           6742       27937.00    122163.40
  150.12        3341.25           6746       28654.00    125309.90
  150.15        3341.50           6750       29038.00    126995.30
  150.18        3341.75           6754       28836.00    126108.70
  150.21        3342.00           6757       27942.00    122185.40
  150.24        3342.25           6761       26277.00    114880.60
  150.27        3342.50           6765       24154.00    105570.80
  150.30        3342.75           6769       22808.00     99670.65
  150.34        3343.00           6772       21420.00     93588.41
  150.37        3343.25           6776       20038.00     87534.44
  150.40        3343.50           6780       18545.00     80996.47
  150.43        3343.75           6784       17480.00     76334.15
  150.46        3344.00           6787       16415.00     71673.00
  150.49        3344.25           6791       14955.00     65284.99
  150.52        3344.50           6795       13365.00     58330.68
  150.55        3344.75           6799       11806.00     51514.50
  150.58        3345.00           6802       10358.00     45185.88
  150.61        3345.25           6806        9126.00     39803.00
  150.64        3345.50           6810        7499.00     32696.68
  150.67        3345.75           6814        5244.00     22851.93
  150.70        3346.00           6817        3698.00     16105.52
  150.73        3346.25           6821        2160.00      9396.45
  150.77        3346.50           6825        1327.00      5763.76
  150.80        3346.75           6828         711.00      3077.85
  150.83        3347.00           6832         273.00      1168.30
  150.86        3347.25           6836         115.00       479.52
  150.89        3347.50           6840          96.00       396.69
  150.92        3347.75           6843          78.00       318.22
  150.95        3348.00           6847          60.00       239.76
  150.98        3348.25           6851          61.00       244.12
  151.01        3348.50           6855          56.00       222.32
  151.04        3348.75           6858          44.00       170.01
  151.07        3349.00           6862          44.00       170.01
  151.10        3349.25           6866          49.00       191.81
  151.13        3349.50           6870          41.00       156.93
  151.16        3349.75           6873          47.00       183.09
  151.19        3350.00           6877          51.00       200.52
  151.22        3350.25           6881          44.00       170.01
  151.25        3350.50           6885          45.00       174.37
  151.28        3350.75           6888          51.00       200.52
  151.31        3351.00           6892          47.00       183.09
HL scan finished at 02:32:08
end
