************************************************************
  HL Scan of (1) Internal mercury lamp
************************************************************
Integration time is 0.2294 seconds per sample
dh270619ElArenosillo 37.1 6.73 3.018777pr1023
************************************************************
Dead Time -------------------------  2.7E-08 
Number of Cycles Used -------------  4 
Starting Wavelength (Angstroms) ---  3331 
Final Wavelength (Angstoms) -------  3351 
Wavelength Increment (Angstroms) --  .25 
Filter Wheel #1 Position ---------- (1) Ground quartz diffuser (ND=2.32)
Filter Wheel #2 Position ---------- 



************************************************************
HL scan start time = 02:28:11
Dark Count =  5 


Time (GMT)  Wavelength (Ang)  Step Number  Raw Counts  Counts/Second

  148.67        3331.00           6593          40.00       152.57
  148.89        3331.25           6597          37.00       139.49
  148.92        3331.50           6600          36.00       135.14
  148.95        3331.75           6604          44.00       170.01
  148.98        3332.00           6608          40.00       152.57
  149.01        3332.25           6612          44.00       170.01
  149.04        3332.50           6615          42.00       161.29
  149.07        3332.75           6619          46.00       178.73
  149.10        3333.00           6623          43.00       165.65
  149.13        3333.25           6627          46.00       178.73
  149.16        3333.50           6630          53.00       209.24
  149.19        3333.75           6634          56.00       222.32
  149.23        3334.00           6638          74.00       300.79
  149.26        3334.25           6642          82.00       335.66
  149.29        3334.50           6645         109.00       453.36
  149.32        3334.75           6649         129.00       540.55
  149.35        3335.00           6653         153.00       645.17
  149.38        3335.25           6656         167.00       706.20
  149.41        3335.50           6660         197.00       836.99
  149.44        3335.75           6664         206.00       876.22
  149.47        3336.00           6668         461.00      1987.90
  149.50        3336.25           6671         976.00      4233.27
  149.53        3336.50           6675        2364.00     10286.20
  149.56        3336.75           6679        4043.00     17610.82
  149.59        3337.00           6683        5623.00     24506.18
  149.62        3337.25           6686        6820.00     29731.79
  149.65        3337.50           6690        7892.00     34412.96
  149.68        3337.75           6694        8904.00     38833.20
  149.72        3338.00           6698       10526.00     45920.02
  149.75        3338.25           6701       12307.00     53704.68
  149.78        3338.50           6705       14338.00     62586.06
  149.81        3338.75           6709       15660.00     68369.33
  149.84        3339.00           6712       17455.00     76224.72
  149.87        3339.25           6716       18945.00     82747.88
  149.90        3339.50           6720       20747.00     90640.03
  149.93        3339.75           6724       22306.00     97470.65
  149.96        3340.00           6727       23366.00    102116.40
  149.99        3340.25           6731       24874.00    108727.60
  150.03        3340.50           6735       26487.00    115801.80
  150.06        3340.75           6739       27532.00    120386.30
  150.09        3341.00           6742       27937.00    122163.40
  150.12        3341.25           6746       28654.00    125309.90
  150.15        3341.50           6750       29038.00    126995.30
  150.18        3341.75           6754       28836.00    126108.70
  150.21        3342.00           6757       27942.00    122185.40
  150.24        3342.25           6761       26277.00    114880.60
  150.27        3342.50           6765       24154.00    105570.80
  150.30        3342.75           6769       22808.00     99670.65
  150.34        3343.00           6772       21420.00     93588.41
  150.37        3343.25           6776       20038.00     87534.44
  150.40        3343.50           6780       18545.00     80996.47
  150.43        3343.75           6784       17480.00     76334.15
  150.46        3344.00           6787       16415.00     71673.00
  150.49        3344.25           6791       14955.00     65284.99
  150.52        3344.50           6795       13365.00     58330.68
  150.55        3344.75           6799       11806.00     51514.50
  150.58        3345.00           6802       10358.00     45185.88
  150.61        3345.25           6806        9126.00     39803.00
  150.64        3345.50           6810        7499.00     32696.68
  150.67        3345.75           6814        5244.00     22851.93
  150.70        3346.00           6817        3698.00     16105.52
  150.73        3346.25           6821        2160.00      9396.45
  150.77        3346.50           6825        1327.00      5763.76
  150.80        3346.75           6828         711.00      3077.85
  150.83        3347.00           6832         273.00      1168.30
  150.86        3347.25           6836         115.00       479.52
  150.89        3347.50           6840          96.00       396.69
  150.92        3347.75           6843          78.00       318.22
  150.95        3348.00           6847          60.00       239.76
  150.98        3348.25           6851          61.00       244.12
  151.01        3348.50           6855          56.00       222.32
  151.04        3348.75           6858          44.00       170.01
  151.07        3349.00           6862          44.00       170.01
  151.10        3349.25           6866          49.00       191.81
  151.13        3349.50           6870          41.00       156.93
  151.16        3349.75           6873          47.00       183.09
  151.19        3350.00           6877          51.00       200.52
  151.22        3350.25           6881          44.00       170.01
  151.25        3350.50           6885          45.00       174.37
  151.28        3350.75           6888          51.00       200.52
  151.31        3351.00           6892          47.00       183.09
HL scan finished at 02:32:08
end
************************************************************
  HL Scan of (1) Internal mercury lamp
************************************************************
Integration time is 0.2294 seconds per sample
dh270619ElArenosillo 37.1 6.73 3.179721pr1023
************************************************************
Dead Time -------------------------  2.7E-08 
Number of Cycles Used -------------  4 
Starting Wavelength (Angstroms) ---  3331 
Final Wavelength (Angstoms) -------  3351 
Wavelength Increment (Angstroms) --  .25 
Filter Wheel #1 Position ---------- (1) Ground quartz diffuser (ND=2.32)
Filter Wheel #2 Position ---------- 



************************************************************
HL scan start time = 20:43:22
Dark Count =  5.3 


Time (GMT)  Wavelength (Ang)  Step Number  Raw Counts  Counts/Second

 1243.85        3331.00           6593          46.00       177.42
 1244.07        3331.25           6597          44.00       168.70
 1244.11        3331.50           6600          45.00       173.06
 1244.14        3331.75           6604          47.00       181.78
 1244.17        3332.00           6608          48.00       186.14
 1244.20        3332.25           6612          50.00       194.86
 1244.23        3332.50           6615          45.00       173.06
 1244.26        3332.75           6619          47.00       181.78
 1244.29        3333.00           6623          50.00       194.86
 1244.32        3333.25           6627          51.00       199.22
 1244.35        3333.50           6630          55.00       216.65
 1244.38        3333.75           6634          65.00       260.25
 1244.41        3334.00           6638          78.00       316.92
 1244.44        3334.25           6642          85.00       347.43
 1244.47        3334.50           6645         107.00       443.34
 1244.50        3334.75           6649         131.00       547.96
 1244.53        3335.00           6653         155.00       652.58
 1244.56        3335.25           6656         163.00       687.46
 1244.60        3335.50           6660         190.00       805.16
 1244.63        3335.75           6664         225.00       957.74
 1244.66        3336.00           6668         469.00      2021.47
 1244.69        3336.25           6671        1088.00      4720.31
 1244.72        3336.50           6675        2678.00     11654.50
 1244.75        3336.75           6679        4389.00     19119.28
 1244.78        3337.00           6683        6057.00     26399.37
 1244.81        3337.25           6686        7029.00     30643.04
 1244.84        3337.50           6690        8377.00     36529.91
 1244.87        3337.75           6694        9732.00     42449.24
 1244.90        3338.00           6698       11706.00     51076.06
 1244.93        3338.25           6701       13270.00     57913.94
 1244.96        3338.50           6705       14865.00     64889.97
 1244.99        3338.75           6709       17348.00     75755.06
 1245.02        3339.00           6712       18560.00     81060.83
 1245.05        3339.25           6716       20349.00     88895.31
 1245.09        3339.50           6720       22135.00     96719.99
 1245.12        3339.75           6724       23705.00    103601.10
 1245.15        3340.00           6727       25045.00    109476.10
 1245.18        3340.25           6731       26765.00    117020.00
 1245.21        3340.50           6735       28073.00    122758.90
 1245.24        3340.75           6739       29250.00    127924.50
 1245.27        3341.00           6742       29937.00    130940.30
 1245.30        3341.25           6746       30457.00    133223.30
 1245.33        3341.50           6750       30871.00    135041.20
 1245.36        3341.75           6754       30360.00    132797.40
 1245.39        3342.00           6757       29639.00    129632.10
 1245.43        3342.25           6761       27971.00    122311.30
 1245.46        3342.50           6765       26237.00    114703.90
 1245.49        3342.75           6769       24277.00    106108.70
 1245.52        3343.00           6772       23048.00    100721.20
 1245.55        3343.25           6776       20957.00     91558.68
 1245.58        3343.50           6780       19447.00     84944.81
 1245.61        3343.75           6784       18591.00     81196.56
 1245.64        3344.00           6787       17675.00     77186.41
 1245.67        3344.25           6791       15947.00     69623.79
 1245.71        3344.50           6795       14049.00     61320.71
 1245.74        3344.75           6799       12448.00     54319.81
 1245.77        3345.00           6802       10996.00     47972.73
 1245.80        3345.25           6806        9470.00     41304.54
 1245.83        3345.50           6810        7430.00     32394.06
 1245.86        3345.75           6814        4999.00     21781.34
 1245.89        3346.00           6817        3854.00     16784.85
 1245.92        3346.25           6821        2354.00     10241.28
 1245.95        3346.50           6825        1504.00      6534.28
 1245.98        3346.75           6828         690.00      2984.98
 1246.01        3347.00           6832         283.00      1210.59
 1246.04        3347.25           6836         126.00       526.16
 1246.07        3347.50           6840          95.00       391.02
 1246.10        3347.75           6843          74.00       299.48
 1246.13        3348.00           6847          71.00       286.40
 1246.16        3348.25           6851          59.00       234.09
 1246.19        3348.50           6855          57.00       225.37
 1246.22        3348.75           6858          47.00       181.78
 1246.26        3349.00           6862          47.00       181.78
 1246.29        3349.25           6866          45.00       173.06
 1246.32        3349.50           6870          46.00       177.42
 1246.35        3349.75           6873          48.00       186.14
 1246.38        3350.00           6877          41.00       155.62
 1246.41        3350.25           6881          41.00       155.62
 1246.44        3350.50           6885          53.00       207.93
 1246.47        3350.75           6888          46.00       177.42
 1246.50        3351.00           6892          41.00       155.62
HL scan finished at 20:47:19
end
