************************************************************
  HL Scan of (1) Internal mercury lamp
************************************************************
Integration time is 0.2294 seconds per sample
dh190619ElArenosillo 37.1 6.73 3.072425pr1023
************************************************************
Dead Time -------------------------  2.7E-08 
Number of Cycles Used -------------  4 
Starting Wavelength (Angstroms) ---  3331 
Final Wavelength (Angstoms) -------  3351 
Wavelength Increment (Angstroms) --  .25 
Filter Wheel #1 Position ---------- (1) Ground quartz diffuser (ND=2.32)
Filter Wheel #2 Position ---------- 



************************************************************
HL scan start time = 02:34:19
Dark Count =  5.4 


Time (GMT)  Wavelength (Ang)  Step Number  Raw Counts  Counts/Second

  154.81        3331.00           6593          41.00       155.19
  155.03        3331.25           6597          44.00       168.27
  155.06        3331.50           6600          42.00       159.55
  155.09        3331.75           6604          42.00       159.55
  155.12        3332.00           6608          45.00       172.63
  155.15        3332.25           6612          40.00       150.83
  155.18        3332.50           6615          43.00       163.91
  155.21        3332.75           6619          46.00       176.98
  155.24        3333.00           6623          52.00       203.14
  155.27        3333.25           6627          35.00       129.03
  155.30        3333.50           6630          52.00       203.14
  155.33        3333.75           6634          82.00       333.92
  155.36        3334.00           6638          64.00       255.45
  155.39        3334.25           6642          77.00       312.12
  155.42        3334.50           6645         103.00       425.46
  155.46        3334.75           6649         117.00       486.49
  155.49        3335.00           6653         138.00       578.04
  155.52        3335.25           6656         148.00       621.63
  155.55        3335.50           6660         165.00       695.74
  155.58        3335.75           6664         185.00       782.93
  155.61        3336.00           6668         451.00      1942.56
  155.64        3336.25           6671         941.00      4078.91
  155.67        3336.50           6675        2226.00      9682.57
  155.70        3336.75           6679        3677.00     16012.15
  155.73        3337.00           6683        5274.00     22981.13
  155.76        3337.25           6686        6274.00     27346.25
  155.79        3337.50           6690        7313.00     31882.71
  155.82        3337.75           6694        8265.00     36040.29
  155.85        3338.00           6698        9841.00     42925.05
  155.88        3338.25           6701       11430.00     49869.20
  155.92        3338.50           6705       13256.00     57852.28
  155.95        3338.75           6709       14829.00     64732.05
  155.98        3339.00           6712       16405.00     71627.50
  156.01        3339.25           6716       17928.00     78293.50
  156.04        3339.50           6720       19394.00     84712.28
  156.07        3339.75           6724       20870.00     91177.10
  156.10        3340.00           6727       21903.00     95702.96
  156.13        3340.25           6731       23319.00    101908.60
  156.16        3340.50           6735       24683.00    107888.40
  156.19        3340.75           6739       25847.00    112992.90
  156.23        3341.00           6742       26054.00    113900.70
  156.26        3341.25           6746       27008.00    118085.60
  156.29        3341.50           6750       27434.00    119954.60
  156.32        3341.75           6754       27113.00    118546.20
  156.35        3342.00           6757       26390.00    115374.50
  156.38        3342.25           6761       24780.00    108313.70
  156.41        3342.50           6765       23099.00    100944.30
  156.44        3342.75           6769       21313.00     93117.87
  156.47        3343.00           6772       20178.00     88145.89
  156.50        3343.25           6776       19071.00     83297.86
  156.53        3343.50           6780       17618.00     76936.47
  156.56        3343.75           6784       16585.00     72415.21
  156.59        3344.00           6787       15572.00     67982.56
  156.62        3344.25           6791       14090.00     61499.60
  156.65        3344.50           6795       12610.00     55027.65
  156.68        3344.75           6799       11133.00     48571.07
  156.72        3345.00           6802       10117.00     44131.02
  156.75        3345.25           6806        8555.00     37306.96
  156.78        3345.50           6810        7084.00     30882.76
  156.81        3345.75           6814        5140.00     22396.28
  156.84        3346.00           6817        3576.00     15571.50
  156.87        3346.25           6821        2141.00      9311.85
  156.90        3346.50           6825        1367.00      5936.44
  156.93        3346.75           6828         715.00      3093.55
  156.96        3347.00           6832         304.00      1301.70
  156.99        3347.25           6836         121.00       503.93
  157.02        3347.50           6840          96.00       394.95
  157.05        3347.75           6843          68.00       272.89
  157.09        3348.00           6847          62.00       246.73
  157.12        3348.25           6851          58.00       229.30
  157.15        3348.50           6855          51.00       198.78
  157.18        3348.75           6858          57.00       224.94
  157.21        3349.00           6862          43.00       163.91
  157.24        3349.25           6866          45.00       172.63
  157.27        3349.50           6870          45.00       172.63
  157.30        3349.75           6873          47.00       181.34
  157.33        3350.00           6877          43.00       163.91
  157.36        3350.25           6881          44.00       168.27
  157.39        3350.50           6885          50.00       194.42
  157.42        3350.75           6888          42.00       159.55
  157.45        3351.00           6892          45.00       172.63
HL scan finished at 02:38:17
end
