************************************************************
  HL Scan of (1) Internal mercury lamp
************************************************************
Integration time is 0.2294 seconds per sample
dh240619ElArenosillo 37.1 6.73 2.965129pr1023
************************************************************
Dead Time -------------------------  2.7E-08 
Number of Cycles Used -------------  4 
Starting Wavelength (Angstroms) ---  3331 
Final Wavelength (Angstoms) -------  3351 
Wavelength Increment (Angstroms) --  .25 
Filter Wheel #1 Position ---------- (1) Ground quartz diffuser (ND=2.32)
Filter Wheel #2 Position ---------- 



************************************************************
HL scan start time = 02:24:09
Dark Count =  6.1 


Time (GMT)  Wavelength (Ang)  Step Number  Raw Counts  Counts/Second

  144.63        3331.00           6593          36.00       130.34
  144.85        3331.25           6597          41.00       152.14
  144.88        3331.50           6600          42.00       156.50
  144.91        3331.75           6604          43.00       160.86
  144.94        3332.00           6608          45.00       169.57
  144.97        3332.25           6612          44.00       165.21
  145.01        3332.50           6615          40.00       147.78
  145.04        3332.75           6619          46.00       173.93
  145.07        3333.00           6623          45.00       169.57
  145.11        3333.25           6627          42.00       156.50
  145.14        3333.50           6630          48.00       182.65
  145.17        3333.75           6634          47.00       178.29
  145.20        3334.00           6638          62.00       243.68
  145.23        3334.25           6642          74.00       295.99
  145.26        3334.50           6645          97.00       396.26
  145.29        3334.75           6649         127.00       527.03
  145.32        3335.00           6653         133.00       553.19
  145.35        3335.25           6656         147.00       614.22
  145.38        3335.50           6660         186.00       784.24
  145.42        3335.75           6664         184.00       775.52
  145.45        3336.00           6668         536.00      2310.08
  145.48        3336.25           6671        1344.00      5833.09
  145.51        3336.50           6675        2598.00     11302.05
  145.54        3336.75           6679        3804.00     16563.20
  145.57        3337.00           6683        5348.00     23301.06
  145.60        3337.25           6686        6334.00     27605.14
  145.63        3337.50           6690        7433.00     32403.67
  145.66        3337.75           6694        8591.00     37461.15
  145.69        3338.00           6698        9852.00     42970.06
  145.72        3338.25           6701       11385.00     49669.44
  145.75        3338.50           6705       13015.00     56795.40
  145.78        3338.75           6709       14481.00     63206.73
  145.82        3339.00           6712       15678.00     68443.28
  145.85        3339.25           6716       17249.00     75318.23
  145.88        3339.50           6720       18888.00     82493.49
  145.91        3339.75           6724       20327.00     88795.46
  145.94        3340.00           6727       21421.00     93587.98
  145.97        3340.25           6731       22743.00     99380.96
  146.00        3340.50           6735       23960.00    104715.40
  146.03        3340.75           6739       24981.00    109192.00
  146.06        3341.00           6742       25744.00    112538.00
  146.09        3341.25           6746       26179.00    114446.00
  146.12        3341.50           6750       26442.00    115599.60
  146.15        3341.75           6754       25667.00    112200.30
  146.19        3342.00           6757       25142.00    109898.00
  146.22        3342.25           6761       23853.00    104246.40
  146.25        3342.50           6765       22441.00     98057.44
  146.28        3342.75           6769       20344.00     88869.93
  146.31        3343.00           6772       19126.00     83535.63
  146.34        3343.25           6776       18098.00     79034.66
  146.37        3343.50           6780       17455.00     76219.91
  146.40        3343.75           6784       16086.00     70228.51
  146.43        3344.00           6787       15076.00     65809.52
  146.46        3344.25           6791       13801.00     60232.58
  146.49        3344.50           6795       12168.00     53092.19
  146.52        3344.75           6799       10700.00     46675.61
  146.55        3345.00           6802        9413.00     41052.02
  146.58        3345.25           6806        8030.00     35010.85
  146.62        3345.50           6810        6507.00     28360.42
  146.65        3345.75           6814        4871.00     21219.22
  146.68        3346.00           6817        3346.00     14565.01
  146.71        3346.25           6821        1772.00      7699.51
  146.74        3346.50           6825        1101.00      4773.50
  146.77        3346.75           6828         541.00      2331.88
  146.80        3347.00           6832         218.00       923.74
  146.83        3347.25           6836         101.00       413.69
  146.86        3347.50           6840          79.00       317.79
  146.89        3347.75           6843          61.00       239.32
  146.92        3348.00           6847          59.00       230.60
  146.95        3348.25           6851          56.00       217.53
  146.98        3348.50           6855          54.00       208.81
  147.01        3348.75           6858          51.00       195.73
  147.04        3349.00           6862          47.00       178.29
  147.08        3349.25           6866          47.00       178.29
  147.11        3349.50           6870          43.00       160.86
  147.14        3349.75           6873          42.00       156.50
  147.17        3350.00           6877          49.00       187.01
  147.20        3350.25           6881          45.00       169.57
  147.23        3350.50           6885          47.00       178.29
  147.26        3350.75           6888          44.00       165.21
  147.29        3351.00           6892          49.00       187.01
HL scan finished at 02:28:07
end
************************************************************
  HL Scan of (1) Internal mercury lamp
************************************************************
Integration time is 0.2294 seconds per sample
dh240619ElArenosillo 37.1 6.73 3.126073pr1023
************************************************************
Dead Time -------------------------  2.7E-08 
Number of Cycles Used -------------  4 
Starting Wavelength (Angstroms) ---  3331 
Final Wavelength (Angstoms) -------  3351 
Wavelength Increment (Angstroms) --  .25 
Filter Wheel #1 Position ---------- (1) Ground quartz diffuser (ND=2.32)
Filter Wheel #2 Position ---------- 



************************************************************
HL scan start time = 20:43:29
Dark Count =  5.9 


Time (GMT)  Wavelength (Ang)  Step Number  Raw Counts  Counts/Second

 1243.97        3331.00           6593          42.00       157.37
 1244.19        3331.25           6597          42.00       157.37
 1244.22        3331.50           6600          38.00       139.93
 1244.25        3331.75           6604          49.00       187.88
 1244.28        3332.00           6608          44.00       166.09
 1244.31        3332.25           6612          51.00       196.60
 1244.34        3332.50           6615          51.00       196.60
 1244.38        3332.75           6619          41.00       153.01
 1244.41        3333.00           6623          46.00       174.80
 1244.44        3333.25           6627          53.00       205.32
 1244.47        3333.50           6630          47.00       179.16
 1244.50        3333.75           6634          61.00       240.19
 1244.53        3334.00           6638          72.00       288.15
 1244.56        3334.25           6642          83.00       336.10
 1244.59        3334.50           6645         106.00       436.36
 1244.62        3334.75           6649         130.00       540.98
 1244.65        3335.00           6653         154.00       645.61
 1244.68        3335.25           6656         158.00       663.05
 1244.72        3335.50           6660         173.00       728.44
 1244.75        3335.75           6664         231.00       981.28
 1244.78        3336.00           6668         488.00      2101.69
 1244.81        3336.25           6671         973.00      4216.26
 1244.84        3336.50           6675        2460.00     10701.00
 1244.87        3336.75           6679        4062.00     17689.79
 1244.90        3337.00           6683        5816.00     25344.71
 1244.93        3337.25           6686        6810.00     29684.20
 1244.96        3337.50           6690        7911.00     34492.01
 1244.99        3337.75           6694        9277.00     40458.74
 1245.02        3338.00           6698       10965.00     47834.63
 1245.05        3338.25           6701       12537.00     54706.29
 1245.08        3338.50           6705       13989.00     61055.67
 1245.11        3338.75           6709       16539.00     72211.71
 1245.14        3339.00           6712       17703.00     77306.36
 1245.17        3339.25           6716       19519.00     85257.50
 1245.20        3339.50           6720       21113.00     92239.46
 1245.24        3339.75           6724       22653.00     98987.41
 1245.27        3340.00           6727       23873.00    104334.90
 1245.30        3340.25           6731       25620.00    111995.10
 1245.33        3340.50           6735       26971.00    117921.10
 1245.36        3340.75           6739       28068.00    122734.30
 1245.39        3341.00           6742       28487.00    124573.00
 1245.42        3341.25           6746       29348.00    128352.10
 1245.45        3341.50           6750       29648.00    129669.00
 1245.48        3341.75           6754       29303.00    128154.50
 1245.51        3342.00           6757       28473.00    124511.60
 1245.54        3342.25           6761       26915.00    117675.40
 1245.57        3342.50           6765       25212.00    110205.80
 1245.60        3342.75           6769       23503.00    102713.00
 1245.63        3343.00           6772       22299.00     97436.04
 1245.66        3343.25           6776       19980.00     87276.48
 1245.69        3343.50           6780       18848.00     82319.21
 1245.72        3343.75           6784       17946.00     78370.10
 1245.76        3344.00           6787       17037.00     74391.21
 1245.79        3344.25           6791       15411.00     67275.97
 1245.82        3344.50           6795       13564.00     59196.98
 1245.85        3344.75           6799       11931.00     52056.99
 1245.88        3345.00           6802       10706.00     46702.71
 1245.91        3345.25           6806        9225.00     40231.56
 1245.94        3345.50           6810        7388.00     32208.03
 1245.97        3345.75           6814        4930.00     21477.58
 1246.00        3346.00           6817        3832.00     16686.24
 1246.03        3346.25           6821        2236.00      9724.00
 1246.06        3346.50           6825        1544.00      6706.10
 1246.09        3346.75           6828         717.00      3100.09
 1246.12        3347.00           6832         305.00      1303.88
 1246.15        3347.25           6836         116.00       479.95
 1246.18        3347.50           6840          92.00       375.33
 1246.21        3347.75           6843          68.00       270.71
 1246.25        3348.00           6847          69.00       275.07
 1246.28        3348.25           6851          47.00       179.16
 1246.31        3348.50           6855          51.00       196.60
 1246.34        3348.75           6858          52.00       200.96
 1246.37        3349.00           6862          47.00       179.16
 1246.40        3349.25           6866          46.00       174.80
 1246.43        3349.50           6870          44.00       166.09
 1246.46        3349.75           6873          40.00       148.65
 1246.49        3350.00           6877          46.00       174.80
 1246.52        3350.25           6881          43.00       161.73
 1246.55        3350.50           6885          42.00       157.37
 1246.58        3350.75           6888          41.00       153.01
 1246.61        3351.00           6892          45.00       170.45
HL scan finished at 20:47:26
end
