************************************************************
  HL Scan of (1) Internal mercury lamp
************************************************************
Integration time is 0.2294 seconds per sample
dh190619ElArenosillo 37.1 6.73 3.072425pr1023
************************************************************
Dead Time -------------------------  2.7E-08 
Number of Cycles Used -------------  4 
Starting Wavelength (Angstroms) ---  3331 
Final Wavelength (Angstoms) -------  3351 
Wavelength Increment (Angstroms) --  .25 
Filter Wheel #1 Position ---------- (1) Ground quartz diffuser (ND=2.32)
Filter Wheel #2 Position ---------- 



************************************************************
HL scan start time = 02:34:19
Dark Count =  5.4 


Time (GMT)  Wavelength (Ang)  Step Number  Raw Counts  Counts/Second

  154.81        3331.00           6593          41.00       155.19
  155.03        3331.25           6597          44.00       168.27
  155.06        3331.50           6600          42.00       159.55
  155.09        3331.75           6604          42.00       159.55
  155.12        3332.00           6608          45.00       172.63
  155.15        3332.25           6612          40.00       150.83
  155.18        3332.50           6615          43.00       163.91
  155.21        3332.75           6619          46.00       176.98
  155.24        3333.00           6623          52.00       203.14
  155.27        3333.25           6627          35.00       129.03
  155.30        3333.50           6630          52.00       203.14
  155.33        3333.75           6634          82.00       333.92
  155.36        3334.00           6638          64.00       255.45
  155.39        3334.25           6642          77.00       312.12
  155.42        3334.50           6645         103.00       425.46
  155.46        3334.75           6649         117.00       486.49
  155.49        3335.00           6653         138.00       578.04
  155.52        3335.25           6656         148.00       621.63
  155.55        3335.50           6660         165.00       695.74
  155.58        3335.75           6664         185.00       782.93
  155.61        3336.00           6668         451.00      1942.56
  155.64        3336.25           6671         941.00      4078.91
  155.67        3336.50           6675        2226.00      9682.57
  155.70        3336.75           6679        3677.00     16012.15
  155.73        3337.00           6683        5274.00     22981.13
  155.76        3337.25           6686        6274.00     27346.25
  155.79        3337.50           6690        7313.00     31882.71
  155.82        3337.75           6694        8265.00     36040.29
  155.85        3338.00           6698        9841.00     42925.05
  155.88        3338.25           6701       11430.00     49869.20
  155.92        3338.50           6705       13256.00     57852.28
  155.95        3338.75           6709       14829.00     64732.05
  155.98        3339.00           6712       16405.00     71627.50
  156.01        3339.25           6716       17928.00     78293.50
  156.04        3339.50           6720       19394.00     84712.28
  156.07        3339.75           6724       20870.00     91177.10
  156.10        3340.00           6727       21903.00     95702.96
  156.13        3340.25           6731       23319.00    101908.60
  156.16        3340.50           6735       24683.00    107888.40
  156.19        3340.75           6739       25847.00    112992.90
  156.23        3341.00           6742       26054.00    113900.70
  156.26        3341.25           6746       27008.00    118085.60
  156.29        3341.50           6750       27434.00    119954.60
  156.32        3341.75           6754       27113.00    118546.20
  156.35        3342.00           6757       26390.00    115374.50
  156.38        3342.25           6761       24780.00    108313.70
  156.41        3342.50           6765       23099.00    100944.30
  156.44        3342.75           6769       21313.00     93117.87
  156.47        3343.00           6772       20178.00     88145.89
  156.50        3343.25           6776       19071.00     83297.86
  156.53        3343.50           6780       17618.00     76936.47
  156.56        3343.75           6784       16585.00     72415.21
  156.59        3344.00           6787       15572.00     67982.56
  156.62        3344.25           6791       14090.00     61499.60
  156.65        3344.50           6795       12610.00     55027.65
  156.68        3344.75           6799       11133.00     48571.07
  156.72        3345.00           6802       10117.00     44131.02
  156.75        3345.25           6806        8555.00     37306.96
  156.78        3345.50           6810        7084.00     30882.76
  156.81        3345.75           6814        5140.00     22396.28
  156.84        3346.00           6817        3576.00     15571.50
  156.87        3346.25           6821        2141.00      9311.85
  156.90        3346.50           6825        1367.00      5936.44
  156.93        3346.75           6828         715.00      3093.55
  156.96        3347.00           6832         304.00      1301.70
  156.99        3347.25           6836         121.00       503.93
  157.02        3347.50           6840          96.00       394.95
  157.05        3347.75           6843          68.00       272.89
  157.09        3348.00           6847          62.00       246.73
  157.12        3348.25           6851          58.00       229.30
  157.15        3348.50           6855          51.00       198.78
  157.18        3348.75           6858          57.00       224.94
  157.21        3349.00           6862          43.00       163.91
  157.24        3349.25           6866          45.00       172.63
  157.27        3349.50           6870          45.00       172.63
  157.30        3349.75           6873          47.00       181.34
  157.33        3350.00           6877          43.00       163.91
  157.36        3350.25           6881          44.00       168.27
  157.39        3350.50           6885          50.00       194.42
  157.42        3350.75           6888          42.00       159.55
  157.45        3351.00           6892          45.00       172.63
HL scan finished at 02:38:17
end
************************************************************
  HL Scan of (1) Internal mercury lamp
************************************************************
Integration time is 0.2294 seconds per sample
dh190619ElArenosillo 37.1 6.73 2.965129pr1023
************************************************************
Dead Time -------------------------  2.7E-08 
Number of Cycles Used -------------  4 
Starting Wavelength (Angstroms) ---  3331 
Final Wavelength (Angstoms) -------  3351 
Wavelength Increment (Angstroms) --  .25 
Filter Wheel #1 Position ---------- (1) Ground quartz diffuser (ND=2.32)
Filter Wheel #2 Position ---------- 



************************************************************
HL scan start time = 21:50:01
Dark Count =  4.5 


Time (GMT)  Wavelength (Ang)  Step Number  Raw Counts  Counts/Second

 1310.50        3331.00           6593          36.00       137.32
 1310.72        3331.25           6597          39.00       150.39
 1310.75        3331.50           6600          40.00       154.75
 1310.78        3331.75           6604          42.00       163.47
 1310.81        3332.00           6608          41.00       159.11
 1310.84        3332.25           6612          44.00       172.19
 1310.87        3332.50           6615          43.00       167.83
 1310.90        3332.75           6619          40.00       154.75
 1310.94        3333.00           6623          43.00       167.83
 1310.97        3333.25           6627          45.00       176.55
 1311.00        3333.50           6630          47.00       185.27
 1311.03        3333.75           6634          51.00       202.70
 1311.06        3334.00           6638          65.00       263.73
 1311.09        3334.25           6642          72.00       294.25
 1311.12        3334.50           6645          88.00       364.00
 1311.15        3334.75           6649         117.00       490.42
 1311.18        3335.00           6653         135.00       568.88
 1311.21        3335.25           6656         153.00       647.35
 1311.24        3335.50           6660         162.00       686.59
 1311.27        3335.75           6664         188.00       799.93
 1311.30        3336.00           6668         458.00      1977.00
 1311.34        3336.25           6671         876.00      3799.43
 1311.37        3336.50           6675        2099.00      9132.59
 1311.40        3336.75           6679        3490.00     15200.22
 1311.43        3337.00           6683        5003.00     21802.28
 1311.46        3337.25           6686        5763.00     25119.47
 1311.49        3337.50           6690        6807.00     29677.22
 1311.52        3337.75           6694        7642.00     33323.35
 1311.55        3338.00           6698        9407.00     41032.80
 1311.58        3338.25           6701       10847.00     47325.04
 1311.61        3338.50           6705       12652.00     55215.21
 1311.64        3338.75           6709       14142.00     61730.96
 1311.67        3339.00           6712       15458.00     67487.73
 1311.70        3339.25           6716       16865.00     73644.55
 1311.73        3339.50           6720       18500.00     80801.63
 1311.77        3339.75           6724       19932.00     87072.38
 1311.80        3340.00           6727       21075.00     92079.12
 1311.83        3340.25           6731       22591.00     98721.82
 1311.86        3340.50           6735       23669.00    103446.80
 1311.89        3340.75           6739       24619.00    107611.70
 1311.92        3341.00           6742       24834.00    108554.40
 1311.95        3341.25           6746       25547.00    111681.10
 1311.98        3341.50           6750       26228.00    114667.90
 1312.01        3341.75           6754       25806.00    112817.00
 1312.04        3342.00           6757       25177.00    110058.50
 1312.07        3342.25           6761       23574.00    103030.30
 1312.10        3342.50           6765       22041.00     96311.59
 1312.13        3342.75           6769       20736.00     90594.04
 1312.16        3343.00           6772       19201.00     83871.06
 1312.20        3343.25           6776       18014.00     78673.93
 1312.23        3343.50           6780       16873.00     73679.56
 1312.26        3343.75           6784       15838.00     69150.35
 1312.29        3344.00           6787       14841.00     64788.48
 1312.32        3344.25           6791       13543.00     59111.27
 1312.35        3344.50           6795       12079.00     52710.10
 1312.38        3344.75           6799       10496.00     45791.11
 1312.41        3345.00           6802        9523.00     41539.60
 1312.44        3345.25           6806        8022.00     34982.90
 1312.48        3345.50           6810        6552.00     28563.87
 1312.51        3345.75           6814        4669.00     20344.65
 1312.54        3346.00           6817        3333.00     14515.28
 1312.57        3346.25           6821        2036.00      8857.83
 1312.60        3346.50           6825        1354.00      5883.67
 1312.63        3346.75           6828         696.00      3014.63
 1312.66        3347.00           6832         250.00      1070.21
 1312.69        3347.25           6836         116.00       486.06
 1312.72        3347.50           6840          88.00       364.00
 1312.75        3347.75           6843          67.00       272.45
 1312.78        3348.00           6847          62.00       250.66
 1312.81        3348.25           6851          49.00       193.99
 1312.84        3348.50           6855          54.00       215.78
 1312.87        3348.75           6858          44.00       172.19
 1312.90        3349.00           6862          46.00       180.91
 1312.93        3349.25           6866          43.00       167.83
 1312.96        3349.50           6870          39.00       150.39
 1313.00        3349.75           6873          53.00       211.42
 1313.04        3350.00           6877          44.00       172.19
 1313.08        3350.25           6881          42.00       163.47
 1313.11        3350.50           6885          38.00       146.03
 1313.15        3350.75           6888          47.00       185.27
 1313.19        3351.00           6892          43.00       167.83
HL scan finished at 21:54:01
end
