************************************************************
  HL Scan of (1) Internal mercury lamp
************************************************************
Integration time is 0.2294 seconds per sample
dh260619ElArenosillo 37.1 6.73 3.072425pr1023
************************************************************
Dead Time -------------------------  2.7E-08 
Number of Cycles Used -------------  4 
Starting Wavelength (Angstroms) ---  3331 
Final Wavelength (Angstoms) -------  3351 
Wavelength Increment (Angstroms) --  .25 
Filter Wheel #1 Position ---------- (1) Ground quartz diffuser (ND=2.32)
Filter Wheel #2 Position ---------- 



************************************************************
HL scan start time = 02:25:22
Dark Count =  6 


Time (GMT)  Wavelength (Ang)  Step Number  Raw Counts  Counts/Second

  145.85        3331.00           6593          46.00       174.37
  146.08        3331.25           6597          40.00       148.21
  146.11        3331.50           6600          50.00       191.81
  146.14        3331.75           6604          44.00       165.65
  146.17        3332.00           6608          44.00       165.65
  146.20        3332.25           6612          45.00       170.01
  146.23        3332.50           6615          48.00       183.09
  146.26        3332.75           6619          43.00       161.29
  146.29        3333.00           6623          47.00       178.73
  146.32        3333.25           6627          45.00       170.01
  146.35        3333.50           6630          45.00       170.01
  146.38        3333.75           6634          58.00       226.68
  146.41        3334.00           6638          73.00       292.07
  146.45        3334.25           6642          87.00       353.10
  146.48        3334.50           6645         105.00       431.57
  146.51        3334.75           6649         124.00       514.39
  146.54        3335.00           6653         148.00       619.02
  146.57        3335.25           6656         176.00       741.08
  146.60        3335.50           6660         191.00       806.47
  146.63        3335.75           6664         214.00       906.74
  146.66        3336.00           6668         370.00      1586.82
  146.69        3336.25           6671         879.00      3805.97
  146.72        3336.50           6675        2275.00      9893.66
  146.76        3336.75           6679        3718.00     16188.42
  146.79        3337.00           6683        5351.00     23314.59
  146.82        3337.25           6686        6394.00     27867.52
  146.85        3337.50           6690        7742.00     33753.51
  146.88        3337.75           6694        9134.00     39833.58
  146.91        3338.00           6698       10871.00     47423.37
  146.94        3338.25           6701       12195.00     53210.66
  146.97        3338.50           6705       13688.00     59738.82
  147.00        3338.75           6709       16084.00     70220.19
  147.03        3339.00           6712       17480.00     76329.78
  147.06        3339.25           6716       19223.00     83960.83
  147.09        3339.50           6720       20938.00     91472.37
  147.12        3339.75           6724       22426.00     97992.14
  147.15        3340.00           6727       23746.00    103777.70
  147.18        3340.25           6731       25262.00    110424.70
  147.22        3340.50           6735       26619.00    116376.40
  147.25        3340.75           6739       27696.00    121101.50
  147.28        3341.00           6742       28257.00    123563.30
  147.31        3341.25           6746       29104.00    127280.60
  147.34        3341.50           6750       29546.00    129220.80
  147.37        3341.75           6754       29406.00    128606.20
  147.40        3342.00           6757       28550.00    124849.10
  147.43        3342.25           6761       26989.00    117999.60
  147.46        3342.50           6765       25208.00    110187.80
  147.49        3342.75           6769       23263.00    101660.50
  147.52        3343.00           6772       22200.00     97001.76
  147.56        3343.25           6776       20466.00     89404.75
  147.59        3343.50           6780       19411.00     84784.09
  147.62        3343.75           6784       18114.00     79105.13
  147.65        3344.00           6787       16982.00     74150.05
  147.68        3344.25           6791       15474.00     67551.18
  147.71        3344.50           6795       13756.00     60036.21
  147.74        3344.75           6799       12313.00     53726.53
  147.77        3345.00           6802       11040.00     48161.98
  147.80        3345.25           6806        9492.00     41397.60
  147.83        3345.50           6810        7782.00     33928.19
  147.86        3345.75           6814        5191.00     22616.25
  147.89        3346.00           6817        4018.00     17497.37
  147.92        3346.25           6821        2378.00     10342.91
  147.95        3346.50           6825        1578.00      6853.93
  147.98        3346.75           6828         815.00      3526.93
  148.02        3347.00           6832         321.00      1373.20
  148.05        3347.25           6836         140.00       584.14
  148.08        3347.50           6840          94.00       383.61
  148.11        3347.75           6843          66.00       261.55
  148.14        3348.00           6847          69.00       274.63
  148.17        3348.25           6851          62.00       244.12
  148.20        3348.50           6855          53.00       204.88
  148.23        3348.75           6858          70.00       278.99
  148.26        3349.00           6862          47.00       178.73
  148.29        3349.25           6866          45.00       170.01
  148.32        3349.50           6870          47.00       178.73
  148.35        3349.75           6873          50.00       191.81
  148.38        3350.00           6877          50.00       191.81
  148.41        3350.25           6881          47.00       178.73
  148.45        3350.50           6885          43.00       161.29
  148.48        3350.75           6888          53.00       204.88
  148.51        3351.00           6892          48.00       183.09
HL scan finished at 02:29:20
end
