************************************************************
  HS Scan of (1) Internal mercury lamp
************************************************************
Integration time is 0.2294 seconds per sample
dh170519Izana 28.3081 16.4992 2.804185pr770
************************************************************
Dead Time -------------------------  2.7E-08 
Number of Cycles Used -------------  4 
Starting Wavelength (Angstroms) ---  2950 
Final Wavelength (Angstoms) -------  2984 
Wavelength Increment (Angstroms) --  .25 
Filter Wheel #1 Position ---------- (1) Ground quartz diffuser (ND=2.32)
Filter Wheel #2 Position ---------- (1) Neutral Density 0.494



************************************************************
HS scan start time = 04:44:56
Dark Count =  7.1 


Time (GMT)  Wavelength (Ang)  Step Number  Raw Counts  Counts/Second

  285.27        2950.00           1224          36.00       125.98
  285.33        2950.25           1227          36.00       125.98
  285.37        2950.50           1230          36.00       125.98
  285.40        2950.75           1234          28.00        91.11
  285.43        2951.00           1237          36.00       125.98
  285.46        2951.25           1240          29.00        95.47
  285.49        2951.50           1244          35.00       121.62
  285.52        2951.75           1247          38.00       134.70
  285.56        2952.00           1250          32.00       108.54
  285.59        2952.25           1254          31.00       104.19
  285.62        2952.50           1257          33.00       112.90
  285.65        2952.75           1260          36.00       125.98
  285.68        2953.00           1264          34.00       117.26
  285.71        2953.25           1267          37.00       130.34
  285.74        2953.50           1270          37.00       130.34
  285.78        2953.75           1274          32.00       108.54
  285.81        2954.00           1277          30.00        99.83
  285.84        2954.25           1280          31.00       104.19
  285.87        2954.50           1284          30.00        99.83
  285.90        2954.75           1287          35.00       121.62
  285.93        2955.00           1290          30.00        99.83
  285.96        2955.25           1294          37.00       130.34
  285.99        2955.50           1297          33.00       112.90
  286.03        2955.75           1300          35.00       121.62
  286.06        2956.00           1304          38.00       134.70
  286.09        2956.25           1307          32.00       108.54
  286.12        2956.50           1310          36.00       125.98
  286.15        2956.75           1314          37.00       130.34
  286.18        2957.00           1317          37.00       130.34
  286.22        2957.25           1320          41.00       147.78
  286.25        2957.50           1324          36.00       125.98
  286.28        2957.75           1327          37.00       130.34
  286.31        2958.00           1330          42.00       152.14
  286.34        2958.25           1334          46.00       169.57
  286.37        2958.50           1337          40.00       143.42
  286.40        2958.75           1340          44.00       160.86
  286.44        2959.00           1344          51.00       191.37
  286.47        2959.25           1347          54.00       204.45
  286.50        2959.50           1350          65.00       252.40
  286.53        2959.75           1354          91.00       365.74
  286.56        2960.00           1357         126.00       518.32
  286.59        2960.25           1360         154.00       640.38
  286.62        2960.50           1364         202.00       849.63
  286.66        2960.75           1367         247.00      1045.80
  286.69        2961.00           1370         276.00      1172.23
  286.72        2961.25           1373         341.00      1455.59
  286.75        2961.50           1377         791.00      3417.49
  286.78        2961.75           1380        1448.00      6282.23
  286.81        2962.00           1383        2555.00     11110.13
  286.85        2962.25           1387        4887.00     21284.68
  286.88        2962.50           1390        6905.00     30093.76
  286.91        2962.75           1393        8726.00     38046.48
  286.94        2963.00           1397       11584.00     50534.91
  286.97        2963.25           1400       13369.00     58338.99
  287.00        2963.50           1404       15729.00     68662.05
  287.04        2963.75           1407       17373.00     75856.61
  287.07        2964.00           1410       19229.00     83982.29
  287.10        2964.25           1414       21856.00     95489.56
  287.13        2964.50           1417       23861.00    104277.10
  287.16        2964.75           1420       25841.00    112959.10
  287.19        2965.00           1424       28212.00    123361.00
  287.23        2965.25           1427       29774.00    130216.80
  287.26        2965.50           1430       31592.00    138199.60
  287.29        2965.75           1434       34132.00    149358.30
  287.32        2966.00           1437       36106.00    158035.10
  287.35        2966.25           1440       37865.00    165770.40
  287.38        2966.50           1444       39515.00    173029.20
  287.42        2966.75           1447       40426.00    177038.20
  287.45        2967.00           1450       40804.00    178701.90
  287.48        2967.25           1454       40875.00    179014.40
  287.51        2967.50           1457       40815.00    178750.30
  287.54        2967.75           1460       40719.00    178327.80
  287.57        2968.00           1464       39649.00    173618.90
  287.61        2968.25           1467       38258.00    167499.00
  287.64        2968.50           1470       36476.00    159662.00
  287.67        2968.75           1474       34293.00    150065.80
  287.70        2969.00           1477       32546.00    142389.90
  287.73        2969.25           1480       30929.00    135288.00
  287.76        2969.50           1484       28474.00    124510.70
  287.80        2969.75           1487       26586.00    116226.90
  287.83        2970.00           1490       24359.00    106460.30
  287.86        2970.25           1494       21924.00     95787.52
  287.89        2970.50           1497       19914.00     86982.16
  287.92        2970.75           1500       17998.00     78592.50
  287.96        2971.00           1504       15642.00     68281.40
  287.99        2971.25           1507       13838.00     60390.02
  288.02        2971.50           1510       11792.00     51444.12
  288.05        2971.75           1514        9103.00     39693.35
  288.08        2972.00           1517        7595.00     33106.74
  288.11        2972.25           1520        5405.00     23545.48
  288.14        2972.50           1524        3014.00     13112.31
  288.18        2972.75           1527        2038.00      8855.21
  288.21        2973.00           1530         949.00      4106.38
  288.24        2973.25           1534         456.00      1956.95
  288.27        2973.50           1537         288.00      1224.54
  288.30        2973.75           1540         227.00       958.61
  288.33        2974.00           1544         153.00       636.02
  288.36        2974.25           1547         121.00       496.52
  288.40        2974.50           1550          90.00       361.38
  288.43        2974.75           1554          58.00       221.88
  288.46        2975.00           1557          45.00       165.21
  288.49        2975.25           1561          45.00       165.21
  288.52        2975.50           1564          43.00       156.50
  288.55        2975.75           1567          39.00       139.06
  288.58        2976.00           1571          51.00       191.37
  288.62        2976.25           1574          56.00       213.17
  288.65        2976.50           1577          36.00       125.98
  288.68        2976.75           1581          45.00       165.21
  288.71        2977.00           1584          47.00       173.93
  288.74        2977.25           1587          41.00       147.78
  288.77        2977.50           1591          35.00       121.62
  288.80        2977.75           1594          38.00       134.70
  288.84        2978.00           1597          43.00       156.50
  288.87        2978.25           1601          34.00       117.26
  288.90        2978.50           1604          40.00       143.42
  288.93        2978.75           1607          34.00       117.26
  288.96        2979.00           1611          41.00       147.78
  288.99        2979.25           1614          35.00       121.62
  289.03        2979.50           1617          35.00       121.62
  289.06        2979.75           1621          39.00       139.06
  289.09        2980.00           1624          33.00       112.90
  289.12        2980.25           1628          34.00       117.26
  289.15        2980.50           1631          28.00        91.11
  289.18        2980.75           1634          36.00       125.98
  289.21        2981.00           1638          41.00       147.78
  289.25        2981.25           1641          37.00       130.34
  289.28        2981.50           1644          37.00       130.34
  289.31        2981.75           1648          31.00       104.19
  289.34        2982.00           1651          30.00        99.83
  289.37        2982.25           1654          32.00       108.54
  289.40        2982.50           1658          38.00       134.70
  289.44        2982.75           1661          34.00       117.26
  289.47        2983.00           1664          28.00        91.11
  289.50        2983.25           1668          22.00        64.95
  289.53        2983.50           1671          35.00       121.62
  289.56        2983.75           1674          43.00       156.50
  289.59        2984.00           1678          37.00       130.34
HS scan finished at 04:49:49
end
************************************************************
  HS Scan of (1) Internal mercury lamp
************************************************************
Integration time is 0.2294 seconds per sample
dh170519Izana 28.3081 16.4992 2.857833pr770
************************************************************
Dead Time -------------------------  2.7E-08 
Number of Cycles Used -------------  4 
Starting Wavelength (Angstroms) ---  2950 
Final Wavelength (Angstoms) -------  2984 
Wavelength Increment (Angstroms) --  .25 
Filter Wheel #1 Position ---------- (1) Ground quartz diffuser (ND=2.32)
Filter Wheel #2 Position ---------- (1) Neutral Density 0.494



************************************************************
HS scan start time = 21:56:10
Dark Count =  7 


Time (GMT)  Wavelength (Ang)  Step Number  Raw Counts  Counts/Second

 1316.50        2950.00           1224          26.00        82.82
 1316.57        2950.25           1227          31.00       104.62
 1316.60        2950.50           1230          32.00       108.98
 1316.63        2950.75           1234          37.00       130.78
 1316.66        2951.00           1237          28.00        91.54
 1316.70        2951.25           1240          33.00       113.34
 1316.73        2951.50           1244          54.00       204.88
 1316.76        2951.75           1247          35.00       122.06
 1316.79        2952.00           1250          33.00       113.34
 1316.82        2952.25           1254          34.00       117.70
 1316.85        2952.50           1257          33.00       113.34
 1316.88        2952.75           1260          34.00       117.70
 1316.92        2953.00           1264          31.00       104.62
 1316.95        2953.25           1267          32.00       108.98
 1316.98        2953.50           1270          32.00       108.98
 1317.01        2953.75           1274          33.00       113.34
 1317.04        2954.00           1277          38.00       135.14
 1317.07        2954.25           1280          38.00       135.14
 1317.10        2954.50           1284          33.00       113.34
 1317.13        2954.75           1287          36.00       126.42
 1317.17        2955.00           1290          34.00       117.70
 1317.20        2955.25           1294          43.00       156.93
 1317.23        2955.50           1297          37.00       130.78
 1317.26        2955.75           1300          37.00       130.78
 1317.29        2956.00           1304          32.00       108.98
 1317.32        2956.25           1307          34.00       117.70
 1317.36        2956.50           1310          36.00       126.42
 1317.39        2956.75           1314          37.00       130.78
 1317.42        2957.00           1317          43.00       156.93
 1317.45        2957.25           1320          38.00       135.14
 1317.48        2957.50           1324          43.00       156.93
 1317.51        2957.75           1327          37.00       130.78
 1317.55        2958.00           1330          39.00       139.49
 1317.58        2958.25           1334          48.00       178.73
 1317.61        2958.50           1337          41.00       148.21
 1317.64        2958.75           1340          40.00       143.85
 1317.67        2959.00           1344          46.00       170.01
 1317.70        2959.25           1347          55.00       209.24
 1317.73        2959.50           1350          73.00       287.71
 1317.77        2959.75           1354          90.00       361.82
 1317.80        2960.00           1357         119.00       488.24
 1317.83        2960.25           1360         155.00       645.17
 1317.86        2960.50           1364         196.00       823.91
 1317.89        2960.75           1367         242.00      1024.44
 1317.92        2961.00           1370         285.00      1211.90
 1317.96        2961.25           1373         336.00      1434.23
 1317.99        2961.50           1377         769.00      3322.01
 1318.02        2961.75           1380        1459.00      6330.64
 1318.05        2962.00           1383        2871.00     12488.95
 1318.08        2962.25           1387        5440.00     23698.68
 1318.11        2962.50           1390        7422.00     32351.70
 1318.15        2962.75           1393        9664.00     42144.71
 1318.18        2963.00           1397       11829.00     51606.30
 1318.21        2963.25           1400       13808.00     60259.25
 1318.24        2963.50           1404       16134.00     70434.61
 1318.27        2963.75           1407       18006.00     78627.96
 1318.31        2964.00           1410       19466.00     85020.58
 1318.34        2964.25           1414       21400.00     93492.02
 1318.37        2964.50           1417       23251.00    101603.50
 1318.40        2964.75           1420       25245.00    110345.70
 1318.43        2965.00           1424       27826.00    121667.60
 1318.46        2965.25           1427       29520.00    129102.30
 1318.50        2965.50           1430       31413.00    137413.90
 1318.53        2965.75           1434       33863.00    148176.70
 1318.56        2966.00           1437       35692.00    156215.50
 1318.59        2966.25           1440       37398.00    163716.90
 1318.62        2966.50           1444       39591.00    173364.10
 1318.65        2966.75           1447       40437.00    177087.10
 1318.69        2967.00           1450       40702.00    178253.40
 1318.72        2967.25           1454       41027.00    179683.90
 1318.75        2967.50           1457       40895.00    179102.90
 1318.78        2967.75           1460       40819.00    178768.40
 1318.81        2968.00           1464       39965.00    175009.90
 1318.84        2968.25           1467       38539.00    168735.60
 1318.88        2968.50           1470       37078.00    162309.60
 1318.91        2968.75           1474       34742.00    152039.60
 1318.94        2969.00           1477       33000.00    144384.80
 1318.97        2969.25           1480       31193.00    136447.70
 1319.00        2969.50           1484       28305.00    123769.50
 1319.03        2969.75           1487       26422.00    115507.90
 1319.07        2970.00           1490       24733.00    108100.60
 1319.10        2970.25           1494       22351.00     97659.09
 1319.13        2970.50           1497       20338.00     88839.69
 1319.16        2970.75           1500       18306.00     79941.33
 1319.19        2971.00           1504       15529.00     67787.43
 1319.22        2971.25           1507       13739.00     59957.49
 1319.26        2971.50           1510       11956.00     52161.47
 1319.29        2971.75           1514        9753.00     42533.56
 1319.32        2972.00           1517        8136.00     35469.88
 1319.35        2972.25           1520        6487.00     28269.17
 1319.38        2972.50           1524        4111.00     17898.80
 1319.41        2972.75           1527        2399.00     10430.14
 1319.45        2973.00           1530        1151.00      4987.59
 1319.48        2973.25           1534         468.00      2009.70
 1319.51        2973.50           1537         283.00      1203.18
 1319.54        2973.75           1540         213.00       898.02
 1319.57        2974.00           1544         159.00       662.61
 1319.60        2974.25           1547         117.00       479.52
 1319.64        2974.50           1550          82.00       326.94
 1319.67        2974.75           1554          64.00       248.48
 1319.70        2975.00           1557          58.00       222.32
 1319.73        2975.25           1561          50.00       187.45
 1319.76        2975.50           1564          43.00       156.93
 1319.80        2975.75           1567          54.00       204.88
 1319.83        2976.00           1571          43.00       156.93
 1319.86        2976.25           1574          46.00       170.01
 1319.89        2976.50           1577          44.00       161.29
 1319.92        2976.75           1581          42.00       152.57
 1319.95        2977.00           1584          45.00       165.65
 1319.98        2977.25           1587          39.00       139.49
 1320.02        2977.50           1591          38.00       135.14
 1320.05        2977.75           1594          35.00       122.06
 1320.08        2978.00           1597          40.00       143.85
 1320.11        2978.25           1601          33.00       113.34
 1320.14        2978.50           1604          37.00       130.78
 1320.17        2978.75           1607          41.00       148.21
 1320.20        2979.00           1611          32.00       108.98
 1320.23        2979.25           1614          39.00       139.49
 1320.27        2979.50           1617          33.00       113.34
 1320.30        2979.75           1621          34.00       117.70
 1320.33        2980.00           1624          32.00       108.98
 1320.36        2980.25           1628          33.00       113.34
 1320.39        2980.50           1631          29.00        95.90
 1320.42        2980.75           1634          35.00       122.06
 1320.45        2981.00           1638          27.00        87.18
 1320.49        2981.25           1641          28.00        91.54
 1320.52        2981.50           1644          37.00       130.78
 1320.55        2981.75           1648          31.00       104.62
 1320.58        2982.00           1651          30.00       100.26
 1320.61        2982.25           1654          28.00        91.54
 1320.64        2982.50           1658          29.00        95.90
 1320.68        2982.75           1661          33.00       113.34
 1320.71        2983.00           1664          31.00       104.62
 1320.74        2983.25           1668          34.00       117.70
 1320.77        2983.50           1671          29.00        95.90
 1320.80        2983.75           1674          28.00        91.54
 1320.83        2984.00           1678          38.00       135.14
HS scan finished at 22:01:04
end
