************************************************************
  HS Scan of (1) Internal mercury lamp
************************************************************
Integration time is 0.2294 seconds per sample
dh160519Izana 28.3081 16.4992 2.911481pr770
************************************************************
Dead Time -------------------------  2.7E-08 
Number of Cycles Used -------------  4 
Starting Wavelength (Angstroms) ---  2950 
Final Wavelength (Angstoms) -------  2984 
Wavelength Increment (Angstroms) --  .25 
Filter Wheel #1 Position ---------- (1) Ground quartz diffuser (ND=2.32)
Filter Wheel #2 Position ---------- (1) Neutral Density 0.494



************************************************************
HS scan start time = 04:44:56
Dark Count =  6.4 


Time (GMT)  Wavelength (Ang)  Step Number  Raw Counts  Counts/Second

  285.26        2950.00           1224          34.00       120.31
  285.32        2950.25           1227          35.00       124.67
  285.35        2950.50           1230          30.00       102.88
  285.39        2950.75           1234          37.00       133.39
  285.42        2951.00           1237          34.00       120.31
  285.45        2951.25           1240          29.00        98.52
  285.48        2951.50           1244          32.00       111.60
  285.51        2951.75           1247          32.00       111.60
  285.54        2952.00           1250          37.00       133.39
  285.57        2952.25           1254          36.00       129.03
  285.60        2952.50           1257          29.00        98.52
  285.64        2952.75           1260          33.00       115.96
  285.67        2953.00           1264          38.00       137.75
  285.70        2953.25           1267          40.00       146.47
  285.73        2953.50           1270          31.00       107.24
  285.76        2953.75           1274          33.00       115.96
  285.79        2954.00           1277          31.00       107.24
  285.83        2954.25           1280          33.00       115.96
  285.86        2954.50           1284          31.00       107.24
  285.89        2954.75           1287          28.00        94.16
  285.92        2955.00           1290          29.00        98.52
  285.95        2955.25           1294          34.00       120.31
  285.98        2955.50           1297          36.00       129.03
  286.02        2955.75           1300          31.00       107.24
  286.05        2956.00           1304          39.00       142.11
  286.08        2956.25           1307          34.00       120.31
  286.11        2956.50           1310          38.00       137.75
  286.14        2956.75           1314          42.00       155.19
  286.17        2957.00           1317          37.00       133.39
  286.21        2957.25           1320          36.00       129.03
  286.24        2957.50           1324          43.00       159.55
  286.27        2957.75           1327          45.00       168.27
  286.30        2958.00           1330          44.00       163.91
  286.33        2958.25           1334          42.00       155.19
  286.36        2958.50           1337          40.00       146.47
  286.39        2958.75           1340          50.00       190.06
  286.42        2959.00           1344          50.00       190.06
  286.46        2959.25           1347          54.00       207.50
  286.49        2959.50           1350          72.00       285.97
  286.52        2959.75           1354          98.00       399.31
  286.55        2960.00           1357         133.00       551.88
  286.58        2960.25           1360         179.00       752.41
  286.61        2960.50           1364         211.00       891.91
  286.64        2960.75           1367         257.00      1092.45
  286.68        2961.00           1370         300.00      1279.90
  286.71        2961.25           1373         376.00      1611.23
  286.74        2961.50           1377        1024.00      4436.45
  286.77        2961.75           1380        2132.00      9268.23
  286.80        2962.00           1383        3822.00     16640.43
  286.83        2962.25           1387        6286.00     27394.27
  286.87        2962.50           1390        8070.00     35184.24
  286.90        2962.75           1393        9986.00     43554.24
  286.93        2963.00           1397       12518.00     54621.03
  286.96        2963.25           1400       14273.00     62295.62
  286.99        2963.50           1404       16595.00     72454.60
  287.02        2963.75           1407       18408.00     80390.53
  287.06        2964.00           1410       20186.00     88176.55
  287.09        2964.25           1414       22634.00     98901.93
  287.12        2964.50           1417       24723.00    108059.40
  287.15        2964.75           1420       26626.00    116405.40
  287.18        2965.00           1424       29191.00    127660.70
  287.21        2965.25           1427       30740.00    134461.10
  287.25        2965.50           1430       32564.00    142472.00
  287.28        2965.75           1434       35184.00    153985.00
  287.31        2966.00           1437       37311.00    163336.90
  287.34        2966.25           1440       39153.00    171439.50
  287.37        2966.50           1444       41047.00    179774.60
  287.40        2966.75           1447       41619.00    182292.60
  287.44        2967.00           1450       41939.00    183701.40
  287.47        2967.25           1454       42188.00    184797.70
  287.50        2967.50           1457       41990.00    183925.90
  287.53        2967.75           1460       41658.00    182464.30
  287.56        2968.00           1464       40497.00    177353.80
  287.60        2968.25           1467       39041.00    170946.80
  287.63        2968.50           1470       37515.00    164234.10
  287.66        2968.75           1474       34894.00    152710.30
  287.69        2969.00           1477       33046.00    144589.50
  287.72        2969.25           1480       30991.00    135563.30
  287.76        2969.50           1484       28697.00    125492.50
  287.79        2969.75           1487       26821.00    117260.80
  287.82        2970.00           1490       24650.00    107739.30
  287.86        2970.25           1494       21877.00     95584.64
  287.89        2970.50           1497       19897.00     86910.77
  287.92        2970.75           1500       17891.00     78127.15
  287.96        2971.00           1504       15521.00     67755.05
  287.99        2971.25           1507       13851.00     60449.94
  288.02        2971.50           1510       12030.00     52487.58
  288.05        2971.75           1514        9636.00     42024.99
  288.08        2972.00           1517        7890.00     34398.11
  288.12        2972.25           1520        5744.00     25028.25
  288.15        2972.50           1524        3100.00     13490.53
  288.18        2972.75           1527        1859.00      8077.61
  288.21        2973.00           1530         849.00      3673.42
  288.24        2973.25           1534         390.00      1672.26
  288.27        2973.50           1537         260.00      1105.53
  288.31        2973.75           1540         188.00       791.65
  288.34        2974.00           1544         127.00       525.73
  288.37        2974.25           1547         104.00       425.46
  288.40        2974.50           1550          73.00       290.32
  288.43        2974.75           1554          72.00       285.97
  288.46        2975.00           1557          57.00       220.58
  288.49        2975.25           1561          45.00       168.27
  288.53        2975.50           1564          44.00       163.91
  288.56        2975.75           1567          50.00       190.06
  288.59        2976.00           1571          46.00       172.63
  288.62        2976.25           1574          42.00       155.19
  288.65        2976.50           1577          40.00       146.47
  288.68        2976.75           1581          47.00       176.98
  288.72        2977.00           1584          36.00       129.03
  288.75        2977.25           1587          40.00       146.47
  288.78        2977.50           1591          36.00       129.03
  288.81        2977.75           1594          36.00       129.03
  288.84        2978.00           1597          41.00       150.83
  288.88        2978.25           1601          34.00       120.31
  288.91        2978.50           1604          42.00       155.19
  288.94        2978.75           1607          35.00       124.67
  288.97        2979.00           1611          38.00       137.75
  289.00        2979.25           1614          35.00       124.67
  289.03        2979.50           1617          34.00       120.31
  289.06        2979.75           1621          44.00       163.91
  289.10        2980.00           1624          29.00        98.52
  289.13        2980.25           1628          32.00       111.60
  289.16        2980.50           1631          32.00       111.60
  289.19        2980.75           1634          37.00       133.39
  289.22        2981.00           1638          37.00       133.39
  289.25        2981.25           1641          42.00       155.19
  289.29        2981.50           1644          33.00       115.96
  289.32        2981.75           1648          48.00       181.34
  289.35        2982.00           1651          33.00       115.96
  289.38        2982.25           1654          32.00       111.60
  289.41        2982.50           1658          28.00        94.16
  289.44        2982.75           1661          33.00       115.96
  289.48        2983.00           1664          44.00       163.91
  289.51        2983.25           1668          36.00       129.03
  289.54        2983.50           1671          28.00        94.16
  289.57        2983.75           1674          28.00        94.16
  289.60        2984.00           1678          36.00       129.03
HS scan finished at 04:49:49
end
************************************************************
  HS Scan of (1) Internal mercury lamp
************************************************************
Integration time is 0.2294 seconds per sample
dh160519Izana 28.3081 16.4992 2.857833pr770
************************************************************
Dead Time -------------------------  2.7E-08 
Number of Cycles Used -------------  4 
Starting Wavelength (Angstroms) ---  2950 
Final Wavelength (Angstoms) -------  2984 
Wavelength Increment (Angstroms) --  .25 
Filter Wheel #1 Position ---------- (1) Ground quartz diffuser (ND=2.32)
Filter Wheel #2 Position ---------- (1) Neutral Density 0.494



************************************************************
HS scan start time = 21:56:11
Dark Count =  7 


Time (GMT)  Wavelength (Ang)  Step Number  Raw Counts  Counts/Second

 1316.51        2950.00           1224          35.00       122.06
 1316.58        2950.25           1227          33.00       113.34
 1316.61        2950.50           1230          32.00       108.98
 1316.64        2950.75           1234          31.00       104.62
 1316.67        2951.00           1237          32.00       108.98
 1316.71        2951.25           1240          28.00        91.54
 1316.74        2951.50           1244          28.00        91.54
 1316.77        2951.75           1247          27.00        87.18
 1316.80        2952.00           1250          29.00        95.90
 1316.83        2952.25           1254          33.00       113.34
 1316.86        2952.50           1257          27.00        87.18
 1316.89        2952.75           1260          31.00       104.62
 1316.93        2953.00           1264          29.00        95.90
 1316.96        2953.25           1267          34.00       117.70
 1316.99        2953.50           1270          48.00       178.73
 1317.02        2953.75           1274          32.00       108.98
 1317.05        2954.00           1277          31.00       104.62
 1317.08        2954.25           1280          36.00       126.42
 1317.11        2954.50           1284          31.00       104.62
 1317.15        2954.75           1287          62.00       239.76
 1317.18        2955.00           1290          32.00       108.98
 1317.21        2955.25           1294          35.00       122.06
 1317.24        2955.50           1297          36.00       126.42
 1317.27        2955.75           1300          34.00       117.70
 1317.30        2956.00           1304          35.00       122.06
 1317.34        2956.25           1307          36.00       126.42
 1317.37        2956.50           1310          32.00       108.98
 1317.40        2956.75           1314          45.00       165.65
 1317.43        2957.00           1317          39.00       139.49
 1317.46        2957.25           1320          37.00       130.78
 1317.49        2957.50           1324          42.00       152.57
 1317.52        2957.75           1327          38.00       135.14
 1317.56        2958.00           1330          39.00       139.49
 1317.59        2958.25           1334          40.00       143.85
 1317.62        2958.50           1337          44.00       161.29
 1317.65        2958.75           1340          51.00       191.81
 1317.68        2959.00           1344          54.00       204.88
 1317.71        2959.25           1347          56.00       213.60
 1317.74        2959.50           1350          74.00       292.07
 1317.78        2959.75           1354         109.00       444.64
 1317.81        2960.00           1357         147.00       610.30
 1317.84        2960.25           1360         151.00       627.74
 1317.87        2960.50           1364         202.00       850.06
 1317.90        2960.75           1367         258.00      1094.19
 1317.93        2961.00           1370         284.00      1207.54
 1317.97        2961.25           1373         329.00      1403.72
 1318.00        2961.50           1377         745.00      3217.37
 1318.03        2961.75           1380        1528.00      6631.53
 1318.06        2962.00           1383        3039.00     13221.81
 1318.09        2962.25           1387        5750.00     25051.82
 1318.13        2962.50           1390        7549.00     32906.29
 1318.16        2962.75           1393        9424.00     41096.14
 1318.19        2963.00           1397       11796.00     51462.05
 1318.22        2963.25           1400       13825.00     60333.60
 1318.25        2963.50           1404       16111.00     70333.96
 1318.28        2963.75           1407       17835.00     77879.38
 1318.32        2964.00           1410       19405.00     84753.46
 1318.35        2964.25           1414       21609.00     94407.74
 1318.38        2964.50           1417       23508.00    102730.10
 1318.41        2964.75           1420       25410.00    111069.30
 1318.44        2965.00           1424       27717.00    121189.30
 1318.47        2965.25           1427       29771.00    130204.10
 1318.51        2965.50           1430       31417.00    137431.40
 1318.54        2965.75           1434       34152.00    149446.60
 1318.57        2966.00           1437       35878.00    157033.20
 1318.60        2966.25           1440       37766.00    165335.40
 1318.63        2966.50           1444       39644.00    173597.30
 1318.66        2966.75           1447       40730.00    178376.60
 1318.70        2967.00           1450       41137.00    180168.10
 1318.73        2967.25           1454       41399.00    181321.50
 1318.76        2967.50           1457       41293.00    180854.80
 1318.79        2967.75           1460       41101.00    180009.70
 1318.82        2968.00           1464       39837.00    174446.60
 1318.85        2968.25           1467       38447.00    168330.90
 1318.89        2968.50           1470       37300.00    163285.90
 1318.92        2968.75           1474       34923.00    152835.20
 1318.95        2969.00           1477       33060.00    144648.40
 1318.98        2969.25           1480       31587.00    138178.00
 1319.01        2969.50           1484       28737.00    125665.40
 1319.04        2969.75           1487       26862.00    117438.10
 1319.08        2970.00           1490       25142.00    109894.00
 1319.11        2970.25           1494       22279.00     97343.57
 1319.14        2970.50           1497       20247.00     88441.10
 1319.17        2970.75           1500       18207.00     79507.90
 1319.20        2971.00           1504       15666.00     68386.83
 1319.24        2971.25           1507       13857.00     60473.56
 1319.27        2971.50           1510       12039.00     52524.31
 1319.30        2971.75           1514       10057.00     43861.85
 1319.33        2972.00           1517        8281.00     36103.18
 1319.36        2972.25           1520        6561.00     28592.25
 1319.39        2972.50           1524        4016.00     17484.28
 1319.43        2972.75           1527        2326.00     10111.74
 1319.46        2973.00           1530        1031.00      4464.36
 1319.49        2973.25           1534         413.00      1769.92
 1319.52        2973.50           1537         259.00      1098.55
 1319.55        2973.75           1540         188.00       789.03
 1319.58        2974.00           1544         132.00       544.91
 1319.61        2974.25           1547         111.00       453.36
 1319.65        2974.50           1550          81.00       322.58
 1319.68        2974.75           1554          59.00       226.68
 1319.71        2975.00           1557          58.00       222.32
 1319.74        2975.25           1561          49.00       183.09
 1319.77        2975.50           1564          47.00       174.37
 1319.80        2975.75           1567          47.00       174.37
 1319.84        2976.00           1571          42.00       152.57
 1319.87        2976.25           1574          48.00       178.73
 1319.90        2976.50           1577          43.00       156.93
 1319.93        2976.75           1581          37.00       130.78
 1319.96        2977.00           1584          46.00       170.01
 1319.99        2977.25           1587          36.00       126.42
 1320.03        2977.50           1591          36.00       126.42
 1320.06        2977.75           1594          35.00       122.06
 1320.09        2978.00           1597          33.00       113.34
 1320.12        2978.25           1601          36.00       126.42
 1320.15        2978.50           1604          38.00       135.14
 1320.18        2978.75           1607          42.00       152.57
 1320.22        2979.00           1611          41.00       148.21
 1320.25        2979.25           1614          31.00       104.62
 1320.28        2979.50           1617          30.00       100.26
 1320.31        2979.75           1621          35.00       122.06
 1320.34        2980.00           1624          32.00       108.98
 1320.37        2980.25           1628          31.00       104.62
 1320.40        2980.50           1631          33.00       113.34
 1320.44        2980.75           1634          34.00       117.70
 1320.47        2981.00           1638          32.00       108.98
 1320.50        2981.25           1641          32.00       108.98
 1320.53        2981.50           1644          23.00        69.75
 1320.56        2981.75           1648          31.00       104.62
 1320.59        2982.00           1651          29.00        95.90
 1320.62        2982.25           1654          27.00        87.18
 1320.66        2982.50           1658          29.00        95.90
 1320.69        2982.75           1661          26.00        82.82
 1320.72        2983.00           1664          25.00        78.47
 1320.75        2983.25           1668          37.00       130.78
 1320.78        2983.50           1671          26.00        82.82
 1320.81        2983.75           1674          29.00        95.90
 1320.84        2984.00           1678          32.00       108.98
HS scan finished at 22:01:04
end
