************************************************************
  HS Scan of (1) Internal mercury lamp
************************************************************
Integration time is 0.2294 seconds per sample
dh150519Izana 28.3081 16.4992 2.857833pr770
************************************************************
Dead Time -------------------------  2.7E-08 
Number of Cycles Used -------------  4 
Starting Wavelength (Angstroms) ---  2950 
Final Wavelength (Angstoms) -------  2984 
Wavelength Increment (Angstroms) --  .25 
Filter Wheel #1 Position ---------- (1) Ground quartz diffuser (ND=2.32)
Filter Wheel #2 Position ---------- (1) Neutral Density 0.494



************************************************************
HS scan start time = 04:45:56
Dark Count =  7.4 


Time (GMT)  Wavelength (Ang)  Step Number  Raw Counts  Counts/Second

  286.25        2950.00           1224          31.00       102.88
  286.32        2950.25           1227          39.00       137.75
  286.35        2950.50           1230          28.00        89.80
  286.38        2950.75           1234          32.00       107.24
  286.42        2951.00           1237          38.00       133.39
  286.45        2951.25           1240          43.00       155.19
  286.48        2951.50           1244          36.00       124.67
  286.51        2951.75           1247          45.00       163.91
  286.54        2952.00           1250          34.00       115.96
  286.57        2952.25           1254          35.00       120.31
  286.60        2952.50           1257          24.00        72.36
  286.64        2952.75           1260          38.00       133.39
  286.67        2953.00           1264          35.00       120.31
  286.70        2953.25           1267          29.00        94.16
  286.73        2953.50           1270          33.00       111.60
  286.76        2953.75           1274          31.00       102.88
  286.79        2954.00           1277          37.00       129.03
  286.82        2954.25           1280          30.00        98.52
  286.86        2954.50           1284          43.00       155.19
  286.89        2954.75           1287          30.00        98.52
  286.92        2955.00           1290          32.00       107.24
  286.95        2955.25           1294          36.00       124.67
  286.98        2955.50           1297          33.00       111.60
  287.01        2955.75           1300          42.00       150.83
  287.04        2956.00           1304          35.00       120.31
  287.07        2956.25           1307          31.00       102.88
  287.11        2956.50           1310          43.00       155.19
  287.14        2956.75           1314          39.00       137.75
  287.17        2957.00           1317          37.00       129.03
  287.20        2957.25           1320          37.00       129.03
  287.23        2957.50           1324          41.00       146.47
  287.26        2957.75           1327          46.00       168.27
  287.30        2958.00           1330          44.00       159.55
  287.33        2958.25           1334          46.00       168.27
  287.36        2958.50           1337          45.00       163.91
  287.39        2958.75           1340          50.00       185.70
  287.42        2959.00           1344          46.00       168.27
  287.45        2959.25           1347          51.00       190.06
  287.48        2959.50           1350          72.00       281.61
  287.52        2959.75           1354         100.00       403.67
  287.55        2960.00           1357         125.00       512.65
  287.58        2960.25           1360         166.00       691.38
  287.61        2960.50           1364         206.00       865.76
  287.64        2960.75           1367         238.00      1005.26
  287.67        2961.00           1370         277.00      1175.28
  287.70        2961.25           1373         374.00      1598.15
  287.74        2961.50           1377         918.00      3969.91
  287.77        2961.75           1380        1778.00      7720.01
  287.80        2962.00           1383        2902.00     12622.44
  287.83        2962.25           1387        4966.00     21628.15
  287.86        2962.50           1390        6923.00     30171.04
  287.89        2962.75           1393        8901.00     38809.61
  287.92        2963.00           1397       11738.00     51206.76
  287.96        2963.25           1400       13737.00     59947.00
  287.99        2963.50           1404       16270.00     71027.98
  288.02        2963.75           1407       17855.00     77965.16
  288.05        2964.00           1410       19429.00     84856.79
  288.08        2964.25           1414       22165.00     96842.26
  288.11        2964.50           1417       24085.00    105257.70
  288.15        2964.75           1420       25959.00    113475.30
  288.18        2965.00           1424       28737.00    125663.70
  288.21        2965.25           1427       30534.00    133552.20
  288.24        2965.50           1430       32302.00    141316.70
  288.27        2965.75           1434       34812.00    152345.50
  288.30        2966.00           1437       36391.00    159286.90
  288.34        2966.25           1440       38321.00    167774.90
  288.37        2966.50           1444       40147.00    175809.00
  288.40        2966.75           1447       40915.00    179189.20
  288.43        2967.00           1450       41319.00    180967.50
  288.46        2967.25           1454       41327.00    181002.70
  288.49        2967.50           1457       41502.00    181773.10
  288.53        2967.75           1460       41190.00    180399.70
  288.56        2968.00           1464       40176.00    175936.70
  288.59        2968.25           1467       38797.00    169868.90
  288.62        2968.50           1470       37011.00    162013.20
  288.65        2968.75           1474       34772.00    152169.70
  288.68        2969.00           1477       32857.00    143754.80
  288.71        2969.25           1480       30888.00    135106.60
  288.75        2969.50           1484       28436.00    124342.70
  288.78        2969.75           1487       26717.00    116800.20
  288.81        2970.00           1490       24834.00    108541.70
  288.84        2970.25           1494       22107.00     96588.09
  288.87        2970.50           1497       20159.00     88053.91
  288.91        2970.75           1500       18086.00     78976.43
  288.94        2971.00           1504       15495.00     67636.93
  288.97        2971.25           1507       13744.00     59977.61
  289.00        2971.50           1510       11862.00     51748.80
  289.03        2971.75           1514        9183.00     40041.52
  289.06        2972.00           1517        7408.00     32288.82
  289.10        2972.25           1520        5348.00     23295.38
  289.13        2972.50           1524        2902.00     12622.44
  289.16        2972.75           1527        1791.00      7776.70
  289.19        2973.00           1530         849.00      3669.06
  289.22        2973.25           1534         429.00      1837.93
  289.25        2973.50           1537         291.00      1236.31
  289.28        2973.75           1540         219.00       922.43
  289.32        2974.00           1544         153.00       634.71
  289.35        2974.25           1547         129.00       530.09
  289.38        2974.50           1550         100.00       403.67
  289.41        2974.75           1554          62.00       238.01
  289.44        2975.00           1557          54.00       203.14
  289.47        2975.25           1561          48.00       176.98
  289.51        2975.50           1564          52.00       194.42
  289.54        2975.75           1567          40.00       142.11
  289.57        2976.00           1571          45.00       163.91
  289.60        2976.25           1574          41.00       146.47
  289.63        2976.50           1577          46.00       168.27
  289.66        2976.75           1581          42.00       150.83
  289.69        2977.00           1584          43.00       155.19
  289.72        2977.25           1587          37.00       129.03
  289.76        2977.50           1591          37.00       129.03
  289.79        2977.75           1594          38.00       133.39
  289.82        2978.00           1597          31.00       102.88
  289.85        2978.25           1601          35.00       120.31
  289.88        2978.50           1604          34.00       115.96
  289.91        2978.75           1607          34.00       115.96
  289.95        2979.00           1611          38.00       133.39
  289.98        2979.25           1614          37.00       129.03
  290.01        2979.50           1617          30.00        98.52
  290.04        2979.75           1621          31.00       102.88
  290.07        2980.00           1624          33.00       111.60
  290.10        2980.25           1628          33.00       111.60
  290.13        2980.50           1631          30.00        98.52
  290.16        2980.75           1634          34.00       115.96
  290.20        2981.00           1638          35.00       120.31
  290.23        2981.25           1641          33.00       111.60
  290.26        2981.50           1644          33.00       111.60
  290.29        2981.75           1648          29.00        94.16
  290.32        2982.00           1651          37.00       129.03
  290.36        2982.25           1654          32.00       107.24
  290.39        2982.50           1658          35.00       120.31
  290.42        2982.75           1661          32.00       107.24
  290.45        2983.00           1664          36.00       124.67
  290.48        2983.25           1668          25.00        76.72
  290.51        2983.50           1671          28.00        89.80
  290.54        2983.75           1674          23.00        68.00
  290.58        2984.00           1678          34.00       115.96
HS scan finished at 04:50:48
end
************************************************************
  HS Scan of (1) Internal mercury lamp
************************************************************
Integration time is 0.2294 seconds per sample
dh150519Izana 28.3081 16.4992 2.911481pr770
************************************************************
Dead Time -------------------------  2.7E-08 
Number of Cycles Used -------------  4 
Starting Wavelength (Angstroms) ---  2950 
Final Wavelength (Angstoms) -------  2984 
Wavelength Increment (Angstroms) --  .25 
Filter Wheel #1 Position ---------- (1) Ground quartz diffuser (ND=2.32)
Filter Wheel #2 Position ---------- (1) Neutral Density 0.494



************************************************************
HS scan start time = 21:57:14
Dark Count =  6.9 


Time (GMT)  Wavelength (Ang)  Step Number  Raw Counts  Counts/Second

 1317.57        2950.00           1224          32.00       109.42
 1317.63        2950.25           1227          35.00       122.49
 1317.66        2950.50           1230          35.00       122.49
 1317.70        2950.75           1234          31.00       105.06
 1317.73        2951.00           1237          30.00       100.70
 1317.76        2951.25           1240          30.00       100.70
 1317.79        2951.50           1244          34.00       118.13
 1317.82        2951.75           1247          36.00       126.85
 1317.85        2952.00           1250          38.00       135.57
 1317.88        2952.25           1254          31.00       105.06
 1317.91        2952.50           1257          28.00        91.98
 1317.95        2952.75           1260          29.00        96.34
 1317.98        2953.00           1264          30.00       100.70
 1318.01        2953.25           1267          31.00       105.06
 1318.04        2953.50           1270          34.00       118.13
 1318.07        2953.75           1274          34.00       118.13
 1318.10        2954.00           1277          33.00       113.78
 1318.14        2954.25           1280          38.00       135.57
 1318.17        2954.50           1284          34.00       118.13
 1318.20        2954.75           1287          39.00       139.93
 1318.23        2955.00           1290          36.00       126.85
 1318.26        2955.25           1294          50.00       187.88
 1318.29        2955.50           1297          33.00       113.78
 1318.33        2955.75           1300          36.00       126.85
 1318.36        2956.00           1304          33.00       113.78
 1318.39        2956.25           1307          35.00       122.49
 1318.42        2956.50           1310          37.00       131.21
 1318.45        2956.75           1314          39.00       139.93
 1318.48        2957.00           1317          34.00       118.13
 1318.52        2957.25           1320          38.00       135.57
 1318.55        2957.50           1324          42.00       153.01
 1318.58        2957.75           1327          38.00       135.57
 1318.61        2958.00           1330          51.00       192.24
 1318.64        2958.25           1334          44.00       161.73
 1318.67        2958.50           1337          44.00       161.73
 1318.70        2958.75           1340          41.00       148.65
 1318.74        2959.00           1344          49.00       183.52
 1318.77        2959.25           1347          56.00       214.04
 1318.80        2959.50           1350          84.00       336.10
 1318.83        2959.75           1354          93.00       375.33
 1318.86        2960.00           1357         136.00       562.78
 1318.89        2960.25           1360         180.00       754.59
 1318.92        2960.50           1364         224.00       946.41
 1318.96        2960.75           1367         259.00      1098.99
 1318.99        2961.00           1370         292.00      1242.85
 1319.02        2961.25           1373         347.00      1482.62
 1319.05        2961.50           1377         764.00      3300.64
 1319.08        2961.75           1380        1633.00      7089.85
 1319.11        2962.00           1383        3129.00     13614.86
 1319.15        2962.25           1387        5691.00     24794.71
 1319.18        2962.50           1390        7653.00     33360.90
 1319.21        2962.75           1393        9453.00     41223.27
 1319.24        2963.00           1397       11694.00     51016.61
 1319.27        2963.25           1400       13633.00     59494.36
 1319.30        2963.50           1404       16341.00     71340.87
 1319.34        2963.75           1407       18337.00     80077.49
 1319.37        2964.00           1410       20579.00     89895.78
 1319.40        2964.25           1414       22801.00     99631.64
 1319.43        2964.50           1417       24777.00    108294.00
 1319.46        2964.75           1420       26324.00    115078.50
 1319.50        2965.00           1424       28943.00    126570.00
 1319.53        2965.25           1427       30774.00    134608.20
 1319.56        2965.50           1430       32518.00    142267.80
 1319.59        2965.75           1434       35117.00    153688.30
 1319.62        2966.00           1437       36390.00    159284.70
 1319.65        2966.25           1440       38411.00    168173.00
 1319.69        2966.50           1444       40176.00    175938.90
 1319.72        2966.75           1447       40672.00    178121.80
 1319.75        2967.00           1450       41150.00    180225.80
 1319.78        2967.25           1454       41372.00    181203.10
 1319.81        2967.50           1457       41351.00    181110.60
 1319.84        2967.75           1460       40847.00    178892.10
 1319.87        2968.00           1464       39730.00    173976.20
 1319.91        2968.25           1467       38370.00    167992.60
 1319.94        2968.50           1470       36905.00    161549.30
 1319.97        2968.75           1474       34539.00    151147.90
 1320.00        2969.00           1477       32820.00    143594.50
 1320.04        2969.25           1480       30812.00    134775.10
 1320.07        2969.50           1484       28022.00    122528.10
 1320.10        2969.75           1487       26179.00    114442.40
 1320.13        2970.00           1490       24109.00    105365.20
 1320.16        2970.25           1494       21710.00     94850.71
 1320.19        2970.50           1497       20002.00     87368.46
 1320.23        2970.75           1500       17991.00     78562.72
 1320.26        2971.00           1504       15165.00     66195.36
 1320.29        2971.25           1507       13141.00     57342.86
 1320.32        2971.50           1510       11132.00     48560.14
 1320.35        2971.75           1514        8713.00     37990.56
 1320.39        2972.00           1517        7245.00     31579.23
 1320.42        2972.25           1520        5496.00     23943.55
 1320.45        2972.50           1524        3186.00     13863.52
 1320.48        2972.75           1527        2050.00      8908.42
 1320.51        2973.00           1530         953.00      4124.70
 1320.54        2973.25           1534         362.00      1548.02
 1320.57        2973.50           1537         249.00      1055.39
 1320.61        2973.75           1540         178.00       745.87
 1320.64        2974.00           1544         140.00       580.22
 1320.67        2974.25           1547          88.00       353.53
 1320.70        2974.50           1550          90.00       362.25
 1320.73        2974.75           1554          63.00       244.55
 1320.76        2975.00           1557          49.00       183.52
 1320.79        2975.25           1561          48.00       179.16
 1320.83        2975.50           1564          48.00       179.16
 1320.86        2975.75           1567          43.00       157.37
 1320.89        2976.00           1571          40.00       144.29
 1320.92        2976.25           1574          37.00       131.21
 1320.95        2976.50           1577          42.00       153.01
 1320.98        2976.75           1581          39.00       139.93
 1321.01        2977.00           1584          36.00       126.85
 1321.05        2977.25           1587          77.00       305.58
 1321.08        2977.50           1591          47.00       174.80
 1321.11        2977.75           1594          35.00       122.49
 1321.14        2978.00           1597          34.00       118.13
 1321.17        2978.25           1601          35.00       122.49
 1321.20        2978.50           1604          36.00       126.85
 1321.23        2978.75           1607          36.00       126.85
 1321.26        2979.00           1611          33.00       113.78
 1321.30        2979.25           1614          29.00        96.34
 1321.33        2979.50           1617          31.00       105.06
 1321.36        2979.75           1621          33.00       113.78
 1321.39        2980.00           1624          28.00        91.98
 1321.42        2980.25           1628          41.00       148.65
 1321.45        2980.50           1631          31.00       105.06
 1321.49        2980.75           1634          37.00       131.21
 1321.52        2981.00           1638          35.00       122.49
 1321.55        2981.25           1641          32.00       109.42
 1321.58        2981.50           1644          34.00       118.13
 1321.61        2981.75           1648          30.00       100.70
 1321.64        2982.00           1651          36.00       126.85
 1321.68        2982.25           1654          34.00       118.13
 1321.71        2982.50           1658          23.00        70.18
 1321.74        2982.75           1661          29.00        96.34
 1321.77        2983.00           1664          27.00        87.62
 1321.80        2983.25           1668          31.00       105.06
 1321.83        2983.50           1671          26.00        83.26
 1321.86        2983.75           1674          28.00        91.98
 1321.90        2984.00           1678          30.00       100.70
HS scan finished at 22:02:07
end
