************************************************************
  HS Scan of (1) Internal mercury lamp
************************************************************
Integration time is 0.2294 seconds per sample
dh180519Izana 28.3081 16.4992 2.857833pr770
************************************************************
Dead Time -------------------------  2.7E-08 
Number of Cycles Used -------------  4 
Starting Wavelength (Angstroms) ---  2950 
Final Wavelength (Angstoms) -------  2984 
Wavelength Increment (Angstroms) --  .25 
Filter Wheel #1 Position ---------- (1) Ground quartz diffuser (ND=2.32)
Filter Wheel #2 Position ---------- (1) Neutral Density 0.494



************************************************************
HS scan start time = 04:43:49
Dark Count =  7.6 


Time (GMT)  Wavelength (Ang)  Step Number  Raw Counts  Counts/Second

  284.14        2950.00           1224          29.00        93.29
  284.21        2950.25           1227          34.00       115.08
  284.24        2950.50           1230          27.00        84.57
  284.27        2950.75           1234          33.00       110.72
  284.30        2951.00           1237          35.00       119.44
  284.33        2951.25           1240          33.00       110.72
  284.36        2951.50           1244          31.00       102.01
  284.40        2951.75           1247          35.00       119.44
  284.43        2952.00           1250          31.00       102.01
  284.46        2952.25           1254          39.00       136.88
  284.49        2952.50           1257          32.00       106.36
  284.52        2952.75           1260          31.00       102.01
  284.55        2953.00           1264          35.00       119.44
  284.58        2953.25           1267          30.00        97.65
  284.62        2953.50           1270          34.00       115.08
  284.65        2953.75           1274          27.00        84.57
  284.68        2954.00           1277          40.00       141.24
  284.71        2954.25           1280          39.00       136.88
  284.74        2954.50           1284          31.00       102.01
  284.77        2954.75           1287          40.00       141.24
  284.81        2955.00           1290          37.00       128.16
  284.84        2955.25           1294          33.00       110.72
  284.87        2955.50           1297          36.00       123.80
  284.90        2955.75           1300          35.00       119.44
  284.93        2956.00           1304          41.00       145.60
  284.96        2956.25           1307          37.00       128.16
  284.99        2956.50           1310          34.00       115.08
  285.03        2956.75           1314          36.00       123.80
  285.06        2957.00           1317          38.00       132.52
  285.09        2957.25           1320          43.00       154.32
  285.12        2957.50           1324          37.00       128.16
  285.15        2957.75           1327          43.00       154.32
  285.19        2958.00           1330          42.00       149.96
  285.22        2958.25           1334          46.00       167.39
  285.25        2958.50           1337          49.00       180.47
  285.28        2958.75           1340          45.00       163.03
  285.31        2959.00           1344          49.00       180.47
  285.34        2959.25           1347          54.00       202.27
  285.37        2959.50           1350          69.00       267.66
  285.40        2959.75           1354          83.00       328.69
  285.44        2960.00           1357         122.00       498.70
  285.47        2960.25           1360         149.00       616.40
  285.50        2960.50           1364         190.00       795.13
  285.53        2960.75           1367         235.00       991.31
  285.56        2961.00           1370         278.00      1178.76
  285.59        2961.25           1373         344.00      1466.49
  285.62        2961.50           1377         725.00      3127.55
  285.66        2961.75           1380        1425.00      6179.76
  285.69        2962.00           1383        2687.00     11683.72
  285.72        2962.25           1387        5112.00     22264.47
  285.75        2962.50           1390        7197.00     31366.57
  285.78        2962.75           1393        9173.00     39996.97
  285.81        2963.00           1397       11772.00     51354.51
  285.85        2963.25           1400       13455.00     58712.89
  285.88        2963.50           1404       16103.00     70296.34
  285.91        2963.75           1407       17702.00     77294.54
  285.94        2964.00           1410       19829.00     86607.69
  285.98        2964.25           1414       22465.00     98156.05
  286.01        2964.50           1417       24250.00    105980.30
  286.04        2964.75           1420       26137.00    114255.20
  286.07        2965.00           1424       28602.00    125070.30
  286.10        2965.25           1427       30005.00    131228.80
  286.13        2965.50           1430       31944.00    139743.40
  286.17        2965.75           1434       34715.00    151918.30
  286.20        2966.00           1437       36075.00    157896.70
  286.23        2966.25           1440       38052.00    166590.70
  286.26        2966.50           1444       39859.00    174540.70
  286.29        2966.75           1447       40600.00    177801.80
  286.32        2967.00           1450       41057.00    179813.30
  286.36        2967.25           1454       40990.00    179518.40
  286.39        2967.50           1457       41023.00    179663.70
  286.42        2967.75           1460       40897.00    179109.10
  286.45        2968.00           1464       39562.00    173233.80
  286.48        2968.25           1467       38329.00    167809.20
  286.51        2968.50           1470       36469.00    159629.00
  286.55        2968.75           1474       34291.00    150054.80
  286.58        2969.00           1477       32861.00    143771.50
  286.61        2969.25           1480       31083.00    135962.00
  286.64        2969.50           1484       28303.00    123758.10
  286.67        2969.75           1487       26218.00    114610.50
  286.71        2970.00           1490       24310.00    106243.30
  286.74        2970.25           1494       21824.00     95347.15
  286.77        2970.50           1497       20020.00     87444.22
  286.80        2970.75           1500       18106.00     79063.10
  286.83        2971.00           1504       15440.00     67395.41
  286.86        2971.25           1507       13638.00     59513.17
  286.90        2971.50           1510       11431.00     49863.95
  286.93        2971.75           1514        8915.00     38869.89
  286.96        2972.00           1517        7159.00     31200.64
  286.99        2972.25           1520        5364.00     23364.35
  287.02        2972.50           1524        3398.00     14785.33
  287.05        2972.75           1527        2126.00      9236.83
  287.09        2973.00           1530        1044.00      4518.42
  287.12        2973.25           1534         414.00      1771.66
  287.15        2973.50           1537         284.00      1204.92
  287.18        2973.75           1540         222.00       934.64
  287.21        2974.00           1544         146.00       603.32
  287.25        2974.25           1547         128.00       524.85
  287.28        2974.50           1550          88.00       350.48
  287.31        2974.75           1554          66.00       254.58
  287.34        2975.00           1557          51.00       189.19
  287.37        2975.25           1561          47.00       171.75
  287.40        2975.50           1564          43.00       154.32
  287.43        2975.75           1567          43.00       154.32
  287.47        2976.00           1571          47.00       171.75
  287.50        2976.25           1574          52.00       193.55
  287.53        2976.50           1577          39.00       136.88
  287.56        2976.75           1581          38.00       132.52
  287.59        2977.00           1584          35.00       119.44
  287.63        2977.25           1587          35.00       119.44
  287.66        2977.50           1591          33.00       110.72
  287.69        2977.75           1594          42.00       149.96
  287.72        2978.00           1597          45.00       163.03
  287.75        2978.25           1601          38.00       132.52
  287.78        2978.50           1604          31.00       102.01
  287.81        2978.75           1607          34.00       115.08
  287.85        2979.00           1611          36.00       123.80
  287.88        2979.25           1614          30.00        97.65
  287.91        2979.50           1617          36.00       123.80
  287.94        2979.75           1621          32.00       106.36
  287.97        2980.00           1624          36.00       123.80
  288.00        2980.25           1628          37.00       128.16
  288.03        2980.50           1631          33.00       110.72
  288.07        2980.75           1634          34.00       115.08
  288.10        2981.00           1638          33.00       110.72
  288.13        2981.25           1641          33.00       110.72
  288.16        2981.50           1644          33.00       110.72
  288.19        2981.75           1648          32.00       106.36
  288.22        2982.00           1651          30.00        97.65
  288.25        2982.25           1654          37.00       128.16
  288.29        2982.50           1658          30.00        97.65
  288.32        2982.75           1661          28.00        88.93
  288.35        2983.00           1664          29.00        93.29
  288.38        2983.25           1668          30.00        97.65
  288.41        2983.50           1671          28.00        88.93
  288.44        2983.75           1674          32.00       106.36
  288.48        2984.00           1678          34.00       115.08
HS scan finished at 04:48:42
end
************************************************************
  HS Scan of (1) Internal mercury lamp
************************************************************
Integration time is 0.2294 seconds per sample
dh180519Izana 28.3081 16.4992 2.857833pr770
************************************************************
Dead Time -------------------------  2.7E-08 
Number of Cycles Used -------------  4 
Starting Wavelength (Angstroms) ---  2950 
Final Wavelength (Angstoms) -------  2984 
Wavelength Increment (Angstroms) --  .25 
Filter Wheel #1 Position ---------- (1) Ground quartz diffuser (ND=2.32)
Filter Wheel #2 Position ---------- (1) Neutral Density 0.494



************************************************************
HS scan start time = 21:55:17
Dark Count =  6.2 


Time (GMT)  Wavelength (Ang)  Step Number  Raw Counts  Counts/Second

 1315.61        2950.00           1224          45.00       169.14
 1315.68        2950.25           1227          40.00       147.34
 1315.71        2950.50           1230          36.00       129.90
 1315.74        2950.75           1234          33.00       116.83
 1315.77        2951.00           1237          30.00       103.75
 1315.81        2951.25           1240          35.00       125.55
 1315.84        2951.50           1244          29.00        99.39
 1315.87        2951.75           1247          33.00       116.83
 1315.90        2952.00           1250          36.00       129.90
 1315.93        2952.25           1254          29.00        99.39
 1315.96        2952.50           1257          40.00       147.34
 1315.99        2952.75           1260          34.00       121.19
 1316.03        2953.00           1264          34.00       121.19
 1316.06        2953.25           1267          43.00       160.42
 1316.09        2953.50           1270          34.00       121.19
 1316.12        2953.75           1274          27.00        90.67
 1316.15        2954.00           1277          31.00       108.11
 1316.18        2954.25           1280          41.00       151.70
 1316.21        2954.50           1284          32.00       112.47
 1316.25        2954.75           1287          39.00       142.98
 1316.28        2955.00           1290          33.00       116.83
 1316.31        2955.25           1294          34.00       121.19
 1316.34        2955.50           1297          36.00       129.90
 1316.37        2955.75           1300          37.00       134.26
 1316.40        2956.00           1304          39.00       142.98
 1316.44        2956.25           1307          35.00       125.55
 1316.47        2956.50           1310          30.00       103.75
 1316.50        2956.75           1314          35.00       125.55
 1316.53        2957.00           1317          40.00       147.34
 1316.56        2957.25           1320          34.00       121.19
 1316.59        2957.50           1324          41.00       151.70
 1316.62        2957.75           1327          44.00       164.78
 1316.65        2958.00           1330          41.00       151.70
 1316.69        2958.25           1334          43.00       160.42
 1316.72        2958.50           1337          42.00       156.06
 1316.75        2958.75           1340          49.00       186.57
 1316.78        2959.00           1344          48.00       182.22
 1316.81        2959.25           1347          59.00       230.17
 1316.84        2959.50           1350          64.00       251.96
 1316.87        2959.75           1354          94.00       382.74
 1316.91        2960.00           1357         128.00       530.96
 1316.94        2960.25           1360         152.00       635.58
 1316.97        2960.50           1364         199.00       840.47
 1317.00        2960.75           1367         246.00      1045.37
 1317.03        2961.00           1370         296.00      1263.34
 1317.06        2961.25           1373         378.00      1620.82
 1317.09        2961.50           1377         985.00      4267.28
 1317.12        2961.75           1380        1861.00      8087.21
 1317.16        2962.00           1383        3103.00     13504.49
 1317.19        2962.25           1387        5137.00     22379.69
 1317.22        2962.50           1390        6750.00     29420.92
 1317.25        2962.75           1393        8623.00     37600.49
 1317.28        2963.00           1397       11337.00     49459.21
 1317.31        2963.25           1400       13389.00     58430.38
 1317.34        2963.50           1404       16201.00     70731.28
 1317.38        2963.75           1407       18033.00     78749.65
 1317.41        2964.00           1410       19771.00     86359.81
 1317.44        2964.25           1414       21969.00     95988.65
 1317.47        2964.50           1417       23644.00    103329.70
 1317.50        2964.75           1420       25751.00    112568.30
 1317.54        2965.00           1424       28325.00    123860.80
 1317.57        2965.25           1427       30248.00    132301.80
 1317.60        2965.50           1430       32044.00    140188.80
 1317.63        2965.75           1434       34401.00    150544.40
 1317.66        2966.00           1437       35976.00    157467.60
 1317.69        2966.25           1440       37967.00    166223.00
 1317.73        2966.50           1444       39672.00    173724.00
 1317.76        2966.75           1447       40585.00    177742.00
 1317.79        2967.00           1450       40846.00    178890.70
 1317.82        2967.25           1454       40898.00    179119.60
 1317.85        2967.50           1457       41014.00    179630.20
 1317.88        2967.75           1460       40697.00    178234.90
 1317.92        2968.00           1464       39847.00    174494.10
 1317.95        2968.25           1467       38006.00    166394.50
 1317.98        2968.50           1470       37032.00    162110.80
 1318.01        2968.75           1474       34333.00    150245.60
 1318.04        2969.00           1477       32333.00    141458.20
 1318.08        2969.25           1480       30431.00    133105.20
 1318.11        2969.50           1484       27905.00    122017.70
 1318.14        2969.75           1487       25855.00    113024.40
 1318.17        2970.00           1490       24352.00    106433.60
 1318.20        2970.25           1494       21879.00     95594.28
 1318.23        2970.50           1497       20030.00     87494.16
 1318.27        2970.75           1500       17878.00     78071.11
 1318.30        2971.00           1504       15272.00     66666.53
 1318.33        2971.25           1507       13389.00     58430.38
 1318.36        2971.50           1510       11456.00     49979.35
 1318.39        2971.75           1514        9017.00     39321.59
 1318.43        2972.00           1517        7434.00     32407.60
 1318.46        2972.25           1520        5529.00     24090.64
 1318.49        2972.50           1524        2901.00     12623.31
 1318.52        2972.75           1527        1738.00      7550.80
 1318.55        2973.00           1530         800.00      3460.65
 1318.58        2973.25           1534         352.00      1507.47
 1318.61        2973.50           1537         259.00      1102.04
 1318.65        2973.75           1540         208.00       879.71
 1318.68        2974.00           1544         156.00       653.02
 1318.71        2974.25           1547         106.00       435.05
 1318.74        2974.50           1550          84.00       339.15
 1318.77        2974.75           1554          62.00       243.24
 1318.80        2975.00           1557          54.00       208.37
 1318.84        2975.25           1561          58.00       225.81
 1318.87        2975.50           1564          52.00       199.65
 1318.90        2975.75           1567          45.00       169.14
 1318.93        2976.00           1571          59.00       230.17
 1318.96        2976.25           1574          43.00       160.42
 1318.99        2976.50           1577          40.00       147.34
 1319.03        2976.75           1581          43.00       160.42
 1319.06        2977.00           1584          41.00       151.70
 1319.09        2977.25           1587          43.00       160.42
 1319.12        2977.50           1591          36.00       129.90
 1319.15        2977.75           1594          37.00       134.26
 1319.18        2978.00           1597          35.00       125.55
 1319.21        2978.25           1601          49.00       186.57
 1319.24        2978.50           1604          34.00       121.19
 1319.28        2978.75           1607          35.00       125.55
 1319.31        2979.00           1611          35.00       125.55
 1319.34        2979.25           1614          30.00       103.75
 1319.37        2979.50           1617          39.00       142.98
 1319.40        2979.75           1621          36.00       129.90
 1319.43        2980.00           1624          27.00        90.67
 1319.47        2980.25           1628          31.00       108.11
 1319.50        2980.50           1631          33.00       116.83
 1319.53        2980.75           1634          28.00        95.03
 1319.56        2981.00           1638          31.00       108.11
 1319.59        2981.25           1641          31.00       108.11
 1319.62        2981.50           1644          32.00       112.47
 1319.66        2981.75           1648          32.00       112.47
 1319.69        2982.00           1651          32.00       112.47
 1319.72        2982.25           1654          29.00        99.39
 1319.75        2982.50           1658          29.00        99.39
 1319.78        2982.75           1661          24.00        77.59
 1319.81        2983.00           1664          31.00       108.11
 1319.84        2983.25           1668          32.00       112.47
 1319.88        2983.50           1671          29.00        99.39
 1319.91        2983.75           1674          29.00        99.39
 1319.94        2984.00           1678          35.00       125.55
HS scan finished at 22:00:10
end
