************************************************************
  HS Scan of (1) Internal mercury lamp
************************************************************
Integration time is 0.2294 seconds per sample
dh210519Izana 28.3081 16.4992 2.804185pr770
************************************************************
Dead Time -------------------------  2.7E-08 
Number of Cycles Used -------------  4 
Starting Wavelength (Angstroms) ---  2950 
Final Wavelength (Angstoms) -------  2984 
Wavelength Increment (Angstroms) --  .25 
Filter Wheel #1 Position ---------- (1) Ground quartz diffuser (ND=2.32)
Filter Wheel #2 Position ---------- (1) Neutral Density 0.494



************************************************************
HS scan start time = 04:41:47
Dark Count =  7.6 


Time (GMT)  Wavelength (Ang)  Step Number  Raw Counts  Counts/Second

  282.11        2950.00           1224          34.00       115.08
  282.17        2950.25           1227          40.00       141.24
  282.20        2950.50           1230          40.00       141.24
  282.24        2950.75           1234          44.00       158.68
  282.27        2951.00           1237          32.00       106.36
  282.30        2951.25           1240          27.00        84.57
  282.33        2951.50           1244          34.00       115.08
  282.36        2951.75           1247          32.00       106.36
  282.39        2952.00           1250          35.00       119.44
  282.43        2952.25           1254          30.00        97.65
  282.46        2952.50           1257          31.00       102.01
  282.49        2952.75           1260          30.00        97.65
  282.52        2953.00           1264          34.00       115.08
  282.55        2953.25           1267          36.00       123.80
  282.58        2953.50           1270          37.00       128.16
  282.61        2953.75           1274          39.00       136.88
  282.65        2954.00           1277          39.00       136.88
  282.68        2954.25           1280          41.00       145.60
  282.71        2954.50           1284          37.00       128.16
  282.74        2954.75           1287          39.00       136.88
  282.77        2955.00           1290          30.00        97.65
  282.80        2955.25           1294          34.00       115.08
  282.83        2955.50           1297          33.00       110.72
  282.87        2955.75           1300          34.00       115.08
  282.90        2956.00           1304          31.00       102.01
  282.93        2956.25           1307          35.00       119.44
  282.96        2956.50           1310          37.00       128.16
  282.99        2956.75           1314          42.00       149.96
  283.02        2957.00           1317          42.00       149.96
  283.06        2957.25           1320          39.00       136.88
  283.09        2957.50           1324          40.00       141.24
  283.12        2957.75           1327          38.00       132.52
  283.15        2958.00           1330          41.00       145.60
  283.18        2958.25           1334          45.00       163.03
  283.21        2958.50           1337          47.00       171.75
  283.25        2958.75           1340          49.00       180.47
  283.28        2959.00           1344          46.00       167.39
  283.31        2959.25           1347          50.00       184.83
  283.34        2959.50           1350          59.00       224.06
  283.37        2959.75           1354          77.00       302.53
  283.40        2960.00           1357         129.00       529.21
  283.44        2960.25           1360         147.00       607.68
  283.47        2960.50           1364         183.00       764.62
  283.50        2960.75           1367         237.00      1000.03
  283.53        2961.00           1370         267.00      1130.81
  283.56        2961.25           1373         319.00      1357.50
  283.59        2961.50           1377         657.00      2831.08
  283.63        2961.75           1380        1424.00      6175.40
  283.66        2962.00           1383        2596.00     11286.79
  283.69        2962.25           1387        4646.00     20230.75
  283.72        2962.50           1390        6217.00     27087.81
  283.75        2962.75           1393        8070.00     35179.00
  283.78        2963.00           1397       10730.00     46800.17
  283.82        2963.25           1400       12774.00     55735.08
  283.85        2963.50           1404       15670.00     68401.72
  283.88        2963.75           1407       17338.00     75701.22
  283.91        2964.00           1410       19162.00     83686.71
  283.94        2964.25           1414       21632.00     94505.88
  283.97        2964.50           1417       23288.00    101763.10
  284.01        2964.75           1420       25375.00    110913.20
  284.04        2965.00           1424       27405.00    119817.70
  284.07        2965.25           1427       28913.00    126435.30
  284.10        2965.50           1430       30796.00    134701.70
  284.13        2965.75           1434       33226.00    145375.10
  284.17        2966.00           1437       34368.00    150393.20
  284.20        2966.25           1440       36097.00    157993.40
  284.23        2966.50           1444       38242.00    167426.50
  284.26        2966.75           1447       39260.00    171905.00
  284.29        2967.00           1450       39803.00    174294.30
  284.32        2967.25           1454       39959.00    174980.80
  284.36        2967.50           1457       39863.00    174558.40
  284.39        2967.75           1460       39642.00    173585.90
  284.42        2968.00           1464       38813.00    169938.40
  284.45        2968.25           1467       37721.00    165134.80
  284.48        2968.50           1470       36044.00    157760.40
  284.51        2968.75           1474       33789.00    147848.90
  284.55        2969.00           1477       32037.00    140151.90
  284.58        2969.25           1480       30214.00    132146.40
  284.61        2969.50           1484       27719.00    121195.40
  284.64        2969.75           1487       26049.00    113869.20
  284.67        2970.00           1490       24409.00    106677.40
  284.70        2970.25           1494       21704.00     94821.36
  284.74        2970.50           1497       19745.00     86239.81
  284.77        2970.75           1500       17843.00     77911.77
  284.80        2971.00           1504       15314.00     66844.16
  284.83        2971.25           1507       13595.00     59325.12
  284.86        2971.50           1510       11825.00     51586.19
  284.89        2971.75           1514        9440.00     41163.42
  284.93        2972.00           1517        7770.00     33868.80
  284.96        2972.25           1520        6025.00     26249.63
  284.99        2972.50           1524        3788.00     16486.85
  285.02        2972.75           1527        2295.00      9973.92
  285.05        2973.00           1530        1031.00      4461.74
  285.08        2973.25           1534         431.00      1845.78
  285.11        2973.50           1537         263.00      1113.37
  285.15        2973.75           1540         210.00       882.32
  285.18        2974.00           1544         158.00       655.63
  285.21        2974.25           1547         116.00       472.54
  285.24        2974.50           1550          93.00       372.28
  285.27        2974.75           1554          62.00       237.14
  285.30        2975.00           1557          52.00       193.55
  285.34        2975.25           1561          50.00       184.83
  285.37        2975.50           1564          55.00       206.63
  285.40        2975.75           1567          50.00       184.83
  285.43        2976.00           1571          39.00       136.88
  285.46        2976.25           1574          49.00       180.47
  285.49        2976.50           1577          38.00       132.52
  285.53        2976.75           1581          39.00       136.88
  285.56        2977.00           1584          42.00       149.96
  285.59        2977.25           1587          45.00       163.03
  285.62        2977.50           1591          38.00       132.52
  285.65        2977.75           1594          46.00       167.39
  285.68        2978.00           1597          43.00       154.32
  285.72        2978.25           1601          39.00       136.88
  285.75        2978.50           1604          48.00       176.11
  285.78        2978.75           1607          36.00       123.80
  285.81        2979.00           1611          41.00       145.60
  285.84        2979.25           1614          36.00       123.80
  285.87        2979.50           1617          33.00       110.72
  285.90        2979.75           1621          29.00        93.29
  285.94        2980.00           1624          33.00       110.72
  285.97        2980.25           1628          37.00       128.16
  286.00        2980.50           1631          33.00       110.72
  286.03        2980.75           1634          33.00       110.72
  286.06        2981.00           1638          32.00       106.36
  286.09        2981.25           1641          36.00       123.80
  286.12        2981.50           1644          42.00       149.96
  286.16        2981.75           1648          31.00       102.01
  286.19        2982.00           1651          28.00        88.93
  286.22        2982.25           1654          36.00       123.80
  286.25        2982.50           1658          37.00       128.16
  286.28        2982.75           1661          34.00       115.08
  286.31        2983.00           1664          32.00       106.36
  286.35        2983.25           1668          29.00        93.29
  286.38        2983.50           1671          29.00        93.29
  286.41        2983.75           1674          33.00       110.72
  286.44        2984.00           1678          32.00       106.36
HS scan finished at 04:46:40
end
************************************************************
  HS Scan of (1) Internal mercury lamp
************************************************************
Integration time is 0.2294 seconds per sample
dh210519Izana 28.3081 16.4992 2.911481pr770
************************************************************
Dead Time -------------------------  2.7E-08 
Number of Cycles Used -------------  4 
Starting Wavelength (Angstroms) ---  2950 
Final Wavelength (Angstoms) -------  2984 
Wavelength Increment (Angstroms) --  .25 
Filter Wheel #1 Position ---------- (1) Ground quartz diffuser (ND=2.32)
Filter Wheel #2 Position ---------- (1) Neutral Density 0.494



************************************************************
HS scan start time = 21:50:03
Dark Count =  5.9 


Time (GMT)  Wavelength (Ang)  Step Number  Raw Counts  Counts/Second

 1310.38        2950.00           1224          38.00       139.93
 1310.45        2950.25           1227          34.00       122.49
 1310.48        2950.50           1230          30.00       105.06
 1310.51        2950.75           1234          25.00        83.26
 1310.55        2951.00           1237          35.00       126.85
 1310.58        2951.25           1240          33.00       118.13
 1310.61        2951.50           1244          27.00        91.98
 1310.64        2951.75           1247          33.00       118.13
 1310.67        2952.00           1250          33.00       118.13
 1310.70        2952.25           1254          34.00       122.49
 1310.73        2952.50           1257          34.00       122.49
 1310.76        2952.75           1260          41.00       153.01
 1310.80        2953.00           1264          34.00       122.49
 1310.83        2953.25           1267          33.00       118.13
 1310.86        2953.50           1270          36.00       131.21
 1310.89        2953.75           1274          35.00       126.85
 1310.92        2954.00           1277          26.00        87.62
 1310.95        2954.25           1280          33.00       118.13
 1310.98        2954.50           1284          33.00       118.13
 1311.02        2954.75           1287          43.00       161.73
 1311.05        2955.00           1290          30.00       105.06
 1311.08        2955.25           1294          30.00       105.06
 1311.11        2955.50           1297          36.00       131.21
 1311.14        2955.75           1300          29.00       100.70
 1311.17        2956.00           1304          34.00       122.49
 1311.20        2956.25           1307          39.00       144.29
 1311.23        2956.50           1310          39.00       144.29
 1311.27        2956.75           1314          37.00       135.57
 1311.30        2957.00           1317          38.00       139.93
 1311.33        2957.25           1320          36.00       131.21
 1311.36        2957.50           1324          43.00       161.73
 1311.39        2957.75           1327          38.00       139.93
 1311.43        2958.00           1330          48.00       183.52
 1311.46        2958.25           1334          46.00       174.80
 1311.49        2958.50           1337          44.00       166.09
 1311.52        2958.75           1340          51.00       196.60
 1311.55        2959.00           1344          49.00       187.88
 1311.59        2959.25           1347          51.00       196.60
 1311.62        2959.50           1350          78.00       314.30
 1311.65        2959.75           1354          92.00       375.33
 1311.68        2960.00           1357         138.00       575.86
 1311.71        2960.25           1360         161.00       676.12
 1311.74        2960.50           1364         203.00       859.22
 1311.77        2960.75           1367         248.00      1055.39
 1311.81        2961.00           1370         296.00      1264.65
 1311.84        2961.25           1373         349.00      1495.70
 1311.87        2961.50           1377        1065.00      4617.40
 1311.90        2961.75           1380        2106.00      9157.02
 1311.93        2962.00           1383        3404.00     14818.92
 1311.96        2962.25           1387        5773.00     25157.01
 1312.00        2962.50           1390        7714.00     33631.66
 1312.03        2962.75           1393        9320.00     40646.59
 1312.06        2963.00           1397       11762.00     51318.23
 1312.09        2963.25           1400       13314.00     58103.72
 1312.12        2963.50           1404       15648.00     68312.90
 1312.16        2963.75           1407       17425.00     76089.46
 1312.19        2964.00           1410       19415.00     84802.06
 1312.22        2964.25           1414       21983.00     96051.31
 1312.25        2964.50           1417       23783.00    103940.40
 1312.28        2964.75           1420       25711.00    112394.20
 1312.31        2965.00           1424       27776.00    121453.00
 1312.35        2965.25           1427       29451.00    128804.20
 1312.38        2965.50           1430       31534.00    137950.10
 1312.41        2965.75           1434       34158.00    149477.90
 1312.44        2966.00           1437       35958.00    157389.70
 1312.47        2966.25           1440       37759.00    165309.40
 1312.51        2966.50           1444       39561.00    173236.90
 1312.54        2966.75           1447       40259.00    176308.50
 1312.57        2967.00           1450       40523.00    177470.40
 1312.60        2967.25           1454       40638.00    177976.60
 1312.63        2967.50           1457       40765.00    178535.60
 1312.66        2967.75           1460       40259.00    176308.50
 1312.70        2968.00           1464       39202.00    171657.30
 1312.73        2968.25           1467       37947.00    166136.40
 1312.76        2968.50           1470       36166.00    158304.20
 1312.79        2968.75           1474       34082.00    149143.90
 1312.82        2969.00           1477       32262.00    141147.60
 1312.85        2969.25           1480       30503.00    133422.70
 1312.89        2969.50           1484       27835.00    121711.90
 1312.92        2969.75           1487       25909.00    113262.60
 1312.95        2970.00           1490       23886.00    104391.90
 1312.98        2970.25           1494       21361.00     93325.97
 1313.01        2970.50           1497       19386.00     84675.06
 1313.04        2970.75           1500       17634.00     77004.31
 1313.08        2971.00           1504       15545.00     67862.25
 1313.11        2971.25           1507       13758.00     60045.40
 1313.14        2971.50           1510       11873.00     51803.45
 1313.17        2971.75           1514        9406.00     41022.31
 1313.20        2972.00           1517        7583.00     33059.58
 1313.23        2972.25           1520        5527.00     24083.22
 1313.26        2972.50           1524        3059.00     13313.85
 1313.30        2972.75           1527        1928.00      8380.71
 1313.33        2973.00           1530         876.00      3793.33
 1313.36        2973.25           1534         366.00      1569.81
 1313.39        2973.50           1537         242.00      1029.24
 1313.42        2973.75           1540         193.00       815.62
 1313.45        2974.00           1544         142.00       593.30
 1313.49        2974.25           1547         102.00       418.92
 1313.52        2974.50           1550          79.00       318.66
 1313.55        2974.75           1554          60.00       235.83
 1313.58        2975.00           1557          50.00       192.24
 1313.61        2975.25           1561          54.00       209.68
 1313.64        2975.50           1564          44.00       166.09
 1313.67        2975.75           1567          43.00       161.73
 1313.71        2976.00           1571          45.00       170.45
 1313.74        2976.25           1574          45.00       170.45
 1313.77        2976.50           1577          44.00       166.09
 1313.80        2976.75           1581          47.00       179.16
 1313.83        2977.00           1584          37.00       135.57
 1313.86        2977.25           1587          41.00       153.01
 1313.89        2977.50           1591          34.00       122.49
 1313.93        2977.75           1594          35.00       126.85
 1313.96        2978.00           1597          41.00       153.01
 1313.99        2978.25           1601          40.00       148.65
 1314.02        2978.50           1604          38.00       139.93
 1314.05        2978.75           1607          34.00       122.49
 1314.08        2979.00           1611          33.00       118.13
 1314.12        2979.25           1614          33.00       118.13
 1314.15        2979.50           1617          29.00       100.70
 1314.18        2979.75           1621          33.00       118.13
 1314.21        2980.00           1624          40.00       148.65
 1314.24        2980.25           1628          34.00       122.49
 1314.27        2980.50           1631          29.00       100.70
 1314.30        2980.75           1634          41.00       153.01
 1314.34        2981.00           1638          29.00       100.70
 1314.37        2981.25           1641          27.00        91.98
 1314.40        2981.50           1644          30.00       105.06
 1314.43        2981.75           1648          35.00       126.85
 1314.46        2982.00           1651          27.00        91.98
 1314.49        2982.25           1654          34.00       122.49
 1314.52        2982.50           1658          33.00       118.13
 1314.56        2982.75           1661          31.00       109.42
 1314.59        2983.00           1664          28.00        96.34
 1314.62        2983.25           1668          27.00        91.98
 1314.65        2983.50           1671          29.00       100.70
 1314.68        2983.75           1674          30.00       105.06
 1314.71        2984.00           1678          25.00        83.26
HS scan finished at 21:54:56
end
