************************************************************
  HS Scan of (1) Internal mercury lamp
************************************************************
Integration time is 0.2294 seconds per sample
dh270519Izana 28.3081 16.4992 2.857833pr770
************************************************************
Dead Time -------------------------  2.7E-08 
Number of Cycles Used -------------  4 
Starting Wavelength (Angstroms) ---  2950 
Final Wavelength (Angstoms) -------  2984 
Wavelength Increment (Angstroms) --  .25 
Filter Wheel #1 Position ---------- (1) Ground quartz diffuser (ND=2.32)
Filter Wheel #2 Position ---------- (1) Neutral Density 0.494



************************************************************
HS scan start time = 04:39:35
Dark Count =  7.4 


Time (GMT)  Wavelength (Ang)  Step Number  Raw Counts  Counts/Second

  279.91        2950.00           1224          34.00       115.96
  279.97        2950.25           1227          29.00        94.16
  280.01        2950.50           1230          36.00       124.67
  280.04        2950.75           1234          28.00        89.80
  280.07        2951.00           1237          27.00        85.44
  280.10        2951.25           1240          27.00        85.44
  280.13        2951.50           1244          33.00       111.60
  280.16        2951.75           1247          30.00        98.52
  280.19        2952.00           1250          32.00       107.24
  280.23        2952.25           1254          40.00       142.11
  280.26        2952.50           1257          33.00       111.60
  280.29        2952.75           1260          31.00       102.88
  280.32        2953.00           1264          36.00       124.67
  280.35        2953.25           1267          33.00       111.60
  280.38        2953.50           1270          30.00        98.52
  280.42        2953.75           1274          34.00       115.96
  280.45        2954.00           1277          39.00       137.75
  280.48        2954.25           1280          37.00       129.03
  280.51        2954.50           1284          32.00       107.24
  280.54        2954.75           1287          40.00       142.11
  280.57        2955.00           1290          35.00       120.31
  280.60        2955.25           1294          35.00       120.31
  280.63        2955.50           1297          41.00       146.47
  280.67        2955.75           1300          39.00       137.75
  280.70        2956.00           1304          30.00        98.52
  280.73        2956.25           1307          30.00        98.52
  280.76        2956.50           1310          44.00       159.55
  280.79        2956.75           1314          39.00       137.75
  280.82        2957.00           1317          36.00       124.67
  280.86        2957.25           1320          34.00       115.96
  280.89        2957.50           1324          38.00       133.39
  280.92        2957.75           1327          38.00       133.39
  280.95        2958.00           1330          43.00       155.19
  280.98        2958.25           1334          43.00       155.19
  281.01        2958.50           1337          41.00       146.47
  281.04        2958.75           1340          44.00       159.55
  281.08        2959.00           1344          47.00       172.63
  281.11        2959.25           1347          50.00       185.70
  281.14        2959.50           1350          72.00       281.61
  281.17        2959.75           1354          75.00       294.68
  281.20        2960.00           1357         117.00       477.77
  281.23        2960.25           1360         152.00       630.35
  281.27        2960.50           1364         195.00       817.80
  281.30        2960.75           1367         241.00      1018.34
  281.33        2961.00           1370         292.00      1240.67
  281.36        2961.25           1373         340.00      1449.93
  281.39        2961.50           1377         670.00      2888.63
  281.42        2961.75           1380        1258.00      5452.42
  281.46        2962.00           1383        2337.00     10157.97
  281.49        2962.25           1387        4785.00     20838.23
  281.52        2962.50           1390        6814.00     29695.12
  281.55        2962.75           1393        8811.00     38416.46
  281.58        2963.00           1397       11436.00     49886.68
  281.62        2963.25           1400       13393.00     58442.63
  281.65        2963.50           1404       15884.00     69338.93
  281.68        2963.75           1407       17941.00     78341.65
  281.71        2964.00           1410       19529.00     85294.72
  281.74        2964.25           1414       21639.00     94537.42
  281.77        2964.50           1417       23437.00    102417.10
  281.81        2964.75           1420       25171.00    110019.50
  281.84        2965.00           1424       27177.00    118818.20
  281.87        2965.25           1427       28709.00    125540.80
  281.90        2965.50           1430       30549.00    133618.10
  281.93        2965.75           1434       32832.00    143645.00
  281.96        2966.00           1437       34877.00    152631.20
  282.00        2966.25           1440       36932.00    161665.80
  282.03        2966.50           1444       38888.00    170269.20
  282.06        2966.75           1447       39599.00    173397.50
  282.09        2967.00           1450       39967.00    175016.90
  282.12        2967.25           1454       40107.00    175633.00
  282.15        2967.50           1457       40236.00    176200.70
  282.19        2967.75           1460       39995.00    175140.10
  282.22        2968.00           1464       38516.00    168632.70
  282.25        2968.25           1467       37434.00    163873.40
  282.28        2968.50           1470       35790.00    156644.60
  282.31        2968.75           1474       33814.00    147959.60
  282.34        2969.00           1477       32538.00    142353.40
  282.38        2969.25           1480       30772.00    134597.30
  282.41        2969.50           1484       27775.00    121442.00
  282.44        2969.75           1487       25933.00    113361.30
  282.47        2970.00           1490       24115.00    105389.30
  282.50        2970.25           1494       21501.00     93932.79
  282.53        2970.50           1497       19632.00     85745.80
  282.57        2970.75           1500       17672.00     77164.08
  282.60        2971.00           1504       15167.00     66201.93
  282.63        2971.25           1507       13573.00     59229.78
  282.66        2971.50           1510       11848.00     51687.60
  282.69        2971.75           1514        9289.00     40504.61
  282.73        2972.00           1517        7419.00     32336.85
  282.76        2972.25           1520        5632.00     24535.00
  282.79        2972.50           1524        3326.00     14472.09
  282.82        2972.75           1527        2165.00      9407.80
  282.85        2973.00           1530        1061.00      4593.42
  282.88        2973.25           1534         457.00      1960.00
  282.91        2973.50           1537         274.00      1162.20
  282.95        2973.75           1540         190.00       796.01
  282.98        2974.00           1544         138.00       569.32
  283.01        2974.25           1547         106.00       429.82
  283.04        2974.50           1550          87.00       347.00
  283.07        2974.75           1554          68.00       264.17
  283.10        2975.00           1557          52.00       194.42
  283.13        2975.25           1561          45.00       163.91
  283.17        2975.50           1564          46.00       168.27
  283.20        2975.75           1567          47.00       172.63
  283.23        2976.00           1571          45.00       163.91
  283.26        2976.25           1574          42.00       150.83
  283.29        2976.50           1577          41.00       146.47
  283.32        2976.75           1581          41.00       146.47
  283.35        2977.00           1584          35.00       120.31
  283.39        2977.25           1587          38.00       133.39
  283.42        2977.50           1591          35.00       120.31
  283.45        2977.75           1594          37.00       129.03
  283.48        2978.00           1597          36.00       124.67
  283.51        2978.25           1601          39.00       137.75
  283.54        2978.50           1604          28.00        89.80
  283.57        2978.75           1607          34.00       115.96
  283.60        2979.00           1611          41.00       146.47
  283.64        2979.25           1614          37.00       129.03
  283.67        2979.50           1617          28.00        89.80
  283.70        2979.75           1621          26.00        81.08
  283.73        2980.00           1624          32.00       107.24
  283.76        2980.25           1628          39.00       137.75
  283.79        2980.50           1631          30.00        98.52
  283.82        2980.75           1634          33.00       111.60
  283.86        2981.00           1638          32.00       107.24
  283.89        2981.25           1641          32.00       107.24
  283.92        2981.50           1644          28.00        89.80
  283.95        2981.75           1648          29.00        94.16
  283.98        2982.00           1651          32.00       107.24
  284.01        2982.25           1654          30.00        98.52
  284.04        2982.50           1658          31.00       102.88
  284.08        2982.75           1661          28.00        89.80
  284.11        2983.00           1664          33.00       111.60
  284.14        2983.25           1668          31.00       102.88
  284.17        2983.50           1671          24.00        72.36
  284.20        2983.75           1674          35.00       120.31
  284.23        2984.00           1678          26.00        81.08
HS scan finished at 04:44:27
end
************************************************************
  HS Scan of (1) Internal mercury lamp
************************************************************
Integration time is 0.2294 seconds per sample
dh270519Izana 28.3081 16.4992 2.857833pr770
************************************************************
Dead Time -------------------------  2.7E-08 
Number of Cycles Used -------------  4 
Starting Wavelength (Angstroms) ---  2950 
Final Wavelength (Angstoms) -------  2984 
Wavelength Increment (Angstroms) --  .25 
Filter Wheel #1 Position ---------- (1) Ground quartz diffuser (ND=2.32)
Filter Wheel #2 Position ---------- (1) Neutral Density 0.494



************************************************************
HS scan start time = 21:46:26
Dark Count =  4.7 


Time (GMT)  Wavelength (Ang)  Step Number  Raw Counts  Counts/Second

 1306.76        2950.00           1224          34.00       127.72
 1306.83        2950.25           1227          33.00       123.37
 1306.86        2950.50           1230          28.00       101.57
 1306.89        2950.75           1234          31.00       114.65
 1306.92        2951.00           1237          27.00        97.21
 1306.95        2951.25           1240          33.00       123.37
 1306.99        2951.50           1244          30.00       110.29
 1307.02        2951.75           1247          32.00       119.01
 1307.05        2952.00           1250          33.00       123.37
 1307.08        2952.25           1254          29.00       105.93
 1307.11        2952.50           1257          31.00       114.65
 1307.14        2952.75           1260          32.00       119.01
 1307.17        2953.00           1264          31.00       114.65
 1307.21        2953.25           1267          40.00       153.88
 1307.24        2953.50           1270          31.00       114.65
 1307.27        2953.75           1274          35.00       132.08
 1307.30        2954.00           1277          33.00       123.37
 1307.33        2954.25           1280          36.00       136.44
 1307.36        2954.50           1284          32.00       119.01
 1307.39        2954.75           1287          32.00       119.01
 1307.43        2955.00           1290          39.00       149.52
 1307.46        2955.25           1294          30.00       110.29
 1307.49        2955.50           1297          33.00       123.37
 1307.52        2955.75           1300          30.00       110.29
 1307.55        2956.00           1304          33.00       123.37
 1307.59        2956.25           1307          32.00       119.01
 1307.62        2956.50           1310          33.00       123.37
 1307.65        2956.75           1314          37.00       140.80
 1307.68        2957.00           1317          40.00       153.88
 1307.71        2957.25           1320          34.00       127.72
 1307.74        2957.50           1324          32.00       119.01
 1307.77        2957.75           1327          37.00       140.80
 1307.81        2958.00           1330          36.00       136.44
 1307.84        2958.25           1334          35.00       132.08
 1307.87        2958.50           1337          37.00       140.80
 1307.90        2958.75           1340          42.00       162.60
 1307.93        2959.00           1344          41.00       158.24
 1307.96        2959.25           1347          43.00       166.96
 1308.00        2959.50           1350          57.00       227.99
 1308.04        2959.75           1354          76.00       310.81
 1308.08        2960.00           1357         107.00       445.95
 1308.12        2960.25           1360         148.00       624.68
 1308.15        2960.50           1364         197.00       838.29
 1308.18        2960.75           1367         225.00       960.36
 1308.22        2961.00           1370         255.00      1091.14
 1308.25        2961.25           1373         341.00      1466.06
 1308.29        2961.50           1377         823.00      3567.48
 1308.32        2961.75           1380        1667.00      7247.71
 1308.36        2962.00           1383        2841.00     12368.12
 1308.40        2962.25           1387        4751.00     20701.63
 1308.44        2962.50           1390        6294.00     27436.62
 1308.47        2962.75           1393        7744.00     33767.92
 1308.50        2963.00           1397       10259.00     44754.57
 1308.53        2963.25           1400       12206.00     53264.43
 1308.57        2963.50           1404       14819.00     64691.36
 1308.60        2963.75           1407       16609.00     72523.31
 1308.63        2964.00           1410       18440.00     80538.06
 1308.66        2964.25           1414       20239.00     88416.14
 1308.69        2964.50           1417       22030.00     96262.52
 1308.72        2964.75           1420       23761.00    103849.20
 1308.76        2965.00           1424       26051.00    113890.70
 1308.79        2965.25           1427       27758.00    121379.30
 1308.82        2965.50           1430       29782.00    130262.50
 1308.85        2965.75           1434       32348.00    141530.70
 1308.88        2966.00           1437       33673.00    147351.90
 1308.92        2966.25           1440       35304.00    154520.00
 1308.95        2966.50           1444       36976.00    161871.10
 1308.98        2966.75           1447       37843.00    165684.20
 1309.01        2967.00           1450       38235.00    167408.40
 1309.04        2967.25           1454       38185.00    167188.50
 1309.07        2967.50           1457       38334.00    167843.90
 1309.11        2967.75           1460       38001.00    166379.10
 1309.14        2968.00           1464       37111.00    162464.80
 1309.17        2968.25           1467       35919.00    157223.60
 1309.20        2968.50           1470       34560.00    151249.80
 1309.23        2968.75           1474       32326.00    141434.00
 1309.26        2969.00           1477       30477.00    133313.80
 1309.30        2969.25           1480       28510.00    124679.30
 1309.33        2969.50           1484       26199.00    114539.80
 1309.36        2969.75           1487       24265.00    106058.70
 1309.39        2970.00           1490       22695.00     99176.74
 1309.42        2970.25           1494       20537.00     89721.46
 1309.45        2970.50           1497       18901.00     82556.53
 1309.49        2970.75           1500       16990.00     74190.75
 1309.52        2971.00           1504       14593.00     63702.77
 1309.55        2971.25           1507       12821.00     55953.26
 1309.58        2971.50           1510       10920.00     47643.21
 1309.61        2971.75           1514        8601.00     37510.94
 1309.65        2972.00           1517        6945.00     30278.89
 1309.68        2972.25           1520        5286.00     23036.56
 1309.71        2972.50           1524        3018.00     13140.23
 1309.74        2972.75           1527        1839.00      7997.80
 1309.77        2973.00           1530         830.00      3598.00
 1309.81        2973.25           1534         373.00      1605.56
 1309.84        2973.50           1537         243.00      1038.83
 1309.87        2973.75           1540         188.00       799.06
 1309.90        2974.00           1544         158.00       668.28
 1309.93        2974.25           1547         121.00       506.98
 1309.96        2974.50           1550          89.00       367.48
 1310.00        2974.75           1554          66.00       267.22
 1310.03        2975.00           1557          48.00       188.75
 1310.06        2975.25           1561          54.00       214.91
 1310.09        2975.50           1564          38.00       145.16
 1310.12        2975.75           1567          43.00       166.96
 1310.15        2976.00           1571          40.00       153.88
 1310.18        2976.25           1574          50.00       197.47
 1310.22        2976.50           1577          42.00       162.60
 1310.25        2976.75           1581          36.00       136.44
 1310.28        2977.00           1584          39.00       149.52
 1310.31        2977.25           1587          32.00       119.01
 1310.34        2977.50           1591          42.00       162.60
 1310.37        2977.75           1594          32.00       119.01
 1310.41        2978.00           1597          35.00       132.08
 1310.44        2978.25           1601          36.00       136.44
 1310.47        2978.50           1604          43.00       166.96
 1310.50        2978.75           1607          33.00       123.37
 1310.53        2979.00           1611          35.00       132.08
 1310.56        2979.25           1614          36.00       136.44
 1310.60        2979.50           1617          31.00       114.65
 1310.63        2979.75           1621          32.00       119.01
 1310.66        2980.00           1624          34.00       127.72
 1310.69        2980.25           1628          27.00        97.21
 1310.72        2980.50           1631          32.00       119.01
 1310.75        2980.75           1634          33.00       123.37
 1310.79        2981.00           1638          24.00        84.13
 1310.82        2981.25           1641          35.00       132.08
 1310.85        2981.50           1644          27.00        97.21
 1310.88        2981.75           1648          30.00       110.29
 1310.91        2982.00           1651          26.00        92.85
 1310.94        2982.25           1654          30.00       110.29
 1310.97        2982.50           1658          28.00       101.57
 1311.01        2982.75           1661          29.00       105.93
 1311.04        2983.00           1664          31.00       114.65
 1311.07        2983.25           1668          33.00       123.37
 1311.10        2983.50           1671          23.00        79.77
 1311.13        2983.75           1674          33.00       123.37
 1311.16        2984.00           1678          33.00       123.37
HS scan finished at 21:51:23
end
