************************************************************
  HS Scan of (1) Internal mercury lamp
************************************************************
Integration time is 0.2294 seconds per sample
dh200519Izana 28.3081 16.4992 2.857833pr770
************************************************************
Dead Time -------------------------  2.7E-08 
Number of Cycles Used -------------  4 
Starting Wavelength (Angstroms) ---  2950 
Final Wavelength (Angstoms) -------  2984 
Wavelength Increment (Angstroms) --  .25 
Filter Wheel #1 Position ---------- (1) Ground quartz diffuser (ND=2.32)
Filter Wheel #2 Position ---------- (1) Neutral Density 0.494



************************************************************
HS scan start time = 04:42:46
Dark Count =  7.9 


Time (GMT)  Wavelength (Ang)  Step Number  Raw Counts  Counts/Second

  283.09        2950.00           1224          33.00       109.42
  283.16        2950.25           1227          35.00       118.13
  283.19        2950.50           1230          35.00       118.13
  283.22        2950.75           1234          39.00       135.57
  283.25        2951.00           1237          35.00       118.13
  283.28        2951.25           1240          34.00       113.78
  283.31        2951.50           1244          35.00       118.13
  283.35        2951.75           1247          40.00       139.93
  283.38        2952.00           1250          29.00        91.98
  283.41        2952.25           1254          29.00        91.98
  283.44        2952.50           1257          43.00       153.01
  283.47        2952.75           1260          34.00       113.78
  283.50        2953.00           1264          30.00        96.34
  283.53        2953.25           1267          29.00        91.98
  283.57        2953.50           1270          40.00       139.93
  283.60        2953.75           1274          32.00       105.06
  283.63        2954.00           1277          36.00       122.49
  283.66        2954.25           1280          29.00        91.98
  283.69        2954.50           1284          36.00       122.49
  283.72        2954.75           1287          34.00       113.78
  283.75        2955.00           1290          34.00       113.78
  283.78        2955.25           1294          30.00        96.34
  283.82        2955.50           1297          37.00       126.85
  283.85        2955.75           1300          39.00       135.57
  283.88        2956.00           1304          34.00       113.78
  283.91        2956.25           1307          36.00       122.49
  283.94        2956.50           1310          35.00       118.13
  283.97        2956.75           1314          35.00       118.13
  284.00        2957.00           1317          37.00       126.85
  284.04        2957.25           1320          40.00       139.93
  284.07        2957.50           1324          37.00       126.85
  284.10        2957.75           1327          43.00       153.01
  284.13        2958.00           1330          42.00       148.65
  284.16        2958.25           1334          39.00       135.57
  284.19        2958.50           1337          41.00       144.29
  284.23        2958.75           1340          44.00       157.37
  284.26        2959.00           1344          46.00       166.09
  284.29        2959.25           1347          70.00       270.71
  284.32        2959.50           1350          70.00       270.71
  284.35        2959.75           1354          79.00       309.94
  284.38        2960.00           1357         141.00       580.22
  284.42        2960.25           1360         166.00       689.20
  284.45        2960.50           1364         188.00       785.11
  284.48        2960.75           1367         239.00      1007.44
  284.51        2961.00           1370         295.00      1251.57
  284.54        2961.25           1373         321.00      1364.92
  284.57        2961.50           1377         659.00      2838.49
  284.60        2961.75           1380        1439.00      6239.50
  284.64        2962.00           1383        2633.00     11446.87
  284.67        2962.25           1387        4672.00     20342.91
  284.70        2962.50           1390        6225.00     27121.43
  284.73        2962.75           1393        8119.00     35391.70
  284.76        2963.00           1397       10928.00     47664.18
  284.79        2963.25           1400       13076.00     57054.26
  284.83        2963.50           1404       15833.00     69113.60
  284.86        2963.75           1407       17596.00     76829.21
  284.89        2964.00           1410       19546.00     85366.98
  284.92        2964.25           1414       21767.00     95096.08
  284.95        2964.50           1417       23737.00    103730.00
  284.99        2964.75           1420       25263.00    110420.70
  285.02        2965.00           1424       27800.00    121549.50
  285.05        2965.25           1427       29292.00    128097.50
  285.08        2965.50           1430       31232.00    136615.00
  285.11        2965.75           1434       33233.00    145404.50
  285.14        2966.00           1437       34804.00    152308.20
  285.18        2966.25           1440       36583.00    160128.90
  285.21        2966.50           1444       38766.00    169730.30
  285.24        2966.75           1447       39644.00    173593.40
  285.27        2967.00           1450       40080.00    175512.00
  285.30        2967.25           1454       40425.00    177030.30
  285.33        2967.50           1457       40637.00    177963.40
  285.37        2967.75           1460       40302.00    176489.00
  285.40        2968.00           1464       39313.00    172136.90
  285.43        2968.25           1467       38069.00    166664.20
  285.46        2968.50           1470       36487.00    159706.80
  285.49        2968.75           1474       34105.00    149236.10
  285.52        2969.00           1477       32401.00    141749.40
  285.56        2969.25           1480       30550.00    133620.30
  285.59        2969.50           1484       28127.00    122984.40
  285.62        2969.75           1487       26492.00    115811.00
  285.65        2970.00           1490       24504.00    107092.60
  285.68        2970.25           1494       21770.00     95109.22
  285.72        2970.50           1497       19799.00     86474.99
  285.75        2970.75           1500       17834.00     77871.06
  285.78        2971.00           1504       15217.00     66418.48
  285.81        2971.25           1507       13568.00     59205.73
  285.84        2971.50           1510       11786.00     51414.40
  285.87        2971.75           1514        9460.00     41249.49
  285.91        2972.00           1517        7776.00     33893.69
  285.94        2972.25           1520        6079.00     26484.06
  285.97        2972.50           1524        3583.00     15591.13
  286.00        2972.75           1527        2130.00      9252.97
  286.03        2973.00           1530         977.00      4224.98
  286.07        2973.25           1534         427.00      1827.03
  286.10        2973.50           1537         259.00      1094.63
  286.13        2973.75           1540         197.00       824.34
  286.16        2974.00           1544         145.00       597.66
  286.19        2974.25           1547         116.00       471.24
  286.22        2974.50           1550          91.00       362.25
  286.25        2974.75           1554          66.00       253.27
  286.29        2975.00           1557          58.00       218.40
  286.32        2975.25           1561          52.00       192.24
  286.35        2975.50           1564          53.00       196.60
  286.38        2975.75           1567          47.00       170.45
  286.41        2976.00           1571          47.00       170.45
  286.44        2976.25           1574          39.00       135.57
  286.47        2976.50           1577          38.00       131.21
  286.50        2976.75           1581          37.00       126.85
  286.54        2977.00           1584          50.00       183.52
  286.57        2977.25           1587          38.00       131.21
  286.60        2977.50           1591          43.00       153.01
  286.63        2977.75           1594          32.00       105.06
  286.66        2978.00           1597          39.00       135.57
  286.69        2978.25           1601          33.00       109.42
  286.73        2978.50           1604          33.00       109.42
  286.76        2978.75           1607          41.00       144.29
  286.79        2979.00           1611          28.00        87.62
  286.82        2979.25           1614          32.00       105.06
  286.85        2979.50           1617          31.00       100.70
  286.88        2979.75           1621          33.00       109.42
  286.91        2980.00           1624          40.00       139.93
  286.94        2980.25           1628          28.00        87.62
  286.98        2980.50           1631          31.00       100.70
  287.01        2980.75           1634          27.00        83.26
  287.04        2981.00           1638          33.00       109.42
  287.07        2981.25           1641          32.00       105.06
  287.10        2981.50           1644          39.00       135.57
  287.13        2981.75           1648          35.00       118.13
  287.16        2982.00           1651          37.00       126.85
  287.20        2982.25           1654          37.00       126.85
  287.23        2982.50           1658          31.00       100.70
  287.26        2982.75           1661          35.00       118.13
  287.29        2983.00           1664          35.00       118.13
  287.32        2983.25           1668          28.00        87.62
  287.35        2983.50           1671          33.00       109.42
  287.39        2983.75           1674          29.00        91.98
  287.42        2984.00           1678          30.00        96.34
HS scan finished at 04:47:38
end
************************************************************
  HS Scan of (1) Internal mercury lamp
************************************************************
Integration time is 0.2294 seconds per sample
dh200519Izana 28.3081 16.4992 2.911481pr770
************************************************************
Dead Time -------------------------  2.7E-08 
Number of Cycles Used -------------  4 
Starting Wavelength (Angstroms) ---  2950 
Final Wavelength (Angstoms) -------  2984 
Wavelength Increment (Angstroms) --  .25 
Filter Wheel #1 Position ---------- (1) Ground quartz diffuser (ND=2.32)
Filter Wheel #2 Position ---------- (1) Neutral Density 0.494



************************************************************
HS scan start time = 21:50:02
Dark Count =  7.1 


Time (GMT)  Wavelength (Ang)  Step Number  Raw Counts  Counts/Second

 1310.36        2950.00           1224          30.00        99.83
 1310.42        2950.25           1227          29.00        95.47
 1310.46        2950.50           1230          31.00       104.19
 1310.49        2950.75           1234          31.00       104.19
 1310.52        2951.00           1237          35.00       121.62
 1310.55        2951.25           1240          33.00       112.90
 1310.58        2951.50           1244          34.00       117.26
 1310.61        2951.75           1247          27.00        86.75
 1310.64        2952.00           1250          29.00        95.47
 1310.68        2952.25           1254          37.00       130.34
 1310.71        2952.50           1257          29.00        95.47
 1310.74        2952.75           1260          29.00        95.47
 1310.77        2953.00           1264          35.00       121.62
 1310.80        2953.25           1267          33.00       112.90
 1310.83        2953.50           1270          33.00       112.90
 1310.87        2953.75           1274          37.00       130.34
 1310.90        2954.00           1277          34.00       117.26
 1310.93        2954.25           1280          31.00       104.19
 1310.96        2954.50           1284          32.00       108.54
 1310.99        2954.75           1287          36.00       125.98
 1311.02        2955.00           1290          37.00       130.34
 1311.06        2955.25           1294          33.00       112.90
 1311.09        2955.50           1297          37.00       130.34
 1311.12        2955.75           1300          34.00       117.26
 1311.15        2956.00           1304          34.00       117.26
 1311.18        2956.25           1307          40.00       143.42
 1311.21        2956.50           1310          39.00       139.06
 1311.24        2956.75           1314          39.00       139.06
 1311.28        2957.00           1317          35.00       121.62
 1311.31        2957.25           1320          38.00       134.70
 1311.34        2957.50           1324          54.00       204.45
 1311.37        2957.75           1327          37.00       130.34
 1311.40        2958.00           1330          39.00       139.06
 1311.43        2958.25           1334          35.00       121.62
 1311.47        2958.50           1337          41.00       147.78
 1311.50        2958.75           1340          47.00       173.93
 1311.53        2959.00           1344          51.00       191.37
 1311.56        2959.25           1347          48.00       178.29
 1311.59        2959.50           1350          68.00       265.48
 1311.62        2959.75           1354          89.00       357.02
 1311.66        2960.00           1357         127.00       522.68
 1311.69        2960.25           1360         162.00       675.25
 1311.72        2960.50           1364         196.00       823.47
 1311.75        2960.75           1367         260.00      1102.47
 1311.78        2961.00           1370         278.00      1180.94
 1311.81        2961.25           1373         392.00      1677.93
 1311.84        2961.50           1377        1051.00      4551.13
 1311.87        2961.75           1380        1970.00      8558.65
 1311.91        2962.00           1383        3493.00     15201.97
 1311.94        2962.25           1387        5640.00     24571.22
 1311.97        2962.50           1390        7243.00     31569.62
 1312.00        2962.75           1393        8862.00     38640.56
 1312.03        2963.00           1397       11254.00     49092.49
 1312.07        2963.25           1400       13239.00     57770.52
 1312.10        2963.50           1404       16029.00     69974.71
 1312.13        2963.75           1407       17833.00     77870.19
 1312.16        2964.00           1410       19880.00     86833.25
 1312.19        2964.25           1414       22049.00     96335.26
 1312.22        2964.50           1417       23641.00    103312.60
 1312.26        2964.75           1420       25648.00    112112.60
 1312.29        2965.00           1424       28252.00    123536.50
 1312.32        2965.25           1427       29923.00    130871.00
 1312.35        2965.50           1430       32003.00    140004.70
 1312.38        2965.75           1434       34449.00    150751.40
 1312.41        2966.00           1437       36089.00    157960.40
 1312.45        2966.25           1440       37912.00    165977.10
 1312.48        2966.50           1444       39647.00    173610.10
 1312.51        2966.75           1447       40561.00    177632.40
 1312.54        2967.00           1450       40351.00    176708.10
 1312.57        2967.25           1454       40899.00    179120.10
 1312.61        2967.50           1457       40965.00    179410.60
 1312.64        2967.75           1460       40370.00    176791.80
 1312.67        2968.00           1464       39217.00    171718.00
 1312.70        2968.25           1467       37788.00    165431.70
 1312.73        2968.50           1470       36407.00    159358.60
 1312.76        2968.75           1474       34125.00    149327.50
 1312.80        2969.00           1477       32063.00    140268.20
 1312.83        2969.25           1480       30246.00    132289.00
 1312.86        2969.50           1484       27371.00    119670.70
 1312.89        2969.75           1487       25484.00    111393.40
 1312.92        2970.00           1490       23700.00    103571.30
 1312.96        2970.25           1494       21308.00     93088.52
 1312.99        2970.50           1497       19701.00     86049.30
 1313.02        2970.75           1500       17749.00     77502.47
 1313.05        2971.00           1504       15076.00     65805.15
 1313.08        2971.25           1507       13339.00     58207.81
 1313.11        2971.50           1510       11421.00     49822.43
 1313.15        2971.75           1514        8839.00     38540.09
 1313.18        2972.00           1517        7012.00     30560.95
 1313.21        2972.25           1520        5255.00     22890.78
 1313.24        2972.50           1524        2899.00     12610.66
 1313.27        2972.75           1527        1721.00      7472.74
 1313.30        2973.00           1530         820.00      3543.93
 1313.33        2973.25           1534         364.00      1555.86
 1313.37        2973.50           1537         243.00      1028.36
 1313.40        2973.75           1540         209.00       880.14
 1313.43        2974.00           1544         147.00       609.86
 1313.46        2974.25           1547         111.00       452.93
 1313.49        2974.50           1550          90.00       361.38
 1313.52        2974.75           1554          71.00       278.55
 1313.55        2975.00           1557          56.00       213.17
 1313.59        2975.25           1561          41.00       147.78
 1313.62        2975.50           1564          52.00       195.73
 1313.65        2975.75           1567          40.00       143.42
 1313.68        2976.00           1571          41.00       147.78
 1313.71        2976.25           1574          53.00       200.09
 1313.74        2976.50           1577          39.00       139.06
 1313.77        2976.75           1581          36.00       125.98
 1313.81        2977.00           1584          47.00       173.93
 1313.84        2977.25           1587          40.00       143.42
 1313.87        2977.50           1591          34.00       117.26
 1313.90        2977.75           1594          40.00       143.42
 1313.93        2978.00           1597          36.00       125.98
 1313.96        2978.25           1601          32.00       108.54
 1314.00        2978.50           1604          32.00       108.54
 1314.03        2978.75           1607          37.00       130.34
 1314.06        2979.00           1611          35.00       121.62
 1314.09        2979.25           1614          31.00       104.19
 1314.12        2979.50           1617          32.00       108.54
 1314.15        2979.75           1621          37.00       130.34
 1314.18        2980.00           1624          37.00       130.34
 1314.21        2980.25           1628          41.00       147.78
 1314.25        2980.50           1631          35.00       121.62
 1314.28        2980.75           1634          34.00       117.26
 1314.31        2981.00           1638          27.00        86.75
 1314.34        2981.25           1641          33.00       112.90
 1314.37        2981.50           1644          38.00       134.70
 1314.40        2981.75           1648          32.00       108.54
 1314.43        2982.00           1651          29.00        95.47
 1314.47        2982.25           1654          31.00       104.19
 1314.50        2982.50           1658          31.00       104.19
 1314.53        2982.75           1661          31.00       104.19
 1314.56        2983.00           1664          35.00       121.62
 1314.59        2983.25           1668          31.00       104.19
 1314.62        2983.50           1671          32.00       108.54
 1314.66        2983.75           1674          35.00       121.62
 1314.69        2984.00           1678          43.00       156.50
HS scan finished at 21:54:55
end
