************************************************************
  HS Scan of (1) Internal mercury lamp
************************************************************
Integration time is 0.2294 seconds per sample
dh240519Izana 28.3081 16.4992 2.857833pr770
************************************************************
Dead Time -------------------------  2.7E-08 
Number of Cycles Used -------------  4 
Starting Wavelength (Angstroms) ---  2950 
Final Wavelength (Angstoms) -------  2984 
Wavelength Increment (Angstroms) --  .25 
Filter Wheel #1 Position ---------- (1) Ground quartz diffuser (ND=2.32)
Filter Wheel #2 Position ---------- (1) Neutral Density 0.494



************************************************************
HS scan start time = 04:40:38
Dark Count =  4.7 


Time (GMT)  Wavelength (Ang)  Step Number  Raw Counts  Counts/Second

  280.97        2950.00           1224          35.00       132.08
  281.03        2950.25           1227          30.00       110.29
  281.06        2950.50           1230          29.00       105.93
  281.10        2950.75           1234          32.00       119.01
  281.13        2951.00           1237          27.00        97.21
  281.16        2951.25           1240          36.00       136.44
  281.19        2951.50           1244          36.00       136.44
  281.22        2951.75           1247          28.00       101.57
  281.25        2952.00           1250          32.00       119.01
  281.28        2952.25           1254          32.00       119.01
  281.32        2952.50           1257          31.00       114.65
  281.35        2952.75           1260          33.00       123.37
  281.38        2953.00           1264          38.00       145.16
  281.41        2953.25           1267          28.00       101.57
  281.44        2953.50           1270          36.00       136.44
  281.47        2953.75           1274          32.00       119.01
  281.51        2954.00           1277          30.00       110.29
  281.54        2954.25           1280          37.00       140.80
  281.57        2954.50           1284          33.00       123.37
  281.60        2954.75           1287          30.00       110.29
  281.63        2955.00           1290          32.00       119.01
  281.66        2955.25           1294          31.00       114.65
  281.69        2955.50           1297          30.00       110.29
  281.73        2955.75           1300          37.00       140.80
  281.76        2956.00           1304          46.00       180.04
  281.79        2956.25           1307          34.00       127.72
  281.82        2956.50           1310          38.00       145.16
  281.85        2956.75           1314          40.00       153.88
  281.88        2957.00           1317          40.00       153.88
  281.92        2957.25           1320          40.00       153.88
  281.95        2957.50           1324          37.00       140.80
  281.98        2957.75           1327          40.00       153.88
  282.01        2958.00           1330          33.00       123.37
  282.04        2958.25           1334          45.00       175.68
  282.07        2958.50           1337          51.00       201.83
  282.11        2958.75           1340          47.00       184.39
  282.14        2959.00           1344          46.00       180.04
  282.17        2959.25           1347          60.00       241.07
  282.20        2959.50           1350          71.00       289.02
  282.23        2959.75           1354         100.00       415.44
  282.26        2960.00           1357         130.00       546.22
  282.30        2960.25           1360         173.00       733.67
  282.33        2960.50           1364         211.00       899.32
  282.36        2960.75           1367         250.00      1069.34
  282.39        2961.00           1370         283.00      1213.20
  282.42        2961.25           1373         358.00      1540.17
  282.45        2961.50           1377         714.00      3092.24
  282.48        2961.75           1380        1576.00      6850.88
  282.52        2962.00           1383        3075.00     13388.89
  282.55        2962.25           1387        5628.00     24529.32
  282.58        2962.50           1390        7413.00     32322.44
  282.61        2962.75           1393        9600.00     41875.13
  282.64        2963.00           1397       12235.00     53391.21
  282.67        2963.25           1400       14188.00     61931.29
  282.71        2963.50           1404       16917.00     73871.26
  282.74        2963.75           1407       18590.00     81194.81
  282.77        2964.00           1410       20163.00     88083.26
  282.80        2964.25           1414       22689.00     99150.44
  282.83        2964.50           1417       24304.00    106229.70
  282.87        2964.75           1420       25754.00    112588.00
  282.90        2965.00           1424       27921.00    122094.50
  282.93        2965.25           1427       29640.00    129639.10
  282.96        2965.50           1430       31458.00    137621.60
  282.99        2965.75           1434       34215.00    149733.60
  283.02        2966.00           1437       36124.00    158124.90
  283.06        2966.25           1440       38003.00    166387.90
  283.09        2966.50           1444       39950.00    174954.00
  283.12        2966.75           1447       40782.00    178615.70
  283.15        2967.00           1450       41050.00    179795.30
  283.18        2967.25           1454       41095.00    179993.40
  283.21        2967.50           1457       41211.00    180504.00
  283.25        2967.75           1460       40830.00    178826.90
  283.28        2968.00           1464       39627.00    173532.60
  283.31        2968.25           1467       38293.00    167663.60
  283.34        2968.50           1470       36900.00    161536.90
  283.37        2968.75           1474       34785.00    152238.70
  283.40        2969.00           1477       32878.00    143858.90
  283.44        2969.25           1480       31088.00    135996.70
  283.47        2969.50           1484       28135.00    123033.60
  283.50        2969.75           1487       26334.00    115132.00
  283.53        2970.00           1490       24447.00    106856.70
  283.56        2970.25           1494       21605.00     94400.29
  283.60        2970.50           1497       19913.00     86988.29
  283.63        2970.75           1500       17947.00     78379.74
  283.66        2971.00           1504       15601.00     68112.50
  283.69        2971.25           1507       13773.00     60116.24
  283.72        2971.50           1510       11642.00     50798.92
  283.75        2971.75           1514        9095.00     39668.89
  283.79        2972.00           1517        7441.00     32444.71
  283.82        2972.25           1520        5605.00     24428.93
  283.85        2972.50           1524        3291.00     14331.18
  283.88        2972.75           1527        2295.00      9986.56
  283.91        2973.00           1530        1137.00      4936.58
  283.94        2973.25           1534         467.00      2015.37
  283.97        2973.50           1537         258.00      1104.22
  284.01        2973.75           1540         198.00       842.65
  284.04        2974.00           1544         144.00       607.25
  284.07        2974.25           1547         114.00       476.47
  284.10        2974.50           1550          71.00       289.02
  284.13        2974.75           1554          64.00       258.50
  284.17        2975.00           1557          48.00       188.75
  284.20        2975.25           1561          55.00       219.27
  284.23        2975.50           1564          48.00       188.75
  284.26        2975.75           1567          39.00       149.52
  284.29        2976.00           1571          47.00       184.39
  284.32        2976.25           1574          48.00       188.75
  284.35        2976.50           1577          44.00       171.32
  284.39        2976.75           1581          46.00       180.04
  284.42        2977.00           1584          42.00       162.60
  284.45        2977.25           1587          35.00       132.08
  284.48        2977.50           1591          37.00       140.80
  284.51        2977.75           1594          31.00       114.65
  284.54        2978.00           1597          36.00       136.44
  284.58        2978.25           1601          36.00       136.44
  284.61        2978.50           1604          31.00       114.65
  284.64        2978.75           1607          35.00       132.08
  284.67        2979.00           1611          36.00       136.44
  284.70        2979.25           1614          35.00       132.08
  284.73        2979.50           1617          32.00       119.01
  284.76        2979.75           1621          33.00       123.37
  284.80        2980.00           1624          34.00       127.72
  284.83        2980.25           1628          36.00       136.44
  284.86        2980.50           1631          29.00       105.93
  284.89        2980.75           1634          26.00        92.85
  284.92        2981.00           1638          40.00       153.88
  284.95        2981.25           1641          29.00       105.93
  284.98        2981.50           1644          32.00       119.01
  285.01        2981.75           1648          35.00       132.08
  285.05        2982.00           1651          29.00       105.93
  285.08        2982.25           1654          32.00       119.01
  285.11        2982.50           1658          30.00       110.29
  285.14        2982.75           1661          32.00       119.01
  285.17        2983.00           1664          32.00       119.01
  285.20        2983.25           1668          32.00       119.01
  285.23        2983.50           1671          31.00       114.65
  285.27        2983.75           1674          28.00       101.57
  285.30        2984.00           1678          32.00       119.01
HS scan finished at 04:45:31
end
************************************************************
  HS Scan of (1) Internal mercury lamp
************************************************************
Integration time is 0.2294 seconds per sample
dh240519Izana 28.3081 16.4992 2.857833pr770
************************************************************
Dead Time -------------------------  2.7E-08 
Number of Cycles Used -------------  4 
Starting Wavelength (Angstroms) ---  2950 
Final Wavelength (Angstoms) -------  2984 
Wavelength Increment (Angstroms) --  .25 
Filter Wheel #1 Position ---------- (1) Ground quartz diffuser (ND=2.32)
Filter Wheel #2 Position ---------- (1) Neutral Density 0.494



************************************************************
HS scan start time = 21:47:23
Dark Count =  6.6 


Time (GMT)  Wavelength (Ang)  Step Number  Raw Counts  Counts/Second

 1307.71        2950.00           1224          35.00       123.80
 1307.77        2950.25           1227          35.00       123.80
 1307.80        2950.50           1230          34.00       119.44
 1307.84        2950.75           1234          28.00        93.29
 1307.87        2951.00           1237          39.00       141.24
 1307.90        2951.25           1240          31.00       106.36
 1307.93        2951.50           1244          35.00       123.80
 1307.96        2951.75           1247          68.00       267.66
 1308.00        2952.00           1250          37.00       132.52
 1308.04        2952.25           1254          32.00       110.72
 1308.08        2952.50           1257          36.00       128.16
 1308.11        2952.75           1260          28.00        93.29
 1308.14        2953.00           1264          33.00       115.08
 1308.17        2953.25           1267          30.00       102.01
 1308.21        2953.50           1270          45.00       167.39
 1308.24        2953.75           1274          35.00       123.80
 1308.27        2954.00           1277          36.00       128.16
 1308.31        2954.25           1280          35.00       123.80
 1308.34        2954.50           1284          26.00        84.57
 1308.38        2954.75           1287          32.00       110.72
 1308.42        2955.00           1290          35.00       123.80
 1308.45        2955.25           1294          29.00        97.65
 1308.48        2955.50           1297          33.00       115.08
 1308.51        2955.75           1300          31.00       106.36
 1308.54        2956.00           1304          35.00       123.80
 1308.57        2956.25           1307          31.00       106.36
 1308.61        2956.50           1310          33.00       115.08
 1308.64        2956.75           1314          32.00       110.72
 1308.67        2957.00           1317          40.00       145.60
 1308.70        2957.25           1320          38.00       136.88
 1308.73        2957.50           1324          40.00       145.60
 1308.77        2957.75           1327          38.00       136.88
 1308.80        2958.00           1330          43.00       158.68
 1308.83        2958.25           1334          42.00       154.32
 1308.86        2958.50           1337          44.00       163.03
 1308.89        2958.75           1340          47.00       176.11
 1308.92        2959.00           1344          47.00       176.11
 1308.96        2959.25           1347          53.00       202.27
 1308.99        2959.50           1350          68.00       267.66
 1309.02        2959.75           1354          91.00       367.92
 1309.05        2960.00           1357         110.00       450.75
 1309.08        2960.25           1360         156.00       651.28
 1309.12        2960.50           1364         201.00       847.45
 1309.15        2960.75           1367         244.00      1034.90
 1309.18        2961.00           1370         267.00      1135.17
 1309.21        2961.25           1373         335.00      1431.62
 1309.24        2961.50           1377         792.00      3424.03
 1309.27        2961.75           1380        1507.00      6541.70
 1309.30        2962.00           1383        2643.00     11496.16
 1309.34        2962.25           1387        4569.00     19899.09
 1309.37        2962.50           1390        6281.00     27371.58
 1309.40        2962.75           1393        8211.00     35799.19
 1309.43        2963.00           1397       10888.00     47495.05
 1309.46        2963.25           1400       13095.00     57143.03
 1309.49        2963.50           1404       15689.00     68489.23
 1309.53        2963.75           1407       17331.00     75674.96
 1309.56        2964.00           1410       19121.00     83511.55
 1309.59        2964.25           1414       21294.00     93029.37
 1309.62        2964.50           1417       23230.00    101513.30
 1309.65        2964.75           1420       25396.00    111009.70
 1309.68        2965.00           1424       27751.00    121340.20
 1309.72        2965.25           1427       30027.00    131329.70
 1309.75        2965.50           1430       31568.00    138096.30
 1309.78        2965.75           1434       33805.00    147923.50
 1309.81        2966.00           1437       35517.00    155447.90
 1309.84        2966.25           1440       37376.00    163621.90
 1309.87        2966.50           1444       39421.00    172617.80
 1309.90        2966.75           1447       39989.00    175117.20
 1309.94        2967.00           1450       40453.00    177159.20
 1309.97        2967.25           1454       40812.00    178739.30
 1310.00        2967.50           1457       40839.00    178858.20
 1310.03        2967.75           1460       40874.00    179012.20
 1310.06        2968.00           1464       39789.00    174237.10
 1310.10        2968.25           1467       38699.00    169441.20
 1310.13        2968.50           1470       37142.00    162592.80
 1310.16        2968.75           1474       34509.00    151017.30
 1310.19        2969.00           1477       32948.00    144158.10
 1310.22        2969.25           1480       31070.00    135909.30
 1310.26        2969.50           1484       28427.00    124306.70
 1310.29        2969.75           1487       26725.00    116838.80
 1310.32        2970.00           1490       24967.00    109128.40
 1310.35        2970.25           1494       22530.00     98445.28
 1310.38        2970.50           1497       20509.00     89590.48
 1310.42        2970.75           1500       18623.00     81330.98
 1310.45        2971.00           1504       15782.00     68896.13
 1310.48        2971.25           1507       13934.00     60812.07
 1310.51        2971.50           1510       12136.00     52950.10
 1310.54        2971.75           1514        9631.00     42002.28
 1310.57        2972.00           1517        7666.00     33418.98
 1310.61        2972.25           1520        5808.00     25306.74
 1310.64        2972.50           1524        3366.00     14650.08
 1310.67        2972.75           1527        1945.00      8451.80
 1310.70        2973.00           1530         998.00      4322.21
 1310.73        2973.25           1534         467.00      2007.08
 1310.76        2973.50           1537         293.00      1248.52
 1310.79        2973.75           1540         209.00       882.32
 1310.83        2974.00           1544         158.00       659.99
 1310.86        2974.25           1547         121.00       498.70
 1310.89        2974.50           1550          94.00       381.00
 1310.92        2974.75           1554          63.00       245.86
 1310.95        2975.00           1557          51.00       193.55
 1310.98        2975.25           1561          51.00       193.55
 1311.01        2975.50           1564          48.00       180.47
 1311.05        2975.75           1567          40.00       145.60
 1311.08        2976.00           1571          44.00       163.03
 1311.11        2976.25           1574          48.00       180.47
 1311.14        2976.50           1577          43.00       158.68
 1311.17        2976.75           1581          36.00       128.16
 1311.20        2977.00           1584          44.00       163.03
 1311.24        2977.25           1587          42.00       154.32
 1311.27        2977.50           1591          42.00       154.32
 1311.30        2977.75           1594          42.00       154.32
 1311.33        2978.00           1597          37.00       132.52
 1311.36        2978.25           1601          31.00       106.36
 1311.39        2978.50           1604          35.00       123.80
 1311.42        2978.75           1607          31.00       106.36
 1311.46        2979.00           1611          29.00        97.65
 1311.49        2979.25           1614          31.00       106.36
 1311.52        2979.50           1617          36.00       128.16
 1311.55        2979.75           1621          37.00       132.52
 1311.58        2980.00           1624          33.00       115.08
 1311.61        2980.25           1628          32.00       110.72
 1311.64        2980.50           1631          35.00       123.80
 1311.68        2980.75           1634          32.00       110.72
 1311.71        2981.00           1638          31.00       106.36
 1311.74        2981.25           1641          37.00       132.52
 1311.77        2981.50           1644          30.00       102.01
 1311.80        2981.75           1648          36.00       128.16
 1311.83        2982.00           1651          29.00        97.65
 1311.87        2982.25           1654          30.00       102.01
 1311.90        2982.50           1658          28.00        93.29
 1311.93        2982.75           1661          33.00       115.08
 1311.96        2983.00           1664          32.00       110.72
 1311.99        2983.25           1668          32.00       110.72
 1312.02        2983.50           1671          29.00        97.65
 1312.06        2983.75           1674          29.00        97.65
 1312.09        2984.00           1678          29.00        97.65
HS scan finished at 21:52:19
end
