************************************************************
  HS Scan of (1) Internal mercury lamp
************************************************************
Integration time is 0.2294 seconds per sample
dh250519Izana 28.3081 16.4992 2.804185pr770
************************************************************
Dead Time -------------------------  2.7E-08 
Number of Cycles Used -------------  4 
Starting Wavelength (Angstroms) ---  2950 
Final Wavelength (Angstoms) -------  2984 
Wavelength Increment (Angstroms) --  .25 
Filter Wheel #1 Position ---------- (1) Ground quartz diffuser (ND=2.32)
Filter Wheel #2 Position ---------- (1) Neutral Density 0.494



************************************************************
HS scan start time = 04:40:37
Dark Count =  6.3 


Time (GMT)  Wavelength (Ang)  Step Number  Raw Counts  Counts/Second

  280.95        2950.00           1224          33.00       116.39
  281.02        2950.25           1227          33.00       116.39
  281.05        2950.50           1230          32.00       112.03
  281.08        2950.75           1234          37.00       133.83
  281.11        2951.00           1237          34.00       120.75
  281.14        2951.25           1240          30.00       103.31
  281.18        2951.50           1244          27.00        90.24
  281.21        2951.75           1247          30.00       103.31
  281.24        2952.00           1250          34.00       120.75
  281.27        2952.25           1254          26.00        85.88
  281.30        2952.50           1257          37.00       133.83
  281.33        2952.75           1260          30.00       103.31
  281.36        2953.00           1264          31.00       107.67
  281.39        2953.25           1267          31.00       107.67
  281.42        2953.50           1270          32.00       112.03
  281.46        2953.75           1274          31.00       107.67
  281.49        2954.00           1277          36.00       129.47
  281.52        2954.25           1280          27.00        90.24
  281.55        2954.50           1284          30.00       103.31
  281.58        2954.75           1287          35.00       125.11
  281.61        2955.00           1290          33.00       116.39
  281.65        2955.25           1294          34.00       120.75
  281.68        2955.50           1297          29.00        98.95
  281.71        2955.75           1300          35.00       125.11
  281.74        2956.00           1304          44.00       164.34
  281.77        2956.25           1307          34.00       120.75
  281.80        2956.50           1310          35.00       125.11
  281.84        2956.75           1314          38.00       138.19
  281.87        2957.00           1317          32.00       112.03
  281.90        2957.25           1320          35.00       125.11
  281.93        2957.50           1324          46.00       173.06
  281.96        2957.75           1327          35.00       125.11
  281.99        2958.00           1330          43.00       159.98
  282.02        2958.25           1334          46.00       173.06
  282.05        2958.50           1337          40.00       146.91
  282.09        2958.75           1340          43.00       159.98
  282.12        2959.00           1344          47.00       177.42
  282.15        2959.25           1347          62.00       242.81
  282.18        2959.50           1350          76.00       303.84
  282.21        2959.75           1354          90.00       364.87
  282.25        2960.00           1357         127.00       526.16
  282.28        2960.25           1360         162.00       678.74
  282.31        2960.50           1364         187.00       787.72
  282.34        2960.75           1367         250.00      1062.37
  282.37        2961.00           1370         289.00      1232.39
  282.40        2961.25           1373         327.00      1398.05
  282.44        2961.50           1377         768.00      3320.70
  282.47        2961.75           1380        1583.00      6874.42
  282.50        2962.00           1383        2965.00     12902.05
  282.53        2962.25           1387        5371.00     23400.57
  282.56        2962.50           1390        7222.00     31481.41
  282.59        2962.75           1393        9416.00     41064.25
  282.62        2963.00           1397       11776.00     51377.68
  282.66        2963.25           1400       13543.00     59103.40
  282.69        2963.50           1404       16094.00     70262.63
  282.72        2963.75           1407       17833.00     77873.68
  282.75        2964.00           1410       19486.00     85111.22
  282.78        2964.25           1414       21556.00     94178.58
  282.81        2964.50           1417       23043.00    100694.90
  282.85        2964.75           1420       24932.00    108976.20
  282.88        2965.00           1424       27287.00    119305.70
  282.91        2965.25           1427       28929.00    126511.20
  282.94        2965.50           1430       31006.00    135629.60
  282.97        2965.75           1434       33613.00    147081.20
  283.00        2966.00           1437       35165.00    153901.90
  283.04        2966.25           1440       36929.00    161657.40
  283.07        2966.50           1444       38979.00    170674.40
  283.10        2966.75           1447       39901.00    174731.30
  283.13        2967.00           1450       39869.00    174590.50
  283.16        2967.25           1454       40263.00    176324.40
  283.19        2967.50           1457       40376.00    176821.70
  283.23        2967.75           1460       39874.00    174612.50
  283.26        2968.00           1464       38806.00    169913.30
  283.29        2968.25           1467       37775.00    165378.10
  283.32        2968.50           1470       36215.00    158517.90
  283.35        2968.75           1474       33783.00    147828.20
  283.39        2969.00           1477       32224.00    140978.90
  283.42        2969.25           1480       30321.00    132621.80
  283.45        2969.50           1484       27596.00    120661.40
  283.48        2969.75           1487       25806.00    112809.10
  283.51        2970.00           1490       23895.00    104429.60
  283.55        2970.25           1494       21545.00     94130.38
  283.58        2970.50           1497       19848.00     86696.60
  283.61        2970.75           1500       17828.00     77851.78
  283.64        2971.00           1504       14961.00     65305.55
  283.67        2971.25           1507       13207.00     57634.08
  283.71        2971.50           1510       11378.00     49637.98
  283.74        2971.75           1514        9134.00     39832.27
  283.77        2972.00           1517        7630.00     33263.08
  283.80        2972.25           1520        6039.00     26316.43
  283.83        2972.50           1524        3810.00     16588.51
  283.87        2972.75           1527        2447.00     10642.55
  283.90        2973.00           1530        1093.00      4737.75
  283.93        2973.25           1534         426.00      1829.65
  283.96        2973.50           1537         243.00      1031.85
  283.99        2973.75           1540         192.00       809.52
  284.02        2974.00           1544         124.00       513.08
  284.05        2974.25           1547          98.00       399.74
  284.09        2974.50           1550          74.00       295.12
  284.12        2974.75           1554          63.00       247.17
  284.15        2975.00           1557          48.00       181.78
  284.18        2975.25           1561          44.00       164.34
  284.21        2975.50           1564          45.00       168.70
  284.24        2975.75           1567          40.00       146.91
  284.28        2976.00           1571          47.00       177.42
  284.31        2976.25           1574          46.00       173.06
  284.34        2976.50           1577          35.00       125.11
  284.37        2976.75           1581          40.00       146.91
  284.40        2977.00           1584          38.00       138.19
  284.43        2977.25           1587          43.00       159.98
  284.46        2977.50           1591          40.00       146.91
  284.49        2977.75           1594          38.00       138.19
  284.53        2978.00           1597          36.00       129.47
  284.56        2978.25           1601          30.00       103.31
  284.59        2978.50           1604          36.00       129.47
  284.62        2978.75           1607          40.00       146.91
  284.65        2979.00           1611          38.00       138.19
  284.68        2979.25           1614          30.00       103.31
  284.71        2979.50           1617          30.00       103.31
  284.75        2979.75           1621          24.00        77.16
  284.78        2980.00           1624          37.00       133.83
  284.81        2980.25           1628          31.00       107.67
  284.84        2980.50           1631          30.00       103.31
  284.87        2980.75           1634          31.00       107.67
  284.90        2981.00           1638          31.00       107.67
  284.94        2981.25           1641          27.00        90.24
  284.97        2981.50           1644          29.00        98.95
  285.00        2981.75           1648          30.00       103.31
  285.03        2982.00           1651          29.00        98.95
  285.06        2982.25           1654          30.00       103.31
  285.09        2982.50           1658          33.00       116.39
  285.12        2982.75           1661          36.00       129.47
  285.15        2983.00           1664          35.00       125.11
  285.19        2983.25           1668          34.00       120.75
  285.22        2983.50           1671          36.00       129.47
  285.25        2983.75           1674          30.00       103.31
  285.28        2984.00           1678          35.00       125.11
HS scan finished at 04:45:30
end
************************************************************
  HS Scan of (1) Internal mercury lamp
************************************************************
Integration time is 0.2294 seconds per sample
dh250519Izana 28.3081 16.4992 2.857833pr770
************************************************************
Dead Time -------------------------  2.7E-08 
Number of Cycles Used -------------  4 
Starting Wavelength (Angstroms) ---  2950 
Final Wavelength (Angstoms) -------  2984 
Wavelength Increment (Angstroms) --  .25 
Filter Wheel #1 Position ---------- (1) Ground quartz diffuser (ND=2.32)
Filter Wheel #2 Position ---------- (1) Neutral Density 0.494



************************************************************
HS scan start time = 21:48:08
Dark Count =  5.7 


Time (GMT)  Wavelength (Ang)  Step Number  Raw Counts  Counts/Second

 1308.46        2950.00           1224          30.00       105.93
 1308.53        2950.25           1227          32.00       114.65
 1308.56        2950.50           1230          33.00       119.01
 1308.59        2950.75           1234          26.00        88.49
 1308.63        2951.00           1237          35.00       127.72
 1308.66        2951.25           1240          35.00       127.72
 1308.69        2951.50           1244          28.00        97.21
 1308.72        2951.75           1247          29.00       101.57
 1308.76        2952.00           1250          33.00       119.01
 1308.79        2952.25           1254          34.00       123.37
 1308.82        2952.50           1257          26.00        88.49
 1308.86        2952.75           1260          35.00       127.72
 1308.89        2953.00           1264          39.00       145.16
 1308.92        2953.25           1267          36.00       132.08
 1308.95        2953.50           1270          34.00       123.37
 1308.98        2953.75           1274          34.00       123.37
 1309.01        2954.00           1277          36.00       132.08
 1309.05        2954.25           1280          31.00       110.29
 1309.08        2954.50           1284          34.00       123.37
 1309.11        2954.75           1287          33.00       119.01
 1309.14        2955.00           1290          31.00       110.29
 1309.17        2955.25           1294          31.00       110.29
 1309.20        2955.50           1297          29.00       101.57
 1309.23        2955.75           1300          33.00       119.01
 1309.26        2956.00           1304          33.00       119.01
 1309.30        2956.25           1307          36.00       132.08
 1309.33        2956.50           1310          39.00       145.16
 1309.36        2956.75           1314          33.00       119.01
 1309.39        2957.00           1317          37.00       136.44
 1309.42        2957.25           1320          42.00       158.24
 1309.45        2957.50           1324          44.00       166.96
 1309.49        2957.75           1327          43.00       162.60
 1309.52        2958.00           1330          34.00       123.37
 1309.55        2958.25           1334          42.00       158.24
 1309.58        2958.50           1337          52.00       201.83
 1309.61        2958.75           1340          43.00       162.60
 1309.64        2959.00           1344          44.00       166.96
 1309.67        2959.25           1347          48.00       184.39
 1309.70        2959.50           1350          74.00       297.74
 1309.74        2959.75           1354          87.00       354.41
 1309.77        2960.00           1357         115.00       476.47
 1309.80        2960.25           1360         141.00       589.81
 1309.83        2960.50           1364         199.00       842.65
 1309.86        2960.75           1367         242.00      1030.11
 1309.90        2961.00           1370         272.00      1160.89
 1309.93        2961.25           1373         404.00      1736.35
 1309.96        2961.50           1377        1081.00      4688.04
 1310.00        2961.75           1380        2045.00      8891.85
 1310.03        2962.00           1383        3420.00     14889.60
 1310.06        2962.25           1387        5553.00     24197.58
 1310.10        2962.50           1390        7133.00     31095.41
 1310.13        2962.75           1393        8765.00     38222.95
 1310.16        2963.00           1397       11334.00     49448.28
 1310.19        2963.25           1400       13296.00     58025.89
 1310.22        2963.50           1404       16099.00     70287.15
 1310.25        2963.75           1407       17797.00     77718.72
 1310.29        2964.00           1410       19759.00     86309.44
 1310.32        2964.25           1414       22038.00     96293.19
 1310.35        2964.50           1417       23589.00    103090.80
 1310.38        2964.75           1420       25518.00    111548.60
 1310.41        2965.00           1424       28116.00    122945.80
 1310.44        2965.25           1427       29798.00    130328.30
 1310.48        2965.50           1430       32021.00    140089.90
 1310.51        2965.75           1434       34419.00    150625.70
 1310.54        2966.00           1437       36281.00    158810.70
 1310.57        2966.25           1440       37863.00    165767.70
 1310.60        2966.50           1444       39543.00    173158.60
 1310.63        2966.75           1447       40399.00    176925.60
 1310.67        2967.00           1450       40530.00    177502.10
 1310.70        2967.25           1454       40715.00    178316.40
 1310.73        2967.50           1457       40650.00    178030.30
 1310.76        2967.75           1460       40389.00    176881.60
 1310.79        2968.00           1464       39166.00    171499.80
 1310.83        2968.25           1467       37738.00    165218.00
 1310.86        2968.50           1470       36020.00    157663.20
 1310.89        2968.75           1474       34122.00    149320.50
 1310.92        2969.00           1477       32064.00    140278.80
 1310.95        2969.25           1480       29847.00    130543.50
 1310.98        2969.50           1484       27261.00    119194.20
 1311.02        2969.75           1487       25517.00    111544.20
 1311.05        2970.00           1490       23582.00    103060.20
 1311.08        2970.25           1494       21285.00     92993.89
 1311.11        2970.50           1497       19602.00     85621.87
 1311.14        2970.75           1500       17659.00     77114.63
 1311.17        2971.00           1504       14993.00     65448.17
 1311.21        2971.25           1507       13175.00     57496.78
 1311.24        2971.50           1510       11215.00     48928.15
 1311.27        2971.75           1514        8832.00     38515.62
 1311.30        2972.00           1517        7013.00     30571.43
 1311.33        2972.25           1520        5346.00     23294.07
 1311.37        2972.50           1524        2876.00     12516.44
 1311.40        2972.75           1527        1696.00      7369.82
 1311.43        2973.00           1530         773.00      3345.11
 1311.46        2973.25           1534         370.00      1588.12
 1311.49        2973.50           1537         271.00      1156.53
 1311.52        2973.75           1540         200.00       847.01
 1311.56        2974.00           1544         163.00       685.71
 1311.59        2974.25           1547         118.00       489.54
 1311.62        2974.50           1550          85.00       345.69
 1311.65        2974.75           1554          67.00       267.22
 1311.68        2975.00           1557          58.00       227.99
 1311.72        2975.25           1561          48.00       184.39
 1311.75        2975.50           1564          48.00       184.39
 1311.78        2975.75           1567          40.00       149.52
 1311.81        2976.00           1571          44.00       166.96
 1311.84        2976.25           1574          50.00       193.11
 1311.87        2976.50           1577          50.00       193.11
 1311.90        2976.75           1581          42.00       158.24
 1311.93        2977.00           1584          42.00       158.24
 1311.97        2977.25           1587          40.00       149.52
 1312.00        2977.50           1591          34.00       123.37
 1312.03        2977.75           1594          38.00       140.80
 1312.06        2978.00           1597          43.00       162.60
 1312.09        2978.25           1601          41.00       153.88
 1312.12        2978.50           1604          33.00       119.01
 1312.16        2978.75           1607          37.00       136.44
 1312.19        2979.00           1611          42.00       158.24
 1312.22        2979.25           1614          31.00       110.29
 1312.25        2979.50           1617          28.00        97.21
 1312.28        2979.75           1621          30.00       105.93
 1312.31        2980.00           1624          36.00       132.08
 1312.34        2980.25           1628          30.00       105.93
 1312.37        2980.50           1631          34.00       123.37
 1312.41        2980.75           1634          33.00       119.01
 1312.44        2981.00           1638          31.00       110.29
 1312.47        2981.25           1641          31.00       110.29
 1312.50        2981.50           1644          30.00       105.93
 1312.53        2981.75           1648          32.00       114.65
 1312.56        2982.00           1651          28.00        97.21
 1312.60        2982.25           1654          39.00       145.16
 1312.63        2982.50           1658          33.00       119.01
 1312.66        2982.75           1661          28.00        97.21
 1312.69        2983.00           1664          32.00       114.65
 1312.72        2983.25           1668          29.00       101.57
 1312.75        2983.50           1671          30.00       105.93
 1312.79        2983.75           1674          27.00        92.85
 1312.82        2984.00           1678          30.00       105.93
HS scan finished at 21:53:02
end
