************************************************************
  HS Scan of (1) Internal mercury lamp
************************************************************
Integration time is 0.2294 seconds per sample
dh230519Izana 28.3081 16.4992 2.857833pr770
************************************************************
Dead Time -------------------------  2.7E-08 
Number of Cycles Used -------------  4 
Starting Wavelength (Angstroms) ---  2950 
Final Wavelength (Angstoms) -------  2984 
Wavelength Increment (Angstroms) --  .25 
Filter Wheel #1 Position ---------- (1) Ground quartz diffuser (ND=2.32)
Filter Wheel #2 Position ---------- (1) Neutral Density 0.494



************************************************************
HS scan start time = 04:40:44
Dark Count =  6.2 


Time (GMT)  Wavelength (Ang)  Step Number  Raw Counts  Counts/Second

  281.07        2950.00           1224          26.00        86.31
  281.14        2950.25           1227          33.00       116.83
  281.17        2950.50           1230          31.00       108.11
  281.20        2950.75           1234          29.00        99.39
  281.23        2951.00           1237          38.00       138.62
  281.26        2951.25           1240          34.00       121.19
  281.29        2951.50           1244          28.00        95.03
  281.32        2951.75           1247          36.00       129.90
  281.36        2952.00           1250          32.00       112.47
  281.39        2952.25           1254          33.00       116.83
  281.42        2952.50           1257          36.00       129.90
  281.45        2952.75           1260          31.00       108.11
  281.48        2953.00           1264          36.00       129.90
  281.51        2953.25           1267          33.00       116.83
  281.55        2953.50           1270          38.00       138.62
  281.58        2953.75           1274          27.00        90.67
  281.61        2954.00           1277          31.00       108.11
  281.64        2954.25           1280          35.00       125.55
  281.67        2954.50           1284          32.00       112.47
  281.70        2954.75           1287          32.00       112.47
  281.73        2955.00           1290          31.00       108.11
  281.77        2955.25           1294          37.00       134.26
  281.80        2955.50           1297          35.00       125.55
  281.83        2955.75           1300          33.00       116.83
  281.86        2956.00           1304          34.00       121.19
  281.89        2956.25           1307          33.00       116.83
  281.92        2956.50           1310          36.00       129.90
  281.95        2956.75           1314          36.00       129.90
  281.99        2957.00           1317          41.00       151.70
  282.02        2957.25           1320          34.00       121.19
  282.05        2957.50           1324          33.00       116.83
  282.08        2957.75           1327          44.00       164.78
  282.11        2958.00           1330          40.00       147.34
  282.14        2958.25           1334          43.00       160.42
  282.18        2958.50           1337          47.00       177.86
  282.21        2958.75           1340          43.00       160.42
  282.24        2959.00           1344          45.00       169.14
  282.27        2959.25           1347          61.00       238.89
  282.30        2959.50           1350          67.00       265.04
  282.33        2959.75           1354          98.00       400.18
  282.37        2960.00           1357         131.00       544.04
  282.40        2960.25           1360         157.00       657.38
  282.43        2960.50           1364         210.00       888.43
  282.46        2960.75           1367         245.00      1041.01
  282.49        2961.00           1370         292.00      1245.90
  282.52        2961.25           1373         363.00      1555.43
  282.56        2961.50           1377         648.00      2797.94
  282.59        2961.75           1380        1253.00      5435.85
  282.62        2962.00           1383        2452.00     10664.80
  282.65        2962.25           1387        5019.00     21864.69
  282.68        2962.50           1390        7042.00     30695.88
  282.71        2962.75           1393        8919.00     38893.49
  282.74        2963.00           1397       11699.00     51041.52
  282.78        2963.25           1400       13668.00     59650.49
  282.81        2963.50           1404       16355.00     71405.19
  282.84        2963.75           1407       18049.00     78819.71
  282.87        2964.00           1410       19870.00     86793.40
  282.90        2964.25           1414       21939.00     95857.19
  282.93        2964.50           1417       23604.00    103154.40
  282.97        2964.75           1420       25579.00    111814.00
  283.00        2965.00           1424       27666.00    120969.00
  283.03        2965.25           1427       28880.00    126296.60
  283.06        2965.50           1430       30736.00    134444.40
  283.09        2965.75           1434       33296.00    145688.80
  283.13        2966.00           1437       35308.00    154531.00
  283.16        2966.25           1440       37220.00    162937.60
  283.19        2966.50           1444       39404.00    172544.80
  283.22        2966.75           1447       40156.00    175853.90
  283.25        2967.00           1450       40442.00    177112.60
  283.29        2967.25           1454       40593.00    177777.20
  283.32        2967.50           1457       40646.00    178010.50
  283.35        2967.75           1460       40473.00    177249.00
  283.38        2968.00           1464       39210.00    171691.20
  283.41        2968.25           1467       38090.00    166764.00
  283.44        2968.50           1470       36456.00    159578.00
  283.47        2968.75           1474       34548.00    151190.50
  283.51        2969.00           1477       32907.00    143979.70
  283.54        2969.25           1480       30834.00    134874.80
  283.57        2969.50           1484       28376.00    124084.60
  283.60        2969.75           1487       26277.00    114875.40
  283.63        2970.00           1490       24328.00    106328.40
  283.67        2970.25           1494       21918.00     95765.18
  283.70        2970.50           1497       19882.00     86845.96
  283.73        2970.75           1500       18039.00     78775.93
  283.76        2971.00           1504       15709.00     68578.49
  283.79        2971.25           1507       14046.00     61303.65
  283.83        2971.50           1510       12126.00     52908.14
  283.86        2971.75           1514        9494.00     41405.46
  283.89        2972.00           1517        7511.00     32743.85
  283.92        2972.25           1520        5823.00     25373.96
  283.95        2972.50           1524        3443.00     14987.76
  283.98        2972.75           1527        2258.00      9818.64
  284.01        2973.00           1530        1188.00      5152.42
  284.05        2973.25           1534         483.00      2078.58
  284.08        2973.50           1537         318.00      1359.25
  284.11        2973.75           1540         205.00       866.63
  284.14        2974.00           1544         146.00       609.43
  284.17        2974.25           1547         119.00       491.72
  284.20        2974.50           1550          92.00       374.02
  284.24        2974.75           1554          66.00       260.68
  284.27        2975.00           1557          54.00       208.37
  284.30        2975.25           1561          50.00       190.93
  284.33        2975.50           1564          42.00       156.06
  284.36        2975.75           1567          41.00       151.70
  284.39        2976.00           1571          50.00       190.93
  284.42        2976.25           1574          36.00       129.90
  284.46        2976.50           1577          50.00       190.93
  284.49        2976.75           1581          45.00       169.14
  284.52        2977.00           1584          42.00       156.06
  284.55        2977.25           1587          37.00       134.26
  284.58        2977.50           1591          40.00       147.34
  284.61        2977.75           1594          44.00       164.78
  284.64        2978.00           1597          33.00       116.83
  284.68        2978.25           1601          36.00       129.90
  284.71        2978.50           1604          35.00       125.55
  284.74        2978.75           1607          38.00       138.62
  284.77        2979.00           1611          35.00       125.55
  284.80        2979.25           1614          33.00       116.83
  284.83        2979.50           1617          33.00       116.83
  284.87        2979.75           1621          28.00        95.03
  284.90        2980.00           1624          34.00       121.19
  284.93        2980.25           1628          37.00       134.26
  284.96        2980.50           1631          33.00       116.83
  284.99        2980.75           1634          33.00       116.83
  285.02        2981.00           1638          35.00       125.55
  285.06        2981.25           1641          36.00       129.90
  285.09        2981.50           1644          37.00       134.26
  285.12        2981.75           1648          32.00       112.47
  285.15        2982.00           1651          30.00       103.75
  285.18        2982.25           1654          31.00       108.11
  285.21        2982.50           1658          34.00       121.19
  285.24        2982.75           1661          29.00        99.39
  285.28        2983.00           1664          32.00       112.47
  285.31        2983.25           1668          31.00       108.11
  285.34        2983.50           1671          35.00       125.55
  285.37        2983.75           1674          29.00        99.39
  285.40        2984.00           1678          32.00       112.47
HS scan finished at 04:45:38
end
************************************************************
  HS Scan of (1) Internal mercury lamp
************************************************************
Integration time is 0.2294 seconds per sample
dh230519Izana 28.3081 16.4992 2.911481pr770
************************************************************
Dead Time -------------------------  2.7E-08 
Number of Cycles Used -------------  4 
Starting Wavelength (Angstroms) ---  2950 
Final Wavelength (Angstoms) -------  2984 
Wavelength Increment (Angstroms) --  .25 
Filter Wheel #1 Position ---------- (1) Ground quartz diffuser (ND=2.32)
Filter Wheel #2 Position ---------- (1) Neutral Density 0.494



************************************************************
HS scan start time = 21:47:18
Dark Count =  6.9 


Time (GMT)  Wavelength (Ang)  Step Number  Raw Counts  Counts/Second

 1307.63        2950.00           1224          32.00       109.42
 1307.69        2950.25           1227          30.00       100.70
 1307.73        2950.50           1230          29.00        96.34
 1307.76        2950.75           1234          34.00       118.13
 1307.79        2951.00           1237          26.00        83.26
 1307.82        2951.25           1240          30.00       100.70
 1307.85        2951.50           1244          37.00       131.21
 1307.88        2951.75           1247          37.00       131.21
 1307.92        2952.00           1250          32.00       109.42
 1307.95        2952.25           1254          33.00       113.78
 1307.98        2952.50           1257          31.00       105.06
 1308.01        2952.75           1260          40.00       144.29
 1308.05        2953.00           1264          45.00       166.09
 1308.09        2953.25           1267          31.00       105.06
 1308.12        2953.50           1270          28.00        91.98
 1308.15        2953.75           1274          37.00       131.21
 1308.18        2954.00           1277          28.00        91.98
 1308.21        2954.25           1280          35.00       122.49
 1308.25        2954.50           1284          28.00        91.98
 1308.28        2954.75           1287          30.00       100.70
 1308.32        2955.00           1290          37.00       131.21
 1308.35        2955.25           1294          41.00       148.65
 1308.39        2955.50           1297          33.00       113.78
 1308.44        2955.75           1300          31.00       105.06
 1308.47        2956.00           1304          43.00       157.37
 1308.50        2956.25           1307          39.00       139.93
 1308.54        2956.50           1310          43.00       157.37
 1308.57        2956.75           1314          35.00       122.49
 1308.60        2957.00           1317          37.00       131.21
 1308.63        2957.25           1320          40.00       144.29
 1308.66        2957.50           1324          36.00       126.85
 1308.70        2957.75           1327          41.00       148.65
 1308.73        2958.00           1330          44.00       161.73
 1308.76        2958.25           1334          44.00       161.73
 1308.79        2958.50           1337          45.00       166.09
 1308.82        2958.75           1340          40.00       144.29
 1308.85        2959.00           1344          47.00       174.80
 1308.88        2959.25           1347          55.00       209.68
 1308.92        2959.50           1350          66.00       257.63
 1308.95        2959.75           1354          85.00       340.46
 1308.98        2960.00           1357         131.00       540.98
 1309.01        2960.25           1360         150.00       623.81
 1309.04        2960.50           1364         177.00       741.51
 1309.07        2960.75           1367         233.00       985.64
 1309.11        2961.00           1370         285.00      1212.33
 1309.14        2961.25           1373         367.00      1569.81
 1309.17        2961.50           1377        1050.00      4547.64
 1309.20        2961.75           1380        1995.00      8668.55
 1309.23        2962.00           1383        3373.00     14679.31
 1309.26        2962.25           1387        5432.00     23664.20
 1309.30        2962.50           1390        7095.00     30924.24
 1309.33        2962.75           1393        8753.00     38165.29
 1309.36        2963.00           1397       11311.00     49342.50
 1309.39        2963.25           1400       13434.00     58624.10
 1309.42        2963.50           1404       16120.00     70373.78
 1309.45        2963.75           1407       18141.00     79219.40
 1309.49        2964.00           1410       19815.00     86549.44
 1309.52        2964.25           1414       22176.00     96892.64
 1309.55        2964.50           1417       23682.00    103493.20
 1309.58        2964.75           1420       25641.00    112082.80
 1309.61        2965.00           1424       28262.00    123581.20
 1309.64        2965.25           1427       29980.00    131122.10
 1309.68        2965.50           1430       32114.00    140493.10
 1309.71        2965.75           1434       34549.00    151191.80
 1309.74        2966.00           1437       36247.00    158656.00
 1309.77        2966.25           1440       37898.00    165916.40
 1309.80        2966.50           1444       39626.00    173518.60
 1309.83        2966.75           1447       40400.00    176924.70
 1309.87        2967.00           1450       40699.00    178240.60
 1309.90        2967.25           1454       40795.00    178663.20
 1309.93        2967.50           1457       40926.00    179239.80
 1309.96        2967.75           1460       40218.00    176123.70
 1309.99        2968.00           1464       39201.00    171648.50
 1310.02        2968.25           1467       37917.00    166000.00
 1310.06        2968.50           1470       36511.00    159816.70
 1310.09        2968.75           1474       34126.00    149332.80
 1310.12        2969.00           1477       32163.00    140708.40
 1310.15        2969.25           1480       30211.00    132136.20
 1310.18        2969.50           1484       27542.00    120421.90
 1310.22        2969.75           1487       25467.00    111319.70
 1310.25        2970.00           1490       23827.00    104128.90
 1310.28        2970.25           1494       21458.00     93746.59
 1310.31        2970.50           1497       19650.00     85826.83
 1310.34        2970.75           1500       17858.00     77980.50
 1310.37        2971.00           1504       15044.00     65666.02
 1310.41        2971.25           1507       13268.00     57898.20
 1310.44        2971.50           1510       11216.00     48927.28
 1310.47        2971.75           1514        8892.00     38772.48
 1310.50        2972.00           1517        7226.00     31496.26
 1310.53        2972.25           1520        5342.00     23271.37
 1310.57        2972.50           1524        2943.00     12803.47
 1310.60        2972.75           1527        1746.00      7582.63
 1310.63        2973.00           1530         777.00      3357.32
 1310.66        2973.25           1534         366.00      1565.45
 1310.69        2973.50           1537         276.00      1173.10
 1310.72        2973.75           1540         215.00       907.17
 1310.75        2974.00           1544         167.00       697.92
 1310.79        2974.25           1547         119.00       488.67
 1310.82        2974.50           1550          93.00       375.33
 1310.85        2974.75           1554          59.00       227.12
 1310.88        2975.00           1557          52.00       196.60
 1310.91        2975.25           1561          51.00       192.24
 1310.94        2975.50           1564          42.00       153.01
 1310.97        2975.75           1567          53.00       200.96
 1311.01        2976.00           1571          39.00       139.93
 1311.04        2976.25           1574          50.00       187.88
 1311.07        2976.50           1577          42.00       153.01
 1311.10        2976.75           1581          44.00       161.73
 1311.13        2977.00           1584          40.00       144.29
 1311.16        2977.25           1587          40.00       144.29
 1311.20        2977.50           1591          39.00       139.93
 1311.23        2977.75           1594          34.00       118.13
 1311.26        2978.00           1597          34.00       118.13
 1311.29        2978.25           1601          39.00       139.93
 1311.32        2978.50           1604          36.00       126.85
 1311.35        2978.75           1607          39.00       139.93
 1311.39        2979.00           1611          35.00       122.49
 1311.42        2979.25           1614          30.00       100.70
 1311.45        2979.50           1617          42.00       153.01
 1311.48        2979.75           1621          32.00       109.42
 1311.51        2980.00           1624          27.00        87.62
 1311.54        2980.25           1628          38.00       135.57
 1311.58        2980.50           1631          33.00       113.78
 1311.61        2980.75           1634          33.00       113.78
 1311.64        2981.00           1638          28.00        91.98
 1311.67        2981.25           1641          35.00       122.49
 1311.70        2981.50           1644          31.00       105.06
 1311.73        2981.75           1648          30.00       100.70
 1311.76        2982.00           1651          38.00       135.57
 1311.79        2982.25           1654          33.00       113.78
 1311.83        2982.50           1658          36.00       126.85
 1311.86        2982.75           1661          30.00       100.70
 1311.89        2983.00           1664          29.00        96.34
 1311.92        2983.25           1668          28.00        91.98
 1311.95        2983.50           1671          31.00       105.06
 1311.98        2983.75           1674          36.00       126.85
 1312.01        2984.00           1678          34.00       118.13
HS scan finished at 21:52:14
end
