************************************************************
  HS Scan of (1) Internal mercury lamp
************************************************************
Integration time is 0.2294 seconds per sample
dh280519Izana 28.3081 16.4992 2.804185pr770
************************************************************
Dead Time -------------------------  2.7E-08 
Number of Cycles Used -------------  4 
Starting Wavelength (Angstroms) ---  2950 
Final Wavelength (Angstoms) -------  2984 
Wavelength Increment (Angstroms) --  .25 
Filter Wheel #1 Position ---------- (1) Ground quartz diffuser (ND=2.32)
Filter Wheel #2 Position ---------- (1) Neutral Density 0.494



************************************************************
HS scan start time = 04:38:32
Dark Count =  5 


Time (GMT)  Wavelength (Ang)  Step Number  Raw Counts  Counts/Second

  278.86        2950.00           1224          28.00       100.26
  278.93        2950.25           1227          29.00       104.62
  278.96        2950.50           1230          28.00       100.26
  278.99        2950.75           1234          23.00        78.47
  279.02        2951.00           1237          29.00       104.62
  279.05        2951.25           1240          31.00       113.34
  279.09        2951.50           1244          27.00        95.90
  279.12        2951.75           1247          30.00       108.98
  279.15        2952.00           1250          31.00       113.34
  279.18        2952.25           1254          29.00       104.62
  279.21        2952.50           1257          31.00       113.34
  279.24        2952.75           1260          29.00       104.62
  279.28        2953.00           1264          42.00       161.29
  279.31        2953.25           1267          32.00       117.70
  279.34        2953.50           1270          34.00       126.42
  279.37        2953.75           1274          36.00       135.14
  279.40        2954.00           1277          28.00       100.26
  279.43        2954.25           1280          33.00       122.06
  279.47        2954.50           1284          25.00        87.18
  279.50        2954.75           1287          32.00       117.70
  279.53        2955.00           1290          29.00       104.62
  279.56        2955.25           1294          35.00       130.78
  279.59        2955.50           1297          26.00        91.54
  279.62        2955.75           1300          28.00       100.26
  279.65        2956.00           1304          34.00       126.42
  279.69        2956.25           1307          31.00       113.34
  279.72        2956.50           1310          38.00       143.85
  279.75        2956.75           1314          37.00       139.49
  279.78        2957.00           1317          34.00       126.42
  279.81        2957.25           1320          41.00       156.93
  279.84        2957.50           1324          45.00       174.37
  279.87        2957.75           1327          41.00       156.93
  279.90        2958.00           1330          38.00       143.85
  279.94        2958.25           1334          36.00       135.14
  279.97        2958.50           1337          34.00       126.42
  280.00        2958.75           1340          42.00       161.29
  280.03        2959.00           1344          45.00       174.37
  280.06        2959.25           1347          49.00       191.81
  280.09        2959.50           1350          63.00       252.84
  280.13        2959.75           1354          80.00       326.94
  280.16        2960.00           1357         102.00       422.85
  280.19        2960.25           1360         146.00       614.66
  280.22        2960.50           1364         176.00       745.44
  280.25        2960.75           1367         233.00       993.92
  280.28        2961.00           1370         260.00      1111.63
  280.32        2961.25           1373         296.00      1268.57
  280.35        2961.50           1377         632.00      2733.42
  280.38        2961.75           1380        1261.00      5475.96
  280.41        2962.00           1383        2271.00      9880.58
  280.44        2962.25           1387        4128.00     17981.70
  280.47        2962.50           1390        5975.00     26042.72
  280.51        2962.75           1393        7999.00     34880.27
  280.54        2963.00           1397       10718.00     46759.09
  280.57        2963.25           1400       12615.00     55051.26
  280.60        2963.50           1404       14908.00     65079.39
  280.63        2963.75           1407       16619.00     72565.76
  280.66        2964.00           1410       18462.00     80633.08
  280.70        2964.25           1414       20642.00     90180.08
  280.73        2964.50           1417       22423.00     97983.38
  280.76        2964.75           1420       23989.00    104847.40
  280.79        2965.00           1424       26142.00    114288.50
  280.82        2965.25           1427       27451.00    120030.90
  280.86        2965.50           1430       29022.00    126925.10
  280.89        2965.75           1434       31149.00    136263.30
  280.92        2966.00           1437       32770.00    143383.10
  280.95        2966.25           1440       34526.00    151099.10
  280.98        2966.50           1444       36595.00    160194.40
  281.01        2966.75           1447       37771.00    165366.20
  281.05        2967.00           1450       38061.00    166641.70
  281.08        2967.25           1454       38080.00    166725.30
  281.11        2967.50           1457       38182.00    167174.00
  281.14        2967.75           1460       37991.00    166333.80
  281.17        2968.00           1464       37063.00    162252.40
  281.20        2968.25           1467       35776.00    156593.60
  281.24        2968.50           1470       34230.00    149798.20
  281.27        2968.75           1474       32157.00    140690.40
  281.30        2969.00           1477       30548.00    133624.20
  281.33        2969.25           1480       29052.00    127056.80
  281.36        2969.50           1484       26866.00    117464.40
  281.40        2969.75           1487       25046.00    109481.80
  281.43        2970.00           1490       23128.00    101073.20
  281.46        2970.25           1494       20476.00     89452.93
  281.49        2970.50           1497       18815.00     82178.66
  281.52        2970.75           1500       16893.00     73764.90
  281.55        2971.00           1504       14480.00     63207.17
  281.59        2971.25           1507       12786.00     55798.92
  281.62        2971.50           1510       11270.00     49171.60
  281.65        2971.75           1514        9139.00     39859.79
  281.68        2972.00           1517        7467.00     32556.94
  281.71        2972.25           1520        5693.00     24811.74
  281.74        2972.50           1524        3374.00     14691.96
  281.78        2972.75           1527        2140.00      9309.23
  281.81        2973.00           1530         994.00      4311.75
  281.84        2973.25           1534         453.00      1953.02
  281.87        2973.50           1537         292.00      1251.13
  281.90        2973.75           1540         196.00       832.63
  281.93        2974.00           1544         149.00       627.74
  281.96        2974.25           1547         110.00       457.72
  282.00        2974.50           1550          83.00       340.02
  282.03        2974.75           1554          56.00       222.32
  282.06        2975.00           1557          44.00       170.01
  282.09        2975.25           1561          43.00       165.65
  282.12        2975.50           1564          44.00       170.01
  282.15        2975.75           1567          46.00       178.73
  282.19        2976.00           1571          46.00       178.73
  282.22        2976.25           1574          43.00       165.65
  282.25        2976.50           1577          46.00       178.73
  282.28        2976.75           1581          41.00       156.93
  282.31        2977.00           1584          36.00       135.14
  282.34        2977.25           1587          34.00       126.42
  282.38        2977.50           1591          35.00       130.78
  282.41        2977.75           1594          41.00       156.93
  282.44        2978.00           1597          33.00       122.06
  282.47        2978.25           1601          31.00       113.34
  282.50        2978.50           1604          33.00       122.06
  282.53        2978.75           1607          37.00       139.49
  282.56        2979.00           1611          37.00       139.49
  282.59        2979.25           1614          31.00       113.34
  282.63        2979.50           1617          31.00       113.34
  282.66        2979.75           1621          29.00       104.62
  282.69        2980.00           1624          34.00       126.42
  282.72        2980.25           1628          41.00       156.93
  282.75        2980.50           1631          37.00       139.49
  282.78        2980.75           1634          28.00       100.26
  282.82        2981.00           1638          30.00       108.98
  282.85        2981.25           1641          34.00       126.42
  282.88        2981.50           1644          25.00        87.18
  282.91        2981.75           1648          26.00        91.54
  282.94        2982.00           1651          26.00        91.54
  282.97        2982.25           1654          37.00       139.49
  283.00        2982.50           1658          36.00       135.14
  283.03        2982.75           1661          28.00       100.26
  283.07        2983.00           1664          28.00       100.26
  283.10        2983.25           1668          33.00       122.06
  283.13        2983.50           1671          25.00        87.18
  283.16        2983.75           1674          29.00       104.62
  283.19        2984.00           1678          28.00       100.26
HS scan finished at 04:43:25
end
************************************************************
  HS Scan of (1) Internal mercury lamp
************************************************************
Integration time is 0.2294 seconds per sample
dh280519Izana 28.3081 16.4992 2.857833pr770
************************************************************
Dead Time -------------------------  2.7E-08 
Number of Cycles Used -------------  4 
Starting Wavelength (Angstroms) ---  2950 
Final Wavelength (Angstoms) -------  2984 
Wavelength Increment (Angstroms) --  .25 
Filter Wheel #1 Position ---------- (1) Ground quartz diffuser (ND=2.32)
Filter Wheel #2 Position ---------- (1) Neutral Density 0.494



************************************************************
HS scan start time = 21:45:30
Dark Count =  7.5 


Time (GMT)  Wavelength (Ang)  Step Number  Raw Counts  Counts/Second

 1305.83        2950.00           1224          26.00        80.65
 1305.90        2950.25           1227          32.00       106.80
 1305.93        2950.50           1230          33.00       111.16
 1305.96        2950.75           1234          33.00       111.16
 1305.99        2951.00           1237          28.00        89.36
 1306.03        2951.25           1240          27.00        85.00
 1306.06        2951.50           1244          32.00       106.80
 1306.09        2951.75           1247          31.00       102.44
 1306.12        2952.00           1250          27.00        85.00
 1306.15        2952.25           1254          28.00        89.36
 1306.18        2952.50           1257          32.00       106.80
 1306.21        2952.75           1260          29.00        93.72
 1306.25        2953.00           1264          27.00        85.00
 1306.28        2953.25           1267          28.00        89.36
 1306.31        2953.50           1270          26.00        80.65
 1306.34        2953.75           1274          28.00        89.36
 1306.37        2954.00           1277          31.00       102.44
 1306.40        2954.25           1280          28.00        89.36
 1306.44        2954.50           1284          34.00       115.52
 1306.47        2954.75           1287          30.00        98.08
 1306.50        2955.00           1290          38.00       132.96
 1306.53        2955.25           1294          26.00        80.65
 1306.56        2955.50           1297          28.00        89.36
 1306.59        2955.75           1300          28.00        89.36
 1306.62        2956.00           1304          34.00       115.52
 1306.65        2956.25           1307          28.00        89.36
 1306.69        2956.50           1310          35.00       119.88
 1306.72        2956.75           1314          39.00       137.32
 1306.75        2957.00           1317          33.00       111.16
 1306.78        2957.25           1320          43.00       154.75
 1306.81        2957.50           1324          43.00       154.75
 1306.84        2957.75           1327          38.00       132.96
 1306.88        2958.00           1330          37.00       128.60
 1306.91        2958.25           1334          35.00       119.88
 1306.94        2958.50           1337          40.00       141.67
 1306.97        2958.75           1340          43.00       154.75
 1307.00        2959.00           1344          46.00       167.83
 1307.03        2959.25           1347          56.00       211.42
 1307.06        2959.50           1350          70.00       272.45
 1307.09        2959.75           1354          92.00       368.36
 1307.13        2960.00           1357         118.00       481.70
 1307.16        2960.25           1360         155.00       642.99
 1307.19        2960.50           1364         199.00       834.81
 1307.22        2960.75           1367         241.00      1017.90
 1307.25        2961.00           1370         274.00      1161.76
 1307.28        2961.25           1373         375.00      1602.07
 1307.32        2961.50           1377        1038.00      4492.70
 1307.35        2961.75           1380        1963.00      8526.37
 1307.38        2962.00           1383        3354.00     14593.81
 1307.41        2962.25           1387        5301.00     23089.80
 1307.44        2962.50           1390        6905.00     30092.01
 1307.47        2962.75           1393        8412.00     36673.17
 1307.51        2963.00           1397       10698.00     46660.76
 1307.54        2963.25           1400       12757.00     55661.18
 1307.57        2963.50           1404       15328.00     66905.85
 1307.60        2963.75           1407       17074.00     74546.15
 1307.63        2964.00           1410       18867.00     82395.40
 1307.66        2964.25           1414       20925.00     91408.84
 1307.70        2964.50           1417       22409.00     97911.07
 1307.73        2964.75           1420       24444.00    106831.20
 1307.76        2965.00           1424       26690.00    116681.30
 1307.79        2965.25           1427       28410.00    124228.10
 1307.82        2965.50           1430       30431.00    133099.50
 1307.85        2965.75           1434       32767.00    143359.00
 1307.89        2966.00           1437       34514.00    151035.30
 1307.92        2966.25           1440       36038.00    157734.40
 1307.95        2966.50           1444       37550.00    164383.20
 1307.98        2966.75           1447       37997.00    166349.20
 1308.01        2967.00           1450       38545.00    168759.80
 1308.05        2967.25           1454       38642.00    169186.50
 1308.08        2967.50           1457       38662.00    169274.50
 1308.12        2967.75           1460       38158.00    167057.40
 1308.15        2968.00           1464       37227.00    162962.60
 1308.18        2968.25           1467       35626.00    155923.10
 1308.22        2968.50           1470       34365.00    150380.50
 1308.25        2968.75           1474       32191.00    140828.70
 1308.28        2969.00           1477       30299.00    132520.00
 1308.32        2969.25           1480       28228.00    123429.40
 1308.36        2969.50           1484       25908.00    113251.20
 1308.40        2969.75           1487       24046.00    105086.30
 1308.43        2970.00           1490       22294.00     97407.11
 1308.47        2970.25           1494       20153.00     88027.19
 1308.50        2970.50           1497       18562.00     81059.96
 1308.53        2970.75           1500       16589.00     72423.52
 1308.56        2971.00           1504       14187.00     61914.67
 1308.59        2971.25           1507       12440.00     54275.21
 1308.62        2971.50           1510       10681.00     46586.46
 1308.65        2971.75           1514        8238.00     35913.18
 1308.69        2972.00           1517        6852.00     29860.60
 1308.72        2972.25           1520        5007.00     21806.65
 1308.75        2972.50           1524        2584.00     11234.88
 1308.78        2972.75           1527        1490.00      6463.64
 1308.82        2973.00           1530         678.00      2923.07
 1308.85        2973.25           1534         311.00      1323.06
 1308.88        2973.50           1537         233.00       983.03
 1308.91        2973.75           1540         182.00       760.70
 1308.95        2974.00           1544         127.00       520.93
 1308.98        2974.25           1547         104.00       420.67
 1309.01        2974.50           1550          73.00       285.53
 1309.04        2974.75           1554          57.00       215.78
 1309.07        2975.00           1557          54.00       202.70
 1309.10        2975.25           1561          51.00       189.63
 1309.13        2975.50           1564          46.00       167.83
 1309.17        2975.75           1567          40.00       141.67
 1309.20        2976.00           1571          38.00       132.96
 1309.23        2976.25           1574          43.00       154.75
 1309.26        2976.50           1577          39.00       137.32
 1309.29        2976.75           1581          37.00       128.60
 1309.32        2977.00           1584          39.00       137.32
 1309.36        2977.25           1587          39.00       137.32
 1309.39        2977.50           1591          36.00       124.24
 1309.42        2977.75           1594          32.00       106.80
 1309.45        2978.00           1597          36.00       124.24
 1309.48        2978.25           1601          37.00       128.60
 1309.51        2978.50           1604          33.00       111.16
 1309.55        2978.75           1607          28.00        89.36
 1309.58        2979.00           1611          31.00       102.44
 1309.61        2979.25           1614          30.00        98.08
 1309.64        2979.50           1617          33.00       111.16
 1309.67        2979.75           1621          28.00        89.36
 1309.70        2980.00           1624          34.00       115.52
 1309.73        2980.25           1628          29.00        93.72
 1309.77        2980.50           1631          30.00        98.08
 1309.80        2980.75           1634          32.00       106.80
 1309.83        2981.00           1638          32.00       106.80
 1309.86        2981.25           1641          32.00       106.80
 1309.89        2981.50           1644          34.00       115.52
 1309.92        2981.75           1648          25.00        76.29
 1309.96        2982.00           1651          28.00        89.36
 1309.99        2982.25           1654          40.00       141.67
 1310.02        2982.50           1658          25.00        76.29
 1310.05        2982.75           1661          24.00        71.93
 1310.08        2983.00           1664          26.00        80.65
 1310.11        2983.25           1668          29.00        93.72
 1310.15        2983.50           1671          26.00        80.65
 1310.18        2983.75           1674          28.00        89.36
 1310.21        2984.00           1678          28.00        89.36
HS scan finished at 21:50:26
end
