************************************************************
  HS Scan of (1) Internal mercury lamp
************************************************************
Integration time is 0.2294 seconds per sample
dh290519Izana 28.3081 16.4992 2.857833pr770
************************************************************
Dead Time -------------------------  2.7E-08 
Number of Cycles Used -------------  4 
Starting Wavelength (Angstroms) ---  2950 
Final Wavelength (Angstoms) -------  2984 
Wavelength Increment (Angstroms) --  .25 
Filter Wheel #1 Position ---------- (1) Ground quartz diffuser (ND=2.32)
Filter Wheel #2 Position ---------- (1) Neutral Density 0.494



************************************************************
HS scan start time = 04:39:13
Dark Count =  7.8 


Time (GMT)  Wavelength (Ang)  Step Number  Raw Counts  Counts/Second

  279.54        2950.00           1224          27.00        83.70
  279.61        2950.25           1227          29.00        92.42
  279.64        2950.50           1230          53.00       197.04
  279.67        2950.75           1234          30.00        96.77
  279.70        2951.00           1237          61.00       231.91
  279.73        2951.25           1240          33.00       109.85
  279.76        2951.50           1244          35.00       118.57
  279.79        2951.75           1247          31.00       101.13
  279.82        2952.00           1250          30.00        96.77
  279.86        2952.25           1254          30.00        96.77
  279.89        2952.50           1257          31.00       101.13
  279.92        2952.75           1260          33.00       109.85
  279.95        2953.00           1264          28.00        88.06
  279.98        2953.25           1267          28.00        88.06
  280.01        2953.50           1270          35.00       118.57
  280.05        2953.75           1274          28.00        88.06
  280.08        2954.00           1277          32.00       105.49
  280.11        2954.25           1280          31.00       101.13
  280.14        2954.50           1284          25.00        74.98
  280.17        2954.75           1287          29.00        92.42
  280.20        2955.00           1290          31.00       101.13
  280.24        2955.25           1294          26.00        79.34
  280.27        2955.50           1297          28.00        88.06
  280.30        2955.75           1300          28.00        88.06
  280.33        2956.00           1304          27.00        83.70
  280.36        2956.25           1307          34.00       114.21
  280.39        2956.50           1310          35.00       118.57
  280.42        2956.75           1314          31.00       101.13
  280.45        2957.00           1317          34.00       114.21
  280.49        2957.25           1320          36.00       122.93
  280.52        2957.50           1324          34.00       114.21
  280.55        2957.75           1327          30.00        96.77
  280.58        2958.00           1330          36.00       122.93
  280.61        2958.25           1334          32.00       105.49
  280.64        2958.50           1337          40.00       140.37
  280.67        2958.75           1340          37.00       127.29
  280.71        2959.00           1344          42.00       149.09
  280.74        2959.25           1347          53.00       197.04
  280.77        2959.50           1350          65.00       249.35
  280.80        2959.75           1354          82.00       323.46
  280.83        2960.00           1357         107.00       432.44
  280.86        2960.25           1360         143.00       589.37
  280.90        2960.50           1364         185.00       772.47
  280.93        2960.75           1367         233.00       981.72
  280.96        2961.00           1370         266.00      1125.58
  280.99        2961.25           1373         315.00      1339.19
  281.02        2961.50           1377         702.00      3026.40
  281.05        2961.75           1380        1469.00      6370.76
  281.08        2962.00           1383        2720.00     11826.79
  281.12        2962.25           1387        4601.00     20033.50
  281.15        2962.50           1390        6233.00     27156.79
  281.18        2962.75           1393        7920.00     34523.01
  281.21        2963.00           1397       10464.00     45636.85
  281.24        2963.25           1400       12539.00     54706.73
  281.27        2963.50           1404       15051.00     65692.71
  281.31        2963.75           1407       16768.00     73205.58
  281.34        2964.00           1410       18598.00     81216.26
  281.37        2964.25           1414       20824.00     90965.08
  281.40        2964.50           1417       22647.00     98952.78
  281.43        2964.75           1420       24451.00    106860.60
  281.46        2965.00           1424       26515.00    115912.30
  281.50        2965.25           1427       27747.00    121317.40
  281.53        2965.50           1430       29615.00    129515.80
  281.56        2965.75           1434       31794.00    139083.70
  281.59        2966.00           1437       33261.00    145528.00
  281.62        2966.25           1440       34845.00    152488.80
  281.65        2966.50           1444       36714.00    160705.40
  281.68        2966.75           1447       37760.00    165305.50
  281.72        2967.00           1450       38131.00    166937.30
  281.75        2967.25           1454       38263.00    167517.90
  281.78        2967.50           1457       38334.00    167830.30
  281.81        2967.75           1460       38011.00    166409.50
  281.84        2968.00           1464       37083.00    162328.10
  281.88        2968.25           1467       36072.00    157882.60
  281.91        2968.50           1470       34335.00    150247.30
  281.94        2968.75           1474       32238.00    141033.90
  281.97        2969.00           1477       30476.00    133295.80
  282.00        2969.25           1480       28811.00    125986.70
  282.03        2969.50           1484       26360.00    115232.40
  282.07        2969.75           1487       24843.00    108579.40
  282.10        2970.00           1490       23269.00    101678.90
  282.13        2970.25           1494       20650.00     90202.85
  282.16        2970.50           1497       18775.00     81991.25
  282.19        2970.75           1500       16893.00     73752.65
  282.22        2971.00           1504       14354.00     62643.79
  282.26        2971.25           1507       12789.00     55799.79
  282.29        2971.50           1510       10923.00     47642.77
  282.32        2971.75           1514        8709.00     37969.16
  282.35        2972.00           1517        7461.00     32518.51
  282.38        2972.25           1520        5628.00     24515.79
  282.41        2972.50           1524        3283.00     14282.75
  282.45        2972.75           1527        1996.00      8668.99
  282.48        2973.00           1530         914.00      3950.73
  282.51        2973.25           1534         388.00      1657.44
  282.54        2973.50           1537         257.00      1086.34
  282.57        2973.75           1540         187.00       781.18
  282.60        2974.00           1544         144.00       593.73
  282.64        2974.25           1547         111.00       449.87
  282.67        2974.50           1550          89.00       353.97
  282.70        2974.75           1554          64.00       244.99
  282.73        2975.00           1557          54.00       201.40
  282.76        2975.25           1561          50.00       183.96
  282.79        2975.50           1564          44.00       157.80
  282.83        2975.75           1567          42.00       149.09
  282.86        2976.00           1571          40.00       140.37
  282.89        2976.25           1574          46.00       166.52
  282.92        2976.50           1577          38.00       131.65
  282.95        2976.75           1581          48.00       175.24
  282.98        2977.00           1584          37.00       127.29
  283.02        2977.25           1587          41.00       144.73
  283.05        2977.50           1591          29.00        92.42
  283.08        2977.75           1594          36.00       122.93
  283.11        2978.00           1597          29.00        92.42
  283.14        2978.25           1601          33.00       109.85
  283.17        2978.50           1604          31.00       101.13
  283.20        2978.75           1607          33.00       109.85
  283.23        2979.00           1611          33.00       109.85
  283.27        2979.25           1614          32.00       105.49
  283.30        2979.50           1617          32.00       105.49
  283.33        2979.75           1621          36.00       122.93
  283.36        2980.00           1624          31.00       101.13
  283.39        2980.25           1628          29.00        92.42
  283.42        2980.50           1631          32.00       105.49
  283.45        2980.75           1634          30.00        96.77
  283.49        2981.00           1638          31.00       101.13
  283.52        2981.25           1641          28.00        88.06
  283.55        2981.50           1644          33.00       109.85
  283.58        2981.75           1648          30.00        96.77
  283.61        2982.00           1651          29.00        92.42
  283.64        2982.25           1654          26.00        79.34
  283.67        2982.50           1658          27.00        83.70
  283.71        2982.75           1661          22.00        61.90
  283.74        2983.00           1664          26.00        79.34
  283.77        2983.25           1668          28.00        88.06
  283.80        2983.50           1671          31.00       101.13
  283.83        2983.75           1674          29.00        92.42
  283.86        2984.00           1678          31.00       101.13
HS scan finished at 04:44:05
end
************************************************************
  HS Scan of (1) Internal mercury lamp
************************************************************
Integration time is 0.2294 seconds per sample
dh290519Izana 28.3081 16.4992 2.911481pr770
************************************************************
Dead Time -------------------------  2.7E-08 
Number of Cycles Used -------------  4 
Starting Wavelength (Angstroms) ---  2950 
Final Wavelength (Angstoms) -------  2984 
Wavelength Increment (Angstroms) --  .25 
Filter Wheel #1 Position ---------- (1) Ground quartz diffuser (ND=2.32)
Filter Wheel #2 Position ---------- (1) Neutral Density 0.494



************************************************************
HS scan start time = 21:44:51
Dark Count =  5.3 


Time (GMT)  Wavelength (Ang)  Step Number  Raw Counts  Counts/Second

 1305.18        2950.00           1224          27.00        94.59
 1305.24        2950.25           1227          36.00       133.83
 1305.27        2950.50           1230          32.00       116.39
 1305.31        2950.75           1234          33.00       120.75
 1305.34        2951.00           1237          33.00       120.75
 1305.37        2951.25           1240          28.00        98.95
 1305.40        2951.50           1244          34.00       125.11
 1305.43        2951.75           1247          25.00        85.88
 1305.46        2952.00           1250          24.00        81.52
 1305.49        2952.25           1254          25.00        85.88
 1305.53        2952.50           1257          39.00       146.91
 1305.56        2952.75           1260          31.00       112.03
 1305.59        2953.00           1264          34.00       125.11
 1305.62        2953.25           1267          26.00        90.24
 1305.65        2953.50           1270          29.00       103.31
 1305.68        2953.75           1274          30.00       107.67
 1305.71        2954.00           1277          28.00        98.95
 1305.75        2954.25           1280          32.00       116.39
 1305.78        2954.50           1284          32.00       116.39
 1305.81        2954.75           1287          33.00       120.75
 1305.84        2955.00           1290          32.00       116.39
 1305.87        2955.25           1294          49.00       190.50
 1305.90        2955.50           1297          33.00       120.75
 1305.94        2955.75           1300          29.00       103.31
 1305.97        2956.00           1304          39.00       146.91
 1306.00        2956.25           1307          33.00       120.75
 1306.03        2956.50           1310          33.00       120.75
 1306.06        2956.75           1314          35.00       129.47
 1306.09        2957.00           1317          35.00       129.47
 1306.13        2957.25           1320          36.00       133.83
 1306.16        2957.50           1324          32.00       116.39
 1306.19        2957.75           1327          35.00       129.47
 1306.22        2958.00           1330          36.00       133.83
 1306.25        2958.25           1334          41.00       155.62
 1306.28        2958.50           1337          36.00       133.83
 1306.31        2958.75           1340          45.00       173.06
 1306.35        2959.00           1344          40.00       151.26
 1306.38        2959.25           1347          49.00       190.50
 1306.41        2959.50           1350          62.00       247.17
 1306.44        2959.75           1354          86.00       351.79
 1306.47        2960.00           1357         109.00       452.05
 1306.50        2960.25           1360         152.00       639.51
 1306.54        2960.50           1364         174.00       735.41
 1306.57        2960.75           1367         230.00       979.54
 1306.60        2961.00           1370         268.00      1145.20
 1306.63        2961.25           1373         308.00      1319.58
 1306.66        2961.50           1377         845.00      3660.78
 1306.69        2961.75           1380        1585.00      6887.51
 1306.73        2962.00           1383        2769.00     12051.44
 1306.76        2962.25           1387        4689.00     20428.44
 1306.79        2962.50           1390        6072.00     26464.85
 1306.82        2962.75           1393        7916.00     34516.46
 1306.85        2963.00           1397       10458.00     45621.55
 1306.88        2963.25           1400       12588.00     54931.90
 1306.92        2963.50           1404       15085.00     65852.38
 1306.95        2963.75           1407       16767.00     73212.13
 1306.98        2964.00           1410       18470.00     80666.78
 1307.01        2964.25           1414       20665.00     90279.52
 1307.04        2964.50           1417       22432.00     98021.51
 1307.08        2964.75           1420       24262.00    106042.90
 1307.11        2965.00           1424       26734.00    116884.00
 1307.14        2965.25           1427       28433.00    124338.70
 1307.17        2965.50           1430       30358.00    132788.70
 1307.20        2965.75           1434       32485.00    142129.80
 1307.24        2966.00           1437       34145.00    149423.30
 1307.27        2966.25           1440       35808.00    156732.90
 1307.30        2966.50           1444       37818.00    165571.60
 1307.33        2966.75           1447       38610.00    169055.40
 1307.36        2967.00           1450       38895.00    170309.30
 1307.39        2967.25           1454       39088.00    171158.40
 1307.42        2967.50           1457       38963.00    170608.40
 1307.46        2967.75           1460       38944.00    170524.80
 1307.49        2968.00           1464       38008.00    166407.30
 1307.52        2968.25           1467       36679.00    160562.50
 1307.55        2968.50           1470       35496.00    155361.30
 1307.58        2968.75           1474       33077.00    144730.50
 1307.61        2969.00           1477       31372.00    137241.30
 1307.65        2969.25           1480       29758.00    130154.50
 1307.68        2969.50           1484       27047.00    118257.10
 1307.71        2969.75           1487       25289.00    110546.10
 1307.74        2970.00           1490       23806.00    104043.80
 1307.77        2970.25           1494       21366.00     93350.51
 1307.81        2970.50           1497       19386.00     84677.69
 1307.84        2970.75           1500       17401.00     75987.03
 1307.87        2971.00           1504       14953.00     65274.92
 1307.90        2971.25           1507       13184.00     57537.88
 1307.93        2971.50           1510       11194.00     48838.12
 1307.96        2971.75           1514        9055.00     39491.52
 1308.00        2972.00           1517        7498.00     32691.01
 1308.04        2972.25           1520        5553.00     24199.33
 1308.08        2972.50           1524        3153.00     13726.53
 1308.11        2972.75           1527        1755.00      7628.86
 1308.14        2973.00           1530         890.00      3856.98
 1308.17        2973.25           1534         387.00      1663.98
 1308.20        2973.50           1537         259.00      1105.96
 1308.24        2973.75           1540         206.00       874.91
 1308.27        2974.00           1544         144.00       604.63
 1308.30        2974.25           1547         106.00       438.98
 1308.34        2974.50           1550          95.00       391.02
 1308.38        2974.75           1554          65.00       260.25
 1308.42        2975.00           1557          54.00       212.29
 1308.45        2975.25           1561          45.00       173.06
 1308.48        2975.50           1564          47.00       181.78
 1308.51        2975.75           1567          43.00       164.34
 1308.55        2976.00           1571          40.00       151.26
 1308.58        2976.25           1574          36.00       133.83
 1308.61        2976.50           1577          36.00       133.83
 1308.64        2976.75           1581          36.00       133.83
 1308.67        2977.00           1584          36.00       133.83
 1308.70        2977.25           1587          33.00       120.75
 1308.73        2977.50           1591          38.00       142.55
 1308.77        2977.75           1594          34.00       125.11
 1308.80        2978.00           1597          31.00       112.03
 1308.83        2978.25           1601          31.00       112.03
 1308.87        2978.50           1604          36.00       133.83
 1308.90        2978.75           1607          31.00       112.03
 1308.93        2979.00           1611          29.00       103.31
 1308.96        2979.25           1614          31.00       112.03
 1308.99        2979.50           1617          33.00       120.75
 1309.02        2979.75           1621          31.00       112.03
 1309.05        2980.00           1624          32.00       116.39
 1309.09        2980.25           1628          22.00        72.80
 1309.12        2980.50           1631          28.00        98.95
 1309.15        2980.75           1634          29.00       103.31
 1309.18        2981.00           1638          26.00        90.24
 1309.21        2981.25           1641          36.00       133.83
 1309.24        2981.50           1644          27.00        94.59
 1309.27        2981.75           1648          28.00        98.95
 1309.31        2982.00           1651          32.00       116.39
 1309.34        2982.25           1654          31.00       112.03
 1309.37        2982.50           1658          29.00       103.31
 1309.40        2982.75           1661          23.00        77.16
 1309.43        2983.00           1664          29.00       103.31
 1309.46        2983.25           1668          26.00        90.24
 1309.50        2983.50           1671          34.00       125.11
 1309.53        2983.75           1674          34.00       125.11
 1309.56        2984.00           1678          33.00       120.75
HS scan finished at 21:49:47
end
