************************************************************
  HS Scan of (1) Internal mercury lamp
************************************************************
Integration time is 0.2294 seconds per sample
dh220519Izana 28.3081 16.4992 2.857833pr770
************************************************************
Dead Time -------------------------  2.7E-08 
Number of Cycles Used -------------  4 
Starting Wavelength (Angstroms) ---  2950 
Final Wavelength (Angstoms) -------  2984 
Wavelength Increment (Angstroms) --  .25 
Filter Wheel #1 Position ---------- (1) Ground quartz diffuser (ND=2.32)
Filter Wheel #2 Position ---------- (1) Neutral Density 0.494



************************************************************
HS scan start time = 04:40:47
Dark Count =  6.7 


Time (GMT)  Wavelength (Ang)  Step Number  Raw Counts  Counts/Second

  281.12        2950.00           1224          32.00       110.29
  281.19        2950.25           1227          28.00        92.85
  281.22        2950.50           1230          38.00       136.44
  281.25        2950.75           1234          29.00        97.21
  281.28        2951.00           1237          33.00       114.65
  281.31        2951.25           1240          28.00        92.85
  281.35        2951.50           1244          36.00       127.72
  281.38        2951.75           1247          32.00       110.29
  281.41        2952.00           1250          30.00       101.57
  281.44        2952.25           1254          38.00       136.44
  281.47        2952.50           1257          35.00       123.37
  281.50        2952.75           1260          40.00       145.16
  281.53        2953.00           1264          36.00       127.72
  281.56        2953.25           1267          30.00       101.57
  281.60        2953.50           1270          34.00       119.01
  281.63        2953.75           1274          40.00       145.16
  281.66        2954.00           1277          37.00       132.08
  281.69        2954.25           1280          34.00       119.01
  281.72        2954.50           1284          29.00        97.21
  281.75        2954.75           1287          34.00       119.01
  281.79        2955.00           1290          33.00       114.65
  281.82        2955.25           1294          38.00       136.44
  281.85        2955.50           1297          35.00       123.37
  281.88        2955.75           1300          31.00       105.93
  281.91        2956.00           1304          28.00        92.85
  281.94        2956.25           1307          29.00        97.21
  281.98        2956.50           1310          31.00       105.93
  282.01        2956.75           1314          32.00       110.29
  282.04        2957.00           1317          36.00       127.72
  282.07        2957.25           1320          36.00       127.72
  282.10        2957.50           1324          39.00       140.80
  282.13        2957.75           1327          39.00       140.80
  282.17        2958.00           1330          42.00       153.88
  282.20        2958.25           1334          43.00       158.24
  282.23        2958.50           1337          37.00       132.08
  282.26        2958.75           1340          53.00       201.83
  282.29        2959.00           1344          46.00       171.32
  282.32        2959.25           1347          54.00       206.19
  282.35        2959.50           1350          69.00       271.58
  282.39        2959.75           1354          83.00       332.61
  282.42        2960.00           1357         112.00       459.03
  282.45        2960.25           1360         157.00       655.20
  282.48        2960.50           1364         175.00       733.67
  282.51        2960.75           1367         238.00      1008.31
  282.54        2961.00           1370         263.00      1117.30
  282.58        2961.25           1373         321.00      1370.15
  282.61        2961.50           1377         597.00      2573.41
  282.64        2961.75           1380        1273.00      5520.88
  282.67        2962.00           1383        2555.00     11111.88
  282.70        2962.25           1387        4924.00     21447.90
  282.73        2962.50           1390        6954.00     30309.45
  282.77        2962.75           1393        8779.00     38279.74
  282.80        2963.00           1397       11263.00     49133.58
  282.83        2963.25           1400       12869.00     56154.39
  282.86        2963.50           1404       15560.00     67924.37
  282.89        2963.75           1407       17440.00     76151.63
  282.92        2964.00           1410       19504.00     85188.31
  282.96        2964.25           1414       22136.00     96718.25
  282.99        2964.50           1417       23747.00    103779.10
  283.02        2964.75           1420       25550.00    111684.60
  283.05        2965.00           1424       27890.00    121949.70
  283.08        2965.25           1427       29425.00    128686.50
  283.11        2965.50           1430       31370.00    137226.30
  283.15        2965.75           1434       33828.00    148024.20
  283.18        2966.00           1437       35375.00    154823.30
  283.21        2966.25           1440       37258.00    163102.50
  283.24        2966.50           1444       39038.00    170932.20
  283.27        2966.75           1447       39872.00    174601.90
  283.31        2967.00           1450       40334.00    176635.10
  283.34        2967.25           1454       40514.00    177427.30
  283.37        2967.50           1457       40627.00    177924.60
  283.40        2967.75           1460       40348.00    176696.70
  283.43        2968.00           1464       39268.00    171944.20
  283.47        2968.25           1467       37939.00    166097.60
  283.50        2968.50           1470       36364.00    159171.30
  283.53        2968.75           1474       34375.00    150428.00
  283.56        2969.00           1477       32638.00    142795.80
  283.59        2969.25           1480       30701.00    134288.60
  283.62        2969.50           1484       28000.00    122432.40
  283.66        2969.75           1487       26222.00    114631.90
  283.69        2970.00           1490       24348.00    106413.90
  283.72        2970.25           1494       21864.00     95526.37
  283.75        2970.50           1497       19969.00     87224.81
  283.78        2970.75           1500       18043.00     78791.25
  283.81        2971.00           1504       15158.00     66165.61
  283.85        2971.25           1507       13397.00     58463.18
  283.88        2971.50           1510       11355.00     49535.69
  283.91        2971.75           1514        8955.00     39048.56
  283.94        2972.00           1517        7289.00     31772.23
  283.97        2972.25           1520        5724.00     24939.63
  284.01        2972.50           1524        3481.00     15151.36
  284.04        2972.75           1527        2256.00      9807.74
  284.07        2973.00           1530        1102.00      4775.25
  284.10        2973.25           1534         447.00      1919.45
  284.13        2973.50           1537         266.00      1130.37
  284.16        2973.75           1540         221.00       934.20
  284.20        2974.00           1544         168.00       703.15
  284.23        2974.25           1547         126.00       520.06
  284.26        2974.50           1550          92.00       371.84
  284.29        2974.75           1554          65.00       254.14
  284.32        2975.00           1557          59.00       227.99
  284.35        2975.25           1561          55.00       210.55
  284.38        2975.50           1564          51.00       193.11
  284.42        2975.75           1567          40.00       145.16
  284.45        2976.00           1571          46.00       171.32
  284.48        2976.25           1574          40.00       145.16
  284.51        2976.50           1577          44.00       162.60
  284.54        2976.75           1581          43.00       158.24
  284.57        2977.00           1584          42.00       153.88
  284.61        2977.25           1587          37.00       132.08
  284.64        2977.50           1591          40.00       145.16
  284.67        2977.75           1594          37.00       132.08
  284.70        2978.00           1597          40.00       145.16
  284.73        2978.25           1601          44.00       162.60
  284.76        2978.50           1604          38.00       136.44
  284.79        2978.75           1607          31.00       105.93
  284.82        2979.00           1611          43.00       158.24
  284.86        2979.25           1614          41.00       149.52
  284.89        2979.50           1617          31.00       105.93
  284.92        2979.75           1621          38.00       136.44
  284.95        2980.00           1624          25.00        79.77
  284.98        2980.25           1628          30.00       101.57
  285.02        2980.50           1631          30.00       101.57
  285.05        2980.75           1634          38.00       136.44
  285.08        2981.00           1638          28.00        92.85
  285.11        2981.25           1641          30.00       101.57
  285.14        2981.50           1644          32.00       110.29
  285.17        2981.75           1648          33.00       114.65
  285.21        2982.00           1651          32.00       110.29
  285.24        2982.25           1654          31.00       105.93
  285.27        2982.50           1658          31.00       105.93
  285.30        2982.75           1661          29.00        97.21
  285.33        2983.00           1664          27.00        88.49
  285.36        2983.25           1668          28.00        92.85
  285.39        2983.50           1671          30.00       101.57
  285.42        2983.75           1674          34.00       119.01
  285.46        2984.00           1678          33.00       114.65
HS scan finished at 04:45:41
end
************************************************************
  HS Scan of (1) Internal mercury lamp
************************************************************
Integration time is 0.2294 seconds per sample
dh220519Izana 28.3081 16.4992 2.804185pr770
************************************************************
Dead Time -------------------------  2.7E-08 
Number of Cycles Used -------------  4 
Starting Wavelength (Angstroms) ---  2950 
Final Wavelength (Angstoms) -------  2984 
Wavelength Increment (Angstroms) --  .25 
Filter Wheel #1 Position ---------- (1) Ground quartz diffuser (ND=2.32)
Filter Wheel #2 Position ---------- (1) Neutral Density 0.494



************************************************************
HS scan start time = 21:49:04
Dark Count =  8.100001 


Time (GMT)  Wavelength (Ang)  Step Number  Raw Counts  Counts/Second

 1309.39        2950.00           1224          43.00       152.14
 1309.46        2950.25           1227          34.00       112.90
 1309.49        2950.50           1230          29.00        91.11
 1309.52        2950.75           1234          38.00       130.34
 1309.55        2951.00           1237          35.00       117.26
 1309.58        2951.25           1240          31.00        99.83
 1309.61        2951.50           1244          27.00        82.39
 1309.65        2951.75           1247          31.00        99.83
 1309.68        2952.00           1250          30.00        95.47
 1309.71        2952.25           1254          32.00       104.19
 1309.74        2952.50           1257          33.00       108.54
 1309.77        2952.75           1260          38.00       130.34
 1309.80        2953.00           1264          36.00       121.62
 1309.83        2953.25           1267          36.00       121.62
 1309.87        2953.50           1270          32.00       104.19
 1309.90        2953.75           1274          23.00        64.95
 1309.93        2954.00           1277          33.00       108.54
 1309.96        2954.25           1280          33.00       108.54
 1310.00        2954.50           1284          40.00       139.06
 1310.04        2954.75           1287          38.00       130.34
 1310.07        2955.00           1290          43.00       152.14
 1310.10        2955.25           1294          38.00       130.34
 1310.13        2955.50           1297          32.00       104.19
 1310.16        2955.75           1300          31.00        99.83
 1310.19        2956.00           1304          33.00       108.54
 1310.22        2956.25           1307          36.00       121.62
 1310.25        2956.50           1310          37.00       125.98
 1310.29        2956.75           1314          37.00       125.98
 1310.32        2957.00           1317          33.00       108.54
 1310.35        2957.25           1320          36.00       121.62
 1310.38        2957.50           1324          41.00       143.42
 1310.41        2957.75           1327          50.00       182.65
 1310.44        2958.00           1330          39.00       134.70
 1310.48        2958.25           1334          43.00       152.14
 1310.51        2958.50           1337          45.00       160.86
 1310.54        2958.75           1340          38.00       130.34
 1310.57        2959.00           1344          46.00       165.21
 1310.60        2959.25           1347          49.00       178.29
 1310.63        2959.50           1350          68.00       261.12
 1310.67        2959.75           1354          85.00       335.23
 1310.70        2960.00           1357         115.00       466.00
 1310.73        2960.25           1360         151.00       622.94
 1310.76        2960.50           1364         191.00       797.31
 1310.79        2960.75           1367         233.00       980.41
 1310.82        2961.00           1370         265.00      1119.91
 1310.85        2961.25           1373         330.00      1403.28
 1310.89        2961.50           1377         862.00      3722.69
 1310.92        2961.75           1380        1704.00      7394.24
 1310.95        2962.00           1383        2854.00     12410.00
 1310.98        2962.25           1387        4825.00     21009.74
 1311.01        2962.50           1390        6350.00     27666.26
 1311.05        2962.75           1393        8287.00     36124.59
 1311.08        2963.00           1397       11005.00     47999.84
 1311.11        2963.25           1400       12961.00     56550.54
 1311.14        2963.50           1404       15612.00     68145.77
 1311.17        2963.75           1407       17405.00     75992.29
 1311.20        2964.00           1410       19023.00     83075.85
 1311.23        2964.25           1414       21412.00     93539.79
 1311.27        2964.50           1417       23003.00    100511.70
 1311.30        2964.75           1420       25105.00    109727.00
 1311.33        2965.00           1424       27687.00    121052.80
 1311.36        2965.25           1427       29331.00    128267.80
 1311.39        2965.50           1430       31421.00    137444.20
 1311.43        2965.75           1434       33615.00    147082.10
 1311.46        2966.00           1437       35076.00    153502.80
 1311.49        2966.25           1440       37086.00    162339.90
 1311.52        2966.50           1444       39211.00    171687.20
 1311.55        2966.75           1447       39682.00    173759.70
 1311.58        2967.00           1450       40079.00    175506.70
 1311.61        2967.25           1454       40516.00    177429.90
 1311.65        2967.50           1457       40176.00    175933.60
 1311.68        2967.75           1460       39942.00    174903.80
 1311.71        2968.00           1464       39106.00    171225.30
 1311.74        2968.25           1467       37788.00    165427.30
 1311.77        2968.50           1470       36311.00    158932.10
 1311.80        2968.75           1474       33691.00    147416.00
 1311.84        2969.00           1477       31891.00    139508.40
 1311.87        2969.25           1480       30053.00    131437.30
 1311.90        2969.50           1484       27461.00    120061.20
 1311.93        2969.75           1487       25847.00    112981.00
 1311.96        2970.00           1490       24088.00    105267.80
 1311.99        2970.25           1494       21808.00     95274.86
 1312.03        2970.50           1497       19792.00     86443.46
 1312.06        2970.75           1500       17727.00     77401.78
 1312.09        2971.00           1504       15104.00     65923.25
 1312.12        2971.25           1507       13374.00     58356.49
 1312.15        2971.50           1510       11489.00     50115.28
 1312.19        2971.75           1514        9119.00     39758.88
 1312.22        2972.00           1517        7557.00     32936.43
 1312.25        2972.25           1520        5558.00     24208.93
 1312.28        2972.50           1524        3082.00     13404.59
 1312.31        2972.75           1527        1855.00      8052.75
 1312.34        2973.00           1530         840.00      3626.77
 1312.38        2973.25           1534         408.00      1743.33
 1312.41        2973.50           1537         293.00      1241.98
 1312.44        2973.75           1540         211.00       884.50
 1312.47        2974.00           1544         160.00       662.17
 1312.50        2974.25           1547         124.00       505.24
 1312.53        2974.50           1550          94.00       374.46
 1312.57        2974.75           1554          66.00       252.40
 1312.60        2975.00           1557          55.00       204.45
 1312.63        2975.25           1561          53.00       195.73
 1312.66        2975.50           1564          43.00       152.14
 1312.69        2975.75           1567          50.00       182.65
 1312.72        2976.00           1571          38.00       130.34
 1312.76        2976.25           1574          47.00       169.57
 1312.79        2976.50           1577          44.00       156.50
 1312.82        2976.75           1581          39.00       134.70
 1312.85        2977.00           1584          40.00       139.06
 1312.88        2977.25           1587          49.00       178.29
 1312.91        2977.50           1591          37.00       125.98
 1312.94        2977.75           1594          39.00       134.70
 1312.98        2978.00           1597          37.00       125.98
 1313.01        2978.25           1601          30.00        95.47
 1313.04        2978.50           1604          35.00       117.26
 1313.07        2978.75           1607          37.00       125.98
 1313.10        2979.00           1611          36.00       121.62
 1313.13        2979.25           1614          28.00        86.75
 1313.17        2979.50           1617          30.00        95.47
 1313.20        2979.75           1621          39.00       134.70
 1313.23        2980.00           1624          32.00       104.19
 1313.26        2980.25           1628          29.00        91.11
 1313.29        2980.50           1631          28.00        86.75
 1313.32        2980.75           1634          34.00       112.90
 1313.35        2981.00           1638          38.00       130.34
 1313.39        2981.25           1641          36.00       121.62
 1313.42        2981.50           1644          35.00       117.26
 1313.45        2981.75           1648          27.00        82.39
 1313.48        2982.00           1651          32.00       104.19
 1313.51        2982.25           1654          29.00        91.11
 1313.54        2982.50           1658          37.00       125.98
 1313.58        2982.75           1661          36.00       121.62
 1313.61        2983.00           1664          33.00       108.54
 1313.64        2983.25           1668          38.00       130.34
 1313.67        2983.50           1671          30.00        95.47
 1313.70        2983.75           1674          30.00        95.47
 1313.73        2984.00           1678          31.00        99.83
HS scan finished at 21:53:58
end
