************************************************************
  HS Scan of (1) Internal mercury lamp
************************************************************
Integration time is 0.2294 seconds per sample
dh260519Izana 28.3081 16.4992 2.857833pr770
************************************************************
Dead Time -------------------------  2.7E-08 
Number of Cycles Used -------------  4 
Starting Wavelength (Angstroms) ---  2950 
Final Wavelength (Angstoms) -------  2984 
Wavelength Increment (Angstroms) --  .25 
Filter Wheel #1 Position ---------- (1) Ground quartz diffuser (ND=2.32)
Filter Wheel #2 Position ---------- (1) Neutral Density 0.494



************************************************************
HS scan start time = 02:02:20
Dark Count =  6.8 


Time (GMT)  Wavelength (Ang)  Step Number  Raw Counts  Counts/Second

  122.66        2950.00           1224          35.00       122.93
  122.73        2950.25           1227          36.00       127.29
  122.76        2950.50           1230          31.00       105.49
  122.79        2950.75           1234          27.00        88.06
  122.82        2951.00           1237          33.00       114.21
  122.85        2951.25           1240          36.00       127.29
  122.88        2951.50           1244          35.00       122.93
  122.92        2951.75           1247          30.00       101.13
  122.95        2952.00           1250          34.00       118.57
  122.98        2952.25           1254          29.00        96.77
  123.01        2952.50           1257          31.00       105.49
  123.04        2952.75           1260          27.00        88.06
  123.07        2953.00           1264          33.00       114.21
  123.10        2953.25           1267          29.00        96.77
  123.14        2953.50           1270          31.00       105.49
  123.17        2953.75           1274          28.00        92.42
  123.20        2954.00           1277          34.00       118.57
  123.23        2954.25           1280          35.00       122.93
  123.26        2954.50           1284          37.00       131.65
  123.29        2954.75           1287          33.00       114.21
  123.32        2955.00           1290          33.00       114.21
  123.36        2955.25           1294          35.00       122.93
  123.39        2955.50           1297          33.00       114.21
  123.42        2955.75           1300          28.00        92.42
  123.45        2956.00           1304          33.00       114.21
  123.48        2956.25           1307          44.00       162.16
  123.51        2956.50           1310          35.00       122.93
  123.55        2956.75           1314          41.00       149.09
  123.58        2957.00           1317          38.00       136.01
  123.61        2957.25           1320          35.00       122.93
  123.64        2957.50           1324          32.00       109.85
  123.67        2957.75           1327          37.00       131.65
  123.70        2958.00           1330          47.00       175.24
  123.73        2958.25           1334          48.00       179.60
  123.77        2958.50           1337          44.00       162.16
  123.80        2958.75           1340          49.00       183.96
  123.83        2959.00           1344          43.00       157.80
  123.86        2959.25           1347          50.00       188.32
  123.89        2959.50           1350          64.00       249.35
  123.92        2959.75           1354          80.00       319.10
  123.95        2960.00           1357         125.00       515.26
  123.99        2960.25           1360         168.00       702.72
  124.02        2960.50           1364         204.00       859.65
  124.05        2960.75           1367         241.00      1020.95
  124.08        2961.00           1370         287.00      1221.49
  124.11        2961.25           1373         351.00      1500.50
  124.14        2961.50           1377         662.00      2856.37
  124.18        2961.75           1380        1277.00      5537.88
  124.21        2962.00           1383        2465.00     10718.88
  124.24        2962.25           1387        4860.00     21168.16
  124.27        2962.50           1390        6949.00     30287.18
  124.30        2962.75           1393        9089.00     39633.50
  124.33        2963.00           1397       11967.00     52210.44
  124.36        2963.25           1400       13663.00     59626.00
  124.40        2963.50           1404       16091.00     70247.33
  124.43        2963.75           1407       17964.00     78444.96
  124.46        2964.00           1410       20010.00     87403.93
  124.49        2964.25           1414       22707.00     99220.12
  124.52        2964.50           1417       24858.00    108649.60
  124.56        2964.75           1420       26915.00    117671.40
  124.59        2965.00           1424       29270.00    128005.70
  124.62        2965.25           1427       30653.00    134077.40
  124.65        2965.50           1430       32709.00    143107.20
  124.68        2965.75           1434       35327.00    154611.90
  124.71        2966.00           1437       37540.00    164342.30
  124.75        2966.25           1440       38897.00    170311.40
  124.78        2966.50           1444       41032.00    179706.80
  124.81        2966.75           1447       41777.00    182986.40
  124.84        2967.00           1450       42509.00    186209.40
  124.87        2967.25           1454       42572.00    186486.80
  124.90        2967.50           1457       42560.00    186433.90
  124.94        2967.75           1460       42442.00    185914.30
  124.97        2968.00           1464       41321.00    180979.00
  125.00        2968.25           1467       39993.00    175133.90
  125.03        2968.50           1470       38314.00    167746.70
  125.06        2968.75           1474       36033.00    157715.50
  125.10        2969.00           1477       34124.00    149324.50
  125.13        2969.25           1480       32252.00    141099.70
  125.16        2969.50           1484       29814.00    130393.70
  125.19        2969.75           1487       27932.00    122133.60
  125.22        2970.00           1490       25679.00    112249.90
  125.25        2970.25           1494       22974.00    100390.30
  125.29        2970.50           1497       20908.00     91337.44
  125.32        2970.75           1500       18965.00     82827.57
  125.35        2971.00           1504       16348.00     71371.94
  125.38        2971.25           1507       14494.00     63260.53
  125.41        2971.50           1510       12434.00     54252.04
  125.44        2971.75           1514        9608.00     41900.91
  125.48        2972.00           1517        7711.00     33614.63
  125.51        2972.25           1520        5921.00     25799.13
  125.54        2972.50           1524        3636.00     15827.16
  125.57        2972.75           1527        2383.00     10361.22
  125.60        2973.00           1530        1089.00      4718.13
  125.64        2973.25           1534         473.00      2032.37
  125.67        2973.50           1537         291.00      1238.93
  125.70        2973.75           1540         211.00       890.17
  125.73        2974.00           1544         162.00       676.56
  125.76        2974.25           1547         114.00       467.31
  125.79        2974.50           1550          84.00       336.53
  125.82        2974.75           1554          68.00       266.78
  125.86        2975.00           1557          49.00       183.96
  125.89        2975.25           1561          51.00       192.68
  125.92        2975.50           1564          47.00       175.24
  125.95        2975.75           1567          46.00       170.88
  125.98        2976.00           1571          41.00       149.09
  126.01        2976.25           1574          49.00       183.96
  126.05        2976.50           1577          33.00       114.21
  126.08        2976.75           1581          35.00       122.93
  126.11        2977.00           1584          41.00       149.09
  126.14        2977.25           1587          37.00       131.65
  126.17        2977.50           1591          41.00       149.09
  126.20        2977.75           1594          42.00       153.44
  126.24        2978.00           1597          34.00       118.57
  126.27        2978.25           1601          32.00       109.85
  126.30        2978.50           1604          33.00       114.21
  126.33        2978.75           1607          30.00       101.13
  126.36        2979.00           1611          33.00       114.21
  126.39        2979.25           1614          37.00       131.65
  126.43        2979.50           1617          36.00       127.29
  126.46        2979.75           1621          36.00       127.29
  126.49        2980.00           1624          32.00       109.85
  126.52        2980.25           1628          35.00       122.93
  126.55        2980.50           1631          33.00       114.21
  126.58        2980.75           1634          35.00       122.93
  126.61        2981.00           1638          33.00       114.21
  126.65        2981.25           1641          30.00       101.13
  126.68        2981.50           1644          27.00        88.06
  126.71        2981.75           1648          36.00       127.29
  126.74        2982.00           1651          35.00       122.93
  126.77        2982.25           1654          31.00       105.49
  126.80        2982.50           1658          27.00        88.06
  126.83        2982.75           1661          38.00       136.01
  126.86        2983.00           1664          35.00       122.93
  126.90        2983.25           1668          27.00        88.06
  126.93        2983.50           1671          29.00        96.77
  126.96        2983.75           1674          31.00       105.49
  126.99        2984.00           1678          31.00       105.49
HS scan finished at 02:07:13
end
************************************************************
  HS Scan of (1) Internal mercury lamp
************************************************************
Integration time is 0.2294 seconds per sample
dh260519Izana 28.3081 16.4992 2.857833pr770
************************************************************
Dead Time -------------------------  2.7E-08 
Number of Cycles Used -------------  4 
Starting Wavelength (Angstroms) ---  2950 
Final Wavelength (Angstoms) -------  2984 
Wavelength Increment (Angstroms) --  .25 
Filter Wheel #1 Position ---------- (1) Ground quartz diffuser (ND=2.32)
Filter Wheel #2 Position ---------- (1) Neutral Density 0.494



************************************************************
HS scan start time = 04:39:46
Dark Count =  7.8 


Time (GMT)  Wavelength (Ang)  Step Number  Raw Counts  Counts/Second

  280.09        2950.00           1224          32.00       105.49
  280.16        2950.25           1227          28.00        88.06
  280.19        2950.50           1230          24.00        70.62
  280.22        2950.75           1234          31.00       101.13
  280.25        2951.00           1237          28.00        88.06
  280.28        2951.25           1240          31.00       101.13
  280.32        2951.50           1244          31.00       101.13
  280.35        2951.75           1247          31.00       101.13
  280.38        2952.00           1250          39.00       136.01
  280.41        2952.25           1254          30.00        96.77
  280.44        2952.50           1257          32.00       105.49
  280.47        2952.75           1260          42.00       149.09
  280.51        2953.00           1264          33.00       109.85
  280.54        2953.25           1267          34.00       114.21
  280.57        2953.50           1270          32.00       105.49
  280.60        2953.75           1274          31.00       101.13
  280.63        2954.00           1277          31.00       101.13
  280.66        2954.25           1280          35.00       118.57
  280.69        2954.50           1284          32.00       105.49
  280.73        2954.75           1287          32.00       105.49
  280.76        2955.00           1290          33.00       109.85
  280.79        2955.25           1294          32.00       105.49
  280.82        2955.50           1297          31.00       101.13
  280.85        2955.75           1300          33.00       109.85
  280.88        2956.00           1304          43.00       153.44
  280.92        2956.25           1307          35.00       118.57
  280.95        2956.50           1310          35.00       118.57
  280.98        2956.75           1314          38.00       131.65
  281.01        2957.00           1317          41.00       144.73
  281.04        2957.25           1320          31.00       101.13
  281.07        2957.50           1324          46.00       166.52
  281.10        2957.75           1327          41.00       144.73
  281.14        2958.00           1330          40.00       140.37
  281.17        2958.25           1334          43.00       153.44
  281.20        2958.50           1337          43.00       153.44
  281.23        2958.75           1340          47.00       170.88
  281.26        2959.00           1344          54.00       201.40
  281.29        2959.25           1347          54.00       201.40
  281.33        2959.50           1350          79.00       310.38
  281.36        2959.75           1354          96.00       384.49
  281.39        2960.00           1357         136.00       558.86
  281.42        2960.25           1360         167.00       694.00
  281.45        2960.50           1364         204.00       855.29
  281.48        2960.75           1367         255.00      1077.63
  281.52        2961.00           1370         292.00      1238.93
  281.55        2961.25           1373         339.00      1443.82
  281.58        2961.50           1377         753.00      3248.76
  281.61        2961.75           1380        1401.00      6074.23
  281.64        2962.00           1383        2661.00     11569.44
  281.67        2962.25           1387        5208.00     22682.59
  281.71        2962.50           1390        7197.00     31365.70
  281.74        2962.75           1393        9176.00     40009.20
  281.77        2963.00           1397       11941.00     52092.40
  281.80        2963.25           1400       13814.00     60282.00
  281.83        2963.50           1404       16601.00     72474.72
  281.86        2963.75           1407       18354.00     80147.98
  281.90        2964.00           1410       20199.00     88227.36
  281.93        2964.25           1414       22298.00     97423.32
  281.96        2964.50           1417       24013.00    104940.30
  281.99        2964.75           1420       25826.00    112890.20
  282.02        2965.00           1424       27857.00    121800.10
  282.05        2965.25           1427       29239.00    127865.30
  282.08        2965.50           1430       30885.00    135091.70
  282.12        2965.75           1434       33581.00    146934.00
  282.15        2966.00           1437       35389.00    154880.00
  282.18        2966.25           1440       37547.00    164368.60
  282.21        2966.50           1444       39317.00    172154.90
  282.24        2966.75           1447       40146.00    175802.90
  282.28        2967.00           1450       40482.00    177281.60
  282.31        2967.25           1454       40542.00    177545.70
  282.34        2967.50           1457       40797.00    178668.00
  282.37        2967.75           1460       40443.00    177110.00
  282.40        2968.00           1464       39152.00    171428.90
  282.44        2968.25           1467       37757.00    165292.30
  282.47        2968.50           1470       36179.00    158353.00
  282.50        2968.75           1474       34144.00    149408.00
  282.53        2969.00           1477       32489.00    142136.40
  282.56        2969.25           1480       30816.00    134788.70
  282.59        2969.50           1484       28092.00    122831.30
  282.63        2969.75           1487       26022.00    113749.90
  282.66        2970.00           1490       24028.00    105006.10
  282.69        2970.25           1494       21559.00     94185.15
  282.72        2970.50           1497       19597.00     85590.77
  282.75        2970.75           1500       17767.00     77578.19
  282.78        2971.00           1504       15285.00     66716.41
  282.82        2971.25           1507       13648.00     59556.03
  282.85        2971.50           1510       11859.00     51733.94
  282.88        2971.75           1514        9385.00     40922.27
  282.91        2972.00           1517        7434.00     32400.61
  282.94        2972.25           1520        5536.00     24114.21
  282.97        2972.50           1524        3197.00     13907.58
  283.00        2972.75           1527        2111.00      9170.54
  283.04        2973.00           1530        1061.00      4591.68
  283.07        2973.25           1534         466.00      1997.49
  283.10        2973.50           1537         282.00      1195.33
  283.13        2973.75           1540         197.00       824.78
  283.16        2974.00           1544         140.00       576.29
  283.19        2974.25           1547         103.00       415.00
  283.23        2974.50           1550          81.00       319.10
  283.26        2974.75           1554          62.00       236.27
  283.29        2975.00           1557          56.00       210.11
  283.32        2975.25           1561          51.00       188.32
  283.35        2975.50           1564          51.00       188.32
  283.38        2975.75           1567          40.00       140.37
  283.42        2976.00           1571          43.00       153.44
  283.45        2976.25           1574          45.00       162.16
  283.48        2976.50           1577          46.00       166.52
  283.51        2976.75           1581          35.00       118.57
  283.54        2977.00           1584          41.00       144.73
  283.57        2977.25           1587          39.00       136.01
  283.60        2977.50           1591          39.00       136.01
  283.64        2977.75           1594          35.00       118.57
  283.67        2978.00           1597          41.00       144.73
  283.70        2978.25           1601          37.00       127.29
  283.73        2978.50           1604          31.00       101.13
  283.76        2978.75           1607          32.00       105.49
  283.79        2979.00           1611          29.00        92.42
  283.83        2979.25           1614          37.00       127.29
  283.86        2979.50           1617          35.00       118.57
  283.89        2979.75           1621          34.00       114.21
  283.92        2980.00           1624          28.00        88.06
  283.95        2980.25           1628          32.00       105.49
  283.98        2980.50           1631          31.00       101.13
  284.02        2980.75           1634          34.00       114.21
  284.05        2981.00           1638          33.00       109.85
  284.08        2981.25           1641          26.00        79.34
  284.11        2981.50           1644          30.00        96.77
  284.14        2981.75           1648          29.00        92.42
  284.17        2982.00           1651          39.00       136.01
  284.20        2982.25           1654          32.00       105.49
  284.24        2982.50           1658          30.00        96.77
  284.27        2982.75           1661          29.00        92.42
  284.30        2983.00           1664          34.00       114.21
  284.33        2983.25           1668          36.00       122.93
  284.36        2983.50           1671          31.00       101.13
  284.39        2983.75           1674          31.00       101.13
  284.42        2984.00           1678          31.00       101.13
HS scan finished at 04:44:39
end
************************************************************
  HS Scan of (1) Internal mercury lamp
************************************************************
Integration time is 0.2294 seconds per sample
dh260519Izana 28.3081 16.4992 2.857833pr770
************************************************************
Dead Time -------------------------  2.7E-08 
Number of Cycles Used -------------  4 
Starting Wavelength (Angstroms) ---  2950 
Final Wavelength (Angstoms) -------  2984 
Wavelength Increment (Angstroms) --  .25 
Filter Wheel #1 Position ---------- (1) Ground quartz diffuser (ND=2.32)
Filter Wheel #2 Position ---------- (1) Neutral Density 0.494



************************************************************
HS scan start time = 21:48:04
Dark Count =  6 


Time (GMT)  Wavelength (Ang)  Step Number  Raw Counts  Counts/Second

 1308.39        2950.00           1224          39.00       143.85
 1308.46        2950.25           1227          27.00        91.54
 1308.49        2950.50           1230          28.00        95.90
 1308.52        2950.75           1234          42.00       156.93
 1308.55        2951.00           1237          29.00       100.26
 1308.59        2951.25           1240          30.00       104.62
 1308.62        2951.50           1244          34.00       122.06
 1308.65        2951.75           1247          37.00       135.14
 1308.68        2952.00           1250          39.00       143.85
 1308.71        2952.25           1254          33.00       117.70
 1308.74        2952.50           1257          31.00       108.98
 1308.78        2952.75           1260          35.00       126.42
 1308.81        2953.00           1264          34.00       122.06
 1308.84        2953.25           1267          30.00       104.62
 1308.87        2953.50           1270          33.00       117.70
 1308.91        2953.75           1274          28.00        95.90
 1308.94        2954.00           1277          33.00       117.70
 1308.97        2954.25           1280          33.00       117.70
 1309.00        2954.50           1284          36.00       130.78
 1309.03        2954.75           1287          41.00       152.57
 1309.06        2955.00           1290          36.00       130.78
 1309.10        2955.25           1294          27.00        91.54
 1309.13        2955.50           1297          32.00       113.34
 1309.16        2955.75           1300          28.00        95.90
 1309.19        2956.00           1304          34.00       122.06
 1309.22        2956.25           1307          29.00       100.26
 1309.25        2956.50           1310          35.00       126.42
 1309.29        2956.75           1314          35.00       126.42
 1309.32        2957.00           1317          40.00       148.21
 1309.35        2957.25           1320          30.00       104.62
 1309.38        2957.50           1324          36.00       130.78
 1309.41        2957.75           1327          46.00       174.37
 1309.44        2958.00           1330          39.00       143.85
 1309.47        2958.25           1334          38.00       139.49
 1309.50        2958.50           1337          37.00       135.14
 1309.54        2958.75           1340          43.00       161.29
 1309.57        2959.00           1344          50.00       191.81
 1309.60        2959.25           1347          55.00       213.60
 1309.63        2959.50           1350          56.00       217.96
 1309.66        2959.75           1354          87.00       353.10
 1309.69        2960.00           1357         116.00       479.52
 1309.73        2960.25           1360         147.00       614.66
 1309.76        2960.50           1364         192.00       810.83
 1309.79        2960.75           1367         235.00       998.28
 1309.82        2961.00           1370         284.00      1211.90
 1309.85        2961.25           1373         351.00      1503.98
 1309.88        2961.50           1377        1008.00      4368.43
 1309.92        2961.75           1380        1920.00      8345.39
 1309.95        2962.00           1383        3233.00     14072.48
 1309.98        2962.25           1387        5275.00     22982.87
 1310.01        2962.50           1390        6832.00     29779.82
 1310.04        2962.75           1393        8688.00     37885.29
 1310.07        2963.00           1397       11261.00     49127.90
 1310.11        2963.25           1400       13435.00     58632.42
 1310.14        2963.50           1404       16138.00     70456.50
 1310.17        2963.75           1407       17902.00     78177.05
 1310.20        2964.00           1410       19660.00     85874.56
 1310.23        2964.25           1414       21757.00     95060.59
 1310.26        2964.50           1417       23587.00    103080.80
 1310.30        2964.75           1420       25531.00    111604.30
 1310.33        2965.00           1424       28033.00    122580.30
 1310.36        2965.25           1427       29819.00    130419.20
 1310.39        2965.50           1430       31711.00    138727.00
 1310.42        2965.75           1434       34160.00    149486.20
 1310.45        2966.00           1437       35716.00    156325.40
 1310.49        2966.25           1440       37601.00    164614.10
 1310.52        2966.50           1444       39379.00    172435.60
 1310.55        2966.75           1447       40034.00    175317.90
 1310.58        2967.00           1450       40358.00    176743.80
 1310.61        2967.25           1454       40443.00    177117.90
 1310.65        2967.50           1457       40439.00    177100.30
 1310.68        2967.75           1460       40221.00    176140.90
 1310.71        2968.00           1464       38963.00    170605.40
 1310.74        2968.25           1467       37716.00    165119.90
 1310.77        2968.50           1470       36429.00    159460.10
 1310.80        2968.75           1474       33788.00    147851.50
 1310.83        2969.00           1477       31915.00    139623.00
 1310.87        2969.25           1480       29927.00    130893.40
 1310.90        2969.50           1484       27425.00    119912.50
 1310.93        2969.75           1487       25723.00    112446.40
 1310.96        2970.00           1490       23879.00    104360.80
 1310.99        2970.25           1494       21443.00     93684.81
 1311.02        2970.50           1497       19624.00     85716.91
 1311.06        2970.75           1500       17483.00     76342.91
 1311.09        2971.00           1504       14936.00     65197.50
 1311.12        2971.25           1507       13100.00     57167.51
 1311.15        2971.50           1510       11241.00     49040.49
 1311.18        2971.75           1514        8881.00     38728.36
 1311.22        2972.00           1517        7094.00     30923.81
 1311.25        2972.25           1520        5222.00     22751.55
 1311.28        2972.50           1524        2733.00     11891.35
 1311.31        2972.75           1527        1608.00      6984.75
 1311.34        2973.00           1530         773.00      3343.81
 1311.37        2973.25           1534         353.00      1512.70
 1311.41        2973.50           1537         263.00      1120.35
 1311.44        2973.75           1540         201.00       850.06
 1311.47        2974.00           1544         133.00       553.63
 1311.50        2974.25           1547         112.00       462.08
 1311.53        2974.50           1550          91.00       370.54
 1311.56        2974.75           1554          60.00       235.40
 1311.60        2975.00           1557          45.00       170.01
 1311.63        2975.25           1561          46.00       174.37
 1311.66        2975.50           1564          45.00       170.01
 1311.69        2975.75           1567          46.00       174.37
 1311.72        2976.00           1571          48.00       183.09
 1311.75        2976.25           1574          37.00       135.14
 1311.78        2976.50           1577          41.00       152.57
 1311.82        2976.75           1581          49.00       187.45
 1311.85        2977.00           1584          34.00       122.06
 1311.88        2977.25           1587          40.00       148.21
 1311.91        2977.50           1591          34.00       122.06
 1311.94        2977.75           1594          28.00        95.90
 1311.97        2978.00           1597          41.00       152.57
 1312.00        2978.25           1601          34.00       122.06
 1312.04        2978.50           1604          30.00       104.62
 1312.07        2978.75           1607          36.00       130.78
 1312.10        2979.00           1611          47.00       178.73
 1312.13        2979.25           1614          36.00       130.78
 1312.16        2979.50           1617          28.00        95.90
 1312.19        2979.75           1621          36.00       130.78
 1312.22        2980.00           1624          30.00       104.62
 1312.25        2980.25           1628          42.00       156.93
 1312.29        2980.50           1631          27.00        91.54
 1312.32        2980.75           1634          38.00       139.49
 1312.35        2981.00           1638          31.00       108.98
 1312.38        2981.25           1641          29.00       100.26
 1312.41        2981.50           1644          26.00        87.18
 1312.44        2981.75           1648          34.00       122.06
 1312.48        2982.00           1651          31.00       108.98
 1312.51        2982.25           1654          30.00       104.62
 1312.54        2982.50           1658          27.00        91.54
 1312.57        2982.75           1661          33.00       117.70
 1312.60        2983.00           1664          31.00       108.98
 1312.63        2983.25           1668          38.00       139.49
 1312.66        2983.50           1671          36.00       130.78
 1312.70        2983.75           1674          31.00       108.98
 1312.73        2984.00           1678          37.00       135.14
HS scan finished at 21:52:57
end
