************************************************************
  HS Scan of (1) Internal mercury lamp
************************************************************
Integration time is 0.2294 seconds per sample
dh060619Izana 28.3081 16.4992 2.911481pr770
************************************************************
Dead Time -------------------------  2.7E-08 
Number of Cycles Used -------------  4 
Starting Wavelength (Angstroms) ---  2950 
Final Wavelength (Angstoms) -------  2984 
Wavelength Increment (Angstroms) --  .25 
Filter Wheel #1 Position ---------- (1) Ground quartz diffuser (ND=2.32)
Filter Wheel #2 Position ---------- (1) Neutral Density 0.494



************************************************************
HS scan start time = 04:37:21
Dark Count =  6.5 


Time (GMT)  Wavelength (Ang)  Step Number  Raw Counts  Counts/Second

  277.67        2950.00           1224          32.00       111.16
  277.74        2950.25           1227          31.00       106.80
  277.77        2950.50           1230          36.00       128.60
  277.80        2950.75           1234          31.00       106.80
  277.83        2951.00           1237          28.00        93.72
  277.86        2951.25           1240          38.00       137.32
  277.89        2951.50           1244          34.00       119.88
  277.93        2951.75           1247          39.00       141.67
  277.96        2952.00           1250          34.00       119.88
  277.99        2952.25           1254          31.00       106.80
  278.02        2952.50           1257          28.00        93.72
  278.05        2952.75           1260          31.00       106.80
  278.09        2953.00           1264          31.00       106.80
  278.12        2953.25           1267          31.00       106.80
  278.15        2953.50           1270          34.00       119.88
  278.18        2953.75           1274          35.00       124.24
  278.21        2954.00           1277          29.00        98.08
  278.24        2954.25           1280          29.00        98.08
  278.27        2954.50           1284          35.00       124.24
  278.31        2954.75           1287          31.00       106.80
  278.34        2955.00           1290          27.00        89.36
  278.37        2955.25           1294          34.00       119.88
  278.40        2955.50           1297          31.00       106.80
  278.43        2955.75           1300          33.00       115.52
  278.46        2956.00           1304          40.00       146.03
  278.50        2956.25           1307          36.00       128.60
  278.53        2956.50           1310          34.00       119.88
  278.56        2956.75           1314          31.00       106.80
  278.59        2957.00           1317          36.00       128.60
  278.62        2957.25           1320          34.00       119.88
  278.65        2957.50           1324          41.00       150.39
  278.69        2957.75           1327          38.00       137.32
  278.72        2958.00           1330          47.00       176.55
  278.75        2958.25           1334          46.00       172.19
  278.78        2958.50           1337          44.00       163.47
  278.81        2958.75           1340          54.00       207.06
  278.85        2959.00           1344          42.00       154.75
  278.88        2959.25           1347          58.00       224.50
  278.91        2959.50           1350          64.00       250.66
  278.94        2959.75           1354          92.00       372.72
  278.97        2960.00           1357         136.00       564.52
  279.00        2960.25           1360         172.00       721.46
  279.04        2960.50           1364         210.00       887.12
  279.07        2960.75           1367         250.00      1061.50
  279.10        2961.00           1370         295.00      1257.67
  279.13        2961.25           1373         352.00      1506.16
  279.16        2961.50           1377         707.00      3053.87
  279.19        2961.75           1380        1311.00      5687.45
  279.23        2962.00           1383        2441.00     10615.51
  279.26        2962.25           1387        5007.00     21811.01
  279.29        2962.50           1390        7129.00     31074.45
  279.32        2962.75           1393        9066.00     39534.33
  279.35        2963.00           1397       11815.00     51547.28
  279.39        2963.25           1400       13949.00     60878.10
  279.42        2963.50           1404       16507.00     72069.05
  279.45        2963.75           1407       18431.00     80490.78
  279.48        2964.00           1410       20316.00     88745.52
  279.51        2964.25           1414       22509.00     98353.69
  279.55        2964.50           1417       24252.00    105993.80
  279.58        2964.75           1420       25754.00    112580.10
  279.61        2965.00           1424       28124.00    122977.40
  279.64        2965.25           1427       29649.00    129670.70
  279.67        2965.50           1430       31344.00    137113.10
  279.71        2965.75           1434       33904.00    148359.00
  279.74        2966.00           1437       35867.00    156987.00
  279.77        2966.25           1440       38152.00    167035.40
  279.80        2966.50           1444       39982.00    175086.90
  279.83        2966.75           1447       41038.00    179734.50
  279.87        2967.00           1450       41425.00    181438.10
  279.90        2967.25           1454       41458.00    181583.40
  279.93        2967.50           1457       41426.00    181442.50
  279.96        2967.75           1460       41140.00    180183.60
  279.99        2968.00           1464       39943.00    174915.30
  280.02        2968.25           1467       38663.00    169283.30
  280.06        2968.50           1470       37278.00    163191.30
  280.09        2968.75           1474       35155.00    153857.10
  280.12        2969.00           1477       33657.00    147273.60
  280.15        2969.25           1480       31697.00    138663.40
  280.18        2969.50           1484       28814.00    126005.60
  280.22        2969.75           1487       27007.00    118076.40
  280.25        2970.00           1490       24830.00    108528.10
  280.28        2970.25           1494       22384.00     97805.90
  280.31        2970.50           1497       20317.00     88749.90
  280.34        2970.75           1500       18285.00     79851.57
  280.38        2971.00           1504       15801.00     68979.71
  280.41        2971.25           1507       14048.00     61311.09
  280.44        2971.50           1510       12417.00     54179.03
  280.47        2971.75           1514        9793.00     42710.52
  280.50        2972.00           1517        7725.00     33677.08
  280.54        2972.25           1520        5891.00     25669.49
  280.57        2972.50           1524        3542.00     15418.36
  280.60        2972.75           1527        2283.00      9926.37
  280.63        2973.00           1530        1113.00      4824.08
  280.66        2973.25           1534         496.00      2133.95
  280.70        2973.50           1537         297.00      1266.39
  280.73        2973.75           1540         220.00       930.71
  280.76        2974.00           1544         148.00       616.84
  280.79        2974.25           1547         119.00       490.42
  280.82        2974.50           1550          80.00       320.40
  280.85        2974.75           1554          61.00       237.58
  280.89        2975.00           1557          55.00       211.42
  280.92        2975.25           1561          50.00       189.63
  280.95        2975.50           1564          49.00       185.27
  280.98        2975.75           1567          43.00       159.11
  281.01        2976.00           1571          49.00       185.27
  281.04        2976.25           1574          49.00       185.27
  281.08        2976.50           1577          42.00       154.75
  281.11        2976.75           1581          37.00       132.96
  281.14        2977.00           1584          41.00       150.39
  281.17        2977.25           1587          39.00       141.67
  281.20        2977.50           1591          41.00       150.39
  281.23        2977.75           1594          37.00       132.96
  281.27        2978.00           1597          38.00       137.32
  281.30        2978.25           1601          31.00       106.80
  281.33        2978.50           1604          41.00       150.39
  281.36        2978.75           1607          36.00       128.60
  281.39        2979.00           1611          37.00       132.96
  281.42        2979.25           1614          34.00       119.88
  281.45        2979.50           1617          29.00        98.08
  281.49        2979.75           1621          41.00       150.39
  281.52        2980.00           1624          37.00       132.96
  281.55        2980.25           1628          29.00        98.08
  281.58        2980.50           1631          28.00        93.72
  281.61        2980.75           1634          32.00       111.16
  281.64        2981.00           1638          33.00       115.52
  281.67        2981.25           1641          27.00        89.36
  281.71        2981.50           1644          31.00       106.80
  281.74        2981.75           1648          31.00       106.80
  281.77        2982.00           1651          30.00       102.44
  281.80        2982.25           1654          34.00       119.88
  281.83        2982.50           1658          31.00       106.80
  281.87        2982.75           1661          31.00       106.80
  281.90        2983.00           1664          40.00       146.03
  281.93        2983.25           1668          32.00       111.16
  281.96        2983.50           1671          36.00       128.60
  281.99        2983.75           1674          30.00       102.44
  282.03        2984.00           1678          37.00       132.96
HS scan finished at 04:42:15
end
************************************************************
  HS Scan of (1) Internal mercury lamp
************************************************************
Integration time is 0.2294 seconds per sample
dh060619Izana 28.3081 16.4992 2.857833pr770
************************************************************
Dead Time -------------------------  2.7E-08 
Number of Cycles Used -------------  4 
Starting Wavelength (Angstroms) ---  2950 
Final Wavelength (Angstoms) -------  2984 
Wavelength Increment (Angstroms) --  .25 
Filter Wheel #1 Position ---------- (1) Ground quartz diffuser (ND=2.32)
Filter Wheel #2 Position ---------- (1) Neutral Density 0.494



************************************************************
HS scan start time = 21:44:28
Dark Count =  6.2 


Time (GMT)  Wavelength (Ang)  Step Number  Raw Counts  Counts/Second

 1304.79        2950.00           1224          31.00       108.11
 1304.86        2950.25           1227          31.00       108.11
 1304.89        2950.50           1230          33.00       116.83
 1304.92        2950.75           1234          26.00        86.31
 1304.96        2951.00           1237          33.00       116.83
 1304.99        2951.25           1240          38.00       138.62
 1305.02        2951.50           1244          41.00       151.70
 1305.05        2951.75           1247          30.00       103.75
 1305.08        2952.00           1250          37.00       134.26
 1305.11        2952.25           1254          34.00       121.19
 1305.15        2952.50           1257          30.00       103.75
 1305.18        2952.75           1260          35.00       125.55
 1305.21        2953.00           1264          32.00       112.47
 1305.24        2953.25           1267          31.00       108.11
 1305.27        2953.50           1270          35.00       125.55
 1305.30        2953.75           1274          32.00       112.47
 1305.33        2954.00           1277          37.00       134.26
 1305.37        2954.25           1280          34.00       121.19
 1305.40        2954.50           1284          36.00       129.90
 1305.43        2954.75           1287          31.00       108.11
 1305.46        2955.00           1290          29.00        99.39
 1305.49        2955.25           1294          31.00       108.11
 1305.52        2955.50           1297          28.00        95.03
 1305.55        2955.75           1300          37.00       134.26
 1305.59        2956.00           1304          38.00       138.62
 1305.62        2956.25           1307          35.00       125.55
 1305.65        2956.50           1310          34.00       121.19
 1305.68        2956.75           1314          30.00       103.75
 1305.71        2957.00           1317          36.00       129.90
 1305.74        2957.25           1320          40.00       147.34
 1305.78        2957.50           1324          40.00       147.34
 1305.81        2957.75           1327          39.00       142.98
 1305.84        2958.00           1330          33.00       116.83
 1305.87        2958.25           1334          56.00       217.09
 1305.90        2958.50           1337          46.00       173.50
 1305.93        2958.75           1340          50.00       190.93
 1305.97        2959.00           1344          50.00       190.93
 1306.00        2959.25           1347          54.00       208.37
 1306.03        2959.50           1350          61.00       238.89
 1306.06        2959.75           1354          88.00       356.59
 1306.09        2960.00           1357         119.00       491.72
 1306.12        2960.25           1360         149.00       622.50
 1306.15        2960.50           1364         188.00       792.52
 1306.19        2960.75           1367         223.00       945.10
 1306.22        2961.00           1370         262.00      1115.12
 1306.25        2961.25           1373         320.00      1367.97
 1306.28        2961.50           1377         817.00      3534.78
 1306.31        2961.75           1380        1561.00      6778.92
 1306.34        2962.00           1383        2784.00     12112.94
 1306.38        2962.25           1387        4723.00     20572.89
 1306.41        2962.50           1390        6198.00     27010.97
 1306.44        2962.75           1393        8172.00     35630.60
 1306.47        2963.00           1397       10809.00     47151.53
 1306.50        2963.25           1400       12832.00     55994.80
 1306.53        2963.50           1404       15541.00     67843.43
 1306.57        2963.75           1407       17308.00     75576.04
 1306.60        2964.00           1410       18920.00     82633.16
 1306.63        2964.25           1414       21116.00     92251.30
 1306.66        2964.50           1417       22682.00     99113.18
 1306.69        2964.75           1420       24817.00    108472.40
 1306.72        2965.00           1424       27389.00    119753.60
 1306.75        2965.25           1427       29069.00    127126.10
 1306.79        2965.50           1430       30852.00    134953.80
 1306.82        2965.75           1434       33323.00    145807.40
 1306.85        2966.00           1437       35028.00    153300.20
 1306.88        2966.25           1440       36712.00    160703.60
 1306.91        2966.50           1444       38659.00    169267.00
 1306.95        2966.75           1447       39458.00    172782.40
 1306.98        2967.00           1450       39885.00    174661.30
 1307.01        2967.25           1454       39914.00    174788.90
 1307.04        2967.50           1457       40021.00    175259.80
 1307.07        2967.75           1460       39751.00    174071.70
 1307.10        2968.00           1464       39128.00    171330.40
 1307.14        2968.25           1467       37871.00    165800.80
 1307.17        2968.50           1470       36361.00    159160.30
 1307.20        2968.75           1474       34008.00    148817.40
 1307.23        2969.00           1477       31973.00    139876.90
 1307.26        2969.25           1480       30070.00    131520.30
 1307.29        2969.50           1484       27747.00    121324.40
 1307.33        2969.75           1487       25909.00    113261.30
 1307.36        2970.00           1490       24234.00    105916.30
 1307.39        2970.25           1494       21692.00     94774.91
 1307.42        2970.50           1497       19905.00     86946.69
 1307.45        2970.75           1500       17796.00     77712.16
 1307.48        2971.00           1504       15259.00     66609.66
 1307.51        2971.25           1507       13381.00     58395.40
 1307.55        2971.50           1510       11592.00     50573.81
 1307.58        2971.75           1514        9288.00     40505.48
 1307.61        2972.00           1517        7498.00     32687.08
 1307.64        2972.25           1520        5684.00     24767.21
 1307.67        2972.50           1524        3128.00     13613.55
 1307.70        2972.75           1527        1859.00      8078.48
 1307.74        2973.00           1530         912.00      3948.98
 1307.77        2973.25           1534         395.00      1694.93
 1307.80        2973.50           1537         274.00      1167.43
 1307.83        2973.75           1540         228.00       966.90
 1307.86        2974.00           1544         149.00       622.50
 1307.89        2974.25           1547         122.00       504.80
 1307.93        2974.50           1550          89.00       360.95
 1307.96        2974.75           1554          64.00       251.96
 1307.99        2975.00           1557          64.00       251.96
 1308.03        2975.25           1561          45.00       169.14
 1308.07        2975.50           1564          45.00       169.14
 1308.10        2975.75           1567          48.00       182.22
 1308.14        2976.00           1571          43.00       160.42
 1308.17        2976.25           1574          42.00       156.06
 1308.20        2976.50           1577          46.00       173.50
 1308.23        2976.75           1581          40.00       147.34
 1308.26        2977.00           1584          38.00       138.62
 1308.29        2977.25           1587          36.00       129.90
 1308.33        2977.50           1591          36.00       129.90
 1308.37        2977.75           1594          41.00       151.70
 1308.40        2978.00           1597          31.00       108.11
 1308.43        2978.25           1601          35.00       125.55
 1308.47        2978.50           1604          38.00       138.62
 1308.51        2978.75           1607          37.00       134.26
 1308.54        2979.00           1611          38.00       138.62
 1308.58        2979.25           1614          33.00       116.83
 1308.61        2979.50           1617          33.00       116.83
 1308.64        2979.75           1621          32.00       112.47
 1308.67        2980.00           1624          32.00       112.47
 1308.70        2980.25           1628          25.00        81.95
 1308.73        2980.50           1631          34.00       121.19
 1308.76        2980.75           1634          31.00       108.11
 1308.79        2981.00           1638          33.00       116.83
 1308.83        2981.25           1641          27.00        90.67
 1308.86        2981.50           1644          28.00        95.03
 1308.89        2981.75           1648          30.00       103.75
 1308.93        2982.00           1651          29.00        99.39
 1308.96        2982.25           1654          31.00       108.11
 1308.99        2982.50           1658          31.00       108.11
 1309.03        2982.75           1661          35.00       125.55
 1309.06        2983.00           1664          38.00       138.62
 1309.09        2983.25           1668          34.00       121.19
 1309.12        2983.50           1671          33.00       116.83
 1309.15        2983.75           1674          29.00        99.39
 1309.18        2984.00           1678          35.00       125.55
HS scan finished at 21:49:24
end
