************************************************************
  HS Scan of (1) Internal mercury lamp
************************************************************
Integration time is 0.2294 seconds per sample
dh300519Izana 28.3081 16.4992 2.857833pr770
************************************************************
Dead Time -------------------------  2.7E-08 
Number of Cycles Used -------------  4 
Starting Wavelength (Angstroms) ---  2950 
Final Wavelength (Angstoms) -------  2984 
Wavelength Increment (Angstroms) --  .25 
Filter Wheel #1 Position ---------- (1) Ground quartz diffuser (ND=2.32)
Filter Wheel #2 Position ---------- (1) Neutral Density 0.494



************************************************************
HS scan start time = 04:39:10
Dark Count =  6.8 


Time (GMT)  Wavelength (Ang)  Step Number  Raw Counts  Counts/Second

  279.49        2950.00           1224          31.00       105.49
  279.56        2950.25           1227          33.00       114.21
  279.59        2950.50           1230          26.00        83.70
  279.62        2950.75           1234          32.00       109.85
  279.65        2951.00           1237          31.00       105.49
  279.68        2951.25           1240          28.00        92.42
  279.72        2951.50           1244          30.00       101.13
  279.75        2951.75           1247          33.00       114.21
  279.78        2952.00           1250          29.00        96.77
  279.81        2952.25           1254          28.00        92.42
  279.84        2952.50           1257          25.00        79.34
  279.87        2952.75           1260          35.00       122.93
  279.90        2953.00           1264          34.00       118.57
  279.93        2953.25           1267          34.00       118.57
  279.97        2953.50           1270          26.00        83.70
  280.00        2953.75           1274          33.00       114.21
  280.03        2954.00           1277          30.00       101.13
  280.06        2954.25           1280          30.00       101.13
  280.09        2954.50           1284          27.00        88.06
  280.12        2954.75           1287          27.00        88.06
  280.16        2955.00           1290          34.00       118.57
  280.19        2955.25           1294          31.00       105.49
  280.22        2955.50           1297          32.00       109.85
  280.25        2955.75           1300          32.00       109.85
  280.28        2956.00           1304          36.00       127.29
  280.31        2956.25           1307          32.00       109.85
  280.35        2956.50           1310          33.00       114.21
  280.38        2956.75           1314          27.00        88.06
  280.41        2957.00           1317          30.00       101.13
  280.44        2957.25           1320          36.00       127.29
  280.47        2957.50           1324          39.00       140.37
  280.50        2957.75           1327          39.00       140.37
  280.53        2958.00           1330          39.00       140.37
  280.57        2958.25           1334          40.00       144.73
  280.60        2958.50           1337          40.00       144.73
  280.63        2958.75           1340          40.00       144.73
  280.66        2959.00           1344          43.00       157.80
  280.69        2959.25           1347          56.00       214.47
  280.72        2959.50           1350          62.00       240.63
  280.75        2959.75           1354          82.00       327.81
  280.78        2960.00           1357         106.00       432.44
  280.82        2960.25           1360         149.00       619.89
  280.85        2960.50           1364         177.00       741.95
  280.88        2960.75           1367         225.00       951.20
  280.91        2961.00           1370         255.00      1081.98
  280.94        2961.25           1373         322.00      1374.07
  280.98        2961.50           1377         672.00      2899.97
  281.01        2961.75           1380        1480.00      6423.08
  281.04        2962.00           1383        2672.00     11621.78
  281.07        2962.25           1387        4698.00     20461.17
  281.10        2962.50           1390        6264.00     27296.49
  281.13        2962.75           1393        8008.00     34911.71
  281.16        2963.00           1397       10678.00     46576.41
  281.20        2963.25           1400       12660.00     55240.14
  281.23        2963.50           1404       15368.00     67083.91
  281.26        2963.75           1407       17204.00     75118.21
  281.29        2964.00           1410       19019.00     83064.02
  281.32        2964.25           1414       21347.00     93260.69
  281.35        2964.50           1417       22989.00    100456.10
  281.39        2964.75           1420       24759.00    108215.50
  281.42        2965.00           1424       27022.00    118140.90
  281.45        2965.25           1427       28702.00    125512.70
  281.48        2965.50           1430       30120.00    131737.20
  281.51        2965.75           1434       32608.00    142663.60
  281.54        2966.00           1437       34160.00    149482.70
  281.58        2966.25           1440       35470.00    155240.40
  281.61        2966.50           1444       37508.00    164201.50
  281.64        2966.75           1447       38682.00    169365.60
  281.67        2967.00           1450       39106.00    171231.00
  281.70        2967.25           1454       39267.00    171939.30
  281.73        2967.50           1457       39109.00    171244.20
  281.77        2967.75           1460       38938.00    170491.80
  281.80        2968.00           1464       38178.00    167148.40
  281.83        2968.25           1467       36734.00    160797.80
  281.86        2968.50           1470       35268.00    154352.50
  281.89        2968.75           1474       33041.00    144565.80
  281.93        2969.00           1477       30983.00    135526.40
  281.96        2969.25           1480       29413.00    128633.40
  281.99        2969.50           1484       26835.00    117320.50
  282.02        2969.75           1487       25341.00    110767.60
  282.05        2970.00           1490       23615.00    103200.00
  282.08        2970.25           1494       20908.00     91337.44
  282.12        2970.50           1497       19066.00     83269.82
  282.15        2970.75           1500       17082.00     74584.22
  282.18        2971.00           1504       14676.00     64056.64
  282.21        2971.25           1507       13001.00     56731.13
  282.24        2971.50           1510       11245.00     49054.47
  282.27        2971.75           1514        8983.00     39170.44
  282.31        2972.00           1517        7602.00     33138.62
  282.34        2972.25           1520        5749.00     25048.32
  282.37        2972.50           1524        3329.00     14487.79
  282.40        2972.75           1527        2009.00      8730.04
  282.43        2973.00           1530         937.00      4055.37
  282.47        2973.25           1534         403.00      1727.19
  282.50        2973.50           1537         257.00      1090.70
  282.53        2973.75           1540         207.00       872.73
  282.56        2974.00           1544         152.00       632.97
  282.59        2974.25           1547         111.00       454.23
  282.62        2974.50           1550          83.00       332.17
  282.66        2974.75           1554          56.00       214.47
  282.69        2975.00           1557          51.00       192.68
  282.72        2975.25           1561          49.00       183.96
  282.75        2975.50           1564          49.00       183.96
  282.78        2975.75           1567          50.00       188.32
  282.81        2976.00           1571          46.00       170.88
  282.84        2976.25           1574          41.00       149.09
  282.88        2976.50           1577          42.00       153.44
  282.91        2976.75           1581          42.00       153.44
  282.94        2977.00           1584          37.00       131.65
  282.97        2977.25           1587          39.00       140.37
  283.00        2977.50           1591          39.00       140.37
  283.03        2977.75           1594          33.00       114.21
  283.06        2978.00           1597          39.00       140.37
  283.10        2978.25           1601          35.00       122.93
  283.13        2978.50           1604          36.00       127.29
  283.16        2978.75           1607          28.00        92.42
  283.19        2979.00           1611          33.00       114.21
  283.22        2979.25           1614          28.00        92.42
  283.25        2979.50           1617          32.00       109.85
  283.29        2979.75           1621          32.00       109.85
  283.32        2980.00           1624          32.00       109.85
  283.35        2980.25           1628          26.00        83.70
  283.38        2980.50           1631          29.00        96.77
  283.41        2980.75           1634          25.00        79.34
  283.44        2981.00           1638          36.00       127.29
  283.47        2981.25           1641          33.00       114.21
  283.51        2981.50           1644          34.00       118.57
  283.54        2981.75           1648          29.00        96.77
  283.57        2982.00           1651          29.00        96.77
  283.60        2982.25           1654          27.00        88.06
  283.63        2982.50           1658          30.00       101.13
  283.66        2982.75           1661          30.00       101.13
  283.69        2983.00           1664          23.00        70.62
  283.73        2983.25           1668          29.00        96.77
  283.76        2983.50           1671          25.00        79.34
  283.79        2983.75           1674          24.00        74.98
  283.82        2984.00           1678          33.00       114.21
HS scan finished at 04:44:03
end
************************************************************
  HS Scan of (1) Internal mercury lamp
************************************************************
Integration time is 0.2294 seconds per sample
dh300519Izana 28.3081 16.4992 2.911481pr770
************************************************************
Dead Time -------------------------  2.7E-08 
Number of Cycles Used -------------  4 
Starting Wavelength (Angstroms) ---  2950 
Final Wavelength (Angstoms) -------  2984 
Wavelength Increment (Angstroms) --  .25 
Filter Wheel #1 Position ---------- (1) Ground quartz diffuser (ND=2.32)
Filter Wheel #2 Position ---------- (1) Neutral Density 0.494



************************************************************
HS scan start time = 21:44:48
Dark Count =  7.8 


Time (GMT)  Wavelength (Ang)  Step Number  Raw Counts  Counts/Second

 1305.12        2950.00           1224          28.00        88.06
 1305.19        2950.25           1227          25.00        74.98
 1305.22        2950.50           1230          44.00       157.80
 1305.25        2950.75           1234          30.00        96.77
 1305.28        2951.00           1237          28.00        88.06
 1305.31        2951.25           1240          25.00        74.98
 1305.35        2951.50           1244          25.00        74.98
 1305.38        2951.75           1247          30.00        96.77
 1305.41        2952.00           1250          34.00       114.21
 1305.44        2952.25           1254          31.00       101.13
 1305.47        2952.50           1257          33.00       109.85
 1305.50        2952.75           1260          30.00        96.77
 1305.54        2953.00           1264          32.00       105.49
 1305.57        2953.25           1267          29.00        92.42
 1305.60        2953.50           1270          30.00        96.77
 1305.63        2953.75           1274          27.00        83.70
 1305.66        2954.00           1277          35.00       118.57
 1305.69        2954.25           1280          30.00        96.77
 1305.72        2954.50           1284          29.00        92.42
 1305.76        2954.75           1287          30.00        96.77
 1305.79        2955.00           1290          36.00       122.93
 1305.82        2955.25           1294          30.00        96.77
 1305.85        2955.50           1297          34.00       114.21
 1305.88        2955.75           1300          32.00       105.49
 1305.91        2956.00           1304          28.00        88.06
 1305.94        2956.25           1307          31.00       101.13
 1305.98        2956.50           1310          33.00       109.85
 1306.01        2956.75           1314          28.00        88.06
 1306.04        2957.00           1317          38.00       131.65
 1306.07        2957.25           1320          36.00       122.93
 1306.10        2957.50           1324          30.00        96.77
 1306.13        2957.75           1327          37.00       127.29
 1306.16        2958.00           1330          38.00       131.65
 1306.20        2958.25           1334          45.00       162.16
 1306.23        2958.50           1337          51.00       188.32
 1306.26        2958.75           1340          38.00       131.65
 1306.29        2959.00           1344          46.00       166.52
 1306.32        2959.25           1347          45.00       162.16
 1306.35        2959.50           1350          66.00       253.71
 1306.38        2959.75           1354          89.00       353.97
 1306.42        2960.00           1357         113.00       458.59
 1306.45        2960.25           1360         152.00       628.61
 1306.48        2960.50           1364         195.00       816.06
 1306.51        2960.75           1367         236.00       994.80
 1306.54        2961.00           1370         282.00      1195.33
 1306.58        2961.25           1373         333.00      1417.67
 1306.61        2961.50           1377         816.00      3523.44
 1306.64        2961.75           1380        1605.00      6963.82
 1306.67        2962.00           1383        3005.00     13070.00
 1306.70        2962.25           1387        5128.00     22333.43
 1306.73        2962.50           1390        6568.00     28619.32
 1306.77        2962.75           1393        8279.00     36090.95
 1306.80        2963.00           1397       10335.00     45073.14
 1306.83        2963.25           1400       12286.00     53600.62
 1306.86        2963.50           1404       14935.00     65185.25
 1306.89        2963.75           1407       16889.00     73735.15
 1306.92        2964.00           1410       18811.00     82148.88
 1306.96        2964.25           1414       20736.00     90579.59
 1306.99        2964.50           1417       22644.00     98939.62
 1307.02        2964.75           1420       24246.00    105961.80
 1307.05        2965.00           1424       26510.00    115890.40
 1307.08        2965.25           1427       28468.00    124481.30
 1307.11        2965.50           1430       30433.00    133107.00
 1307.15        2965.75           1434       32906.00    143968.30
 1307.18        2966.00           1437       34453.00    150765.90
 1307.21        2966.25           1440       36184.00    158375.00
 1307.24        2966.50           1444       37838.00    165648.50
 1307.27        2966.75           1447       38712.00    169493.20
 1307.31        2967.00           1450       39116.00    171270.60
 1307.34        2967.25           1454       39365.00    172366.10
 1307.37        2967.50           1457       39378.00    172423.40
 1307.40        2967.75           1460       39016.00    170830.60
 1307.43        2968.00           1464       37987.00    166303.90
 1307.46        2968.25           1467       36804.00    161101.20
 1307.50        2968.50           1470       35384.00    154858.00
 1307.53        2968.75           1474       33301.00    145703.70
 1307.56        2969.00           1477       31316.00    136984.40
 1307.59        2969.25           1480       29551.00    129234.80
 1307.62        2969.50           1484       26838.00    117329.20
 1307.65        2969.75           1487       25016.00    109338.00
 1307.69        2970.00           1490       23131.00    101074.10
 1307.72        2970.25           1494       21112.00     92226.76
 1307.75        2970.50           1497       19249.00     84066.79
 1307.78        2970.75           1500       17717.00     77359.32
 1307.81        2971.00           1504       15029.00     65596.46
 1307.84        2971.25           1507       13188.00     57544.44
 1307.88        2971.50           1510       11331.00     49425.99
 1307.91        2971.75           1514        8984.00     39170.44
 1307.94        2972.00           1517        7206.00     31405.00
 1307.97        2972.25           1520        5530.00     24088.03
 1308.01        2972.50           1524        3337.00     14518.33
 1308.05        2972.75           1527        1814.00      7875.26
 1308.08        2973.00           1530         906.00      3915.85
 1308.11        2973.25           1534         385.00      1644.36
 1308.14        2973.50           1537         264.00      1116.86
 1308.17        2973.75           1540         209.00       877.09
 1308.21        2974.00           1544         156.00       646.04
 1308.25        2974.25           1547         116.00       471.67
 1308.28        2974.50           1550          91.00       362.69
 1308.32        2974.75           1554          70.00       271.14
 1308.35        2975.00           1557          55.00       205.76
 1308.40        2975.25           1561          50.00       183.96
 1308.43        2975.50           1564          42.00       149.09
 1308.46        2975.75           1567          43.00       153.44
 1308.50        2976.00           1571          36.00       122.93
 1308.53        2976.25           1574          41.00       144.73
 1308.56        2976.50           1577          38.00       131.65
 1308.59        2976.75           1581          38.00       131.65
 1308.62        2977.00           1584          38.00       131.65
 1308.65        2977.25           1587          34.00       114.21
 1308.69        2977.50           1591          41.00       144.73
 1308.72        2977.75           1594          44.00       157.80
 1308.75        2978.00           1597          41.00       144.73
 1308.78        2978.25           1601          31.00       101.13
 1308.81        2978.50           1604          30.00        96.77
 1308.84        2978.75           1607          33.00       109.85
 1308.87        2979.00           1611          29.00        92.42
 1308.91        2979.25           1614          33.00       109.85
 1308.94        2979.50           1617          32.00       105.49
 1308.97        2979.75           1621          35.00       118.57
 1309.00        2980.00           1624          32.00       105.49
 1309.03        2980.25           1628          34.00       114.21
 1309.06        2980.50           1631          31.00       101.13
 1309.09        2980.75           1634          26.00        79.34
 1309.12        2981.00           1638          33.00       109.85
 1309.16        2981.25           1641          27.00        83.70
 1309.19        2981.50           1644          35.00       118.57
 1309.22        2981.75           1648          30.00        96.77
 1309.25        2982.00           1651          33.00       109.85
 1309.28        2982.25           1654          31.00       101.13
 1309.31        2982.50           1658          28.00        88.06
 1309.34        2982.75           1661          29.00        92.42
 1309.37        2983.00           1664          27.00        83.70
 1309.41        2983.25           1668          30.00        96.77
 1309.44        2983.50           1671          28.00        88.06
 1309.47        2983.75           1674          27.00        83.70
 1309.50        2984.00           1678          26.00        79.34
HS scan finished at 21:49:43
end
