************************************************************
  HS Scan of (1) Internal mercury lamp
************************************************************
Integration time is 0.2294 seconds per sample
dh080619Izana 28.3081 16.4992 2.911481pr770
************************************************************
Dead Time -------------------------  2.7E-08 
Number of Cycles Used -------------  4 
Starting Wavelength (Angstroms) ---  2950 
Final Wavelength (Angstoms) -------  2984 
Wavelength Increment (Angstroms) --  .25 
Filter Wheel #1 Position ---------- (1) Ground quartz diffuser (ND=2.32)
Filter Wheel #2 Position ---------- (1) Neutral Density 0.494



************************************************************
HS scan start time = 04:36:08
Dark Count =  7.1 


Time (GMT)  Wavelength (Ang)  Step Number  Raw Counts  Counts/Second

  276.46        2950.00           1224          36.00       125.98
  276.53        2950.25           1227          31.00       104.19
  276.56        2950.50           1230          35.00       121.62
  276.59        2950.75           1234          37.00       130.34
  276.63        2951.00           1237          28.00        91.11
  276.66        2951.25           1240          36.00       125.98
  276.69        2951.50           1244          34.00       117.26
  276.72        2951.75           1247          36.00       125.98
  276.75        2952.00           1250          37.00       130.34
  276.78        2952.25           1254          35.00       121.62
  276.81        2952.50           1257          38.00       134.70
  276.85        2952.75           1260          33.00       112.90
  276.88        2953.00           1264          29.00        95.47
  276.91        2953.25           1267          32.00       108.54
  276.94        2953.50           1270          31.00       104.19
  276.97        2953.75           1274          34.00       117.26
  277.00        2954.00           1277          26.00        82.39
  277.04        2954.25           1280          32.00       108.54
  277.07        2954.50           1284          53.00       200.09
  277.10        2954.75           1287          34.00       117.26
  277.13        2955.00           1290          28.00        91.11
  277.16        2955.25           1294          30.00        99.83
  277.19        2955.50           1297          42.00       152.14
  277.22        2955.75           1300          29.00        95.47
  277.26        2956.00           1304          33.00       112.90
  277.29        2956.25           1307          43.00       156.50
  277.32        2956.50           1310          34.00       117.26
  277.35        2956.75           1314          34.00       117.26
  277.38        2957.00           1317          34.00       117.26
  277.41        2957.25           1320          40.00       143.42
  277.44        2957.50           1324          44.00       160.86
  277.48        2957.75           1327          42.00       152.14
  277.51        2958.00           1330          42.00       152.14
  277.54        2958.25           1334          44.00       160.86
  277.57        2958.50           1337          49.00       182.65
  277.60        2958.75           1340          41.00       147.78
  277.63        2959.00           1344          50.00       187.01
  277.67        2959.25           1347          51.00       191.37
  277.70        2959.50           1350          60.00       230.60
  277.73        2959.75           1354          92.00       370.10
  277.76        2960.00           1357         126.00       518.32
  277.79        2960.25           1360         166.00       692.69
  277.82        2960.50           1364         185.00       775.52
  277.85        2960.75           1367         249.00      1054.52
  277.89        2961.00           1370         290.00      1233.26
  277.92        2961.25           1373         365.00      1560.22
  277.95        2961.50           1377         907.00      3923.26
  277.98        2961.75           1380        1984.00      8619.70
  278.01        2962.00           1383        3602.00     15677.52
  278.04        2962.25           1387        6246.00     27216.60
  278.08        2962.50           1390        8112.00     35364.62
  278.11        2962.75           1393        9903.00     43188.53
  278.14        2963.00           1397       12305.00     53686.75
  278.17        2963.25           1400       14176.00     61868.30
  278.20        2963.50           1404       16524.00     72140.81
  278.23        2963.75           1407       18088.00     78986.50
  278.27        2964.00           1410       19757.00     86294.56
  278.30        2964.25           1414       22306.00     97461.44
  278.33        2964.50           1417       24047.00    105092.50
  278.36        2964.75           1420       25806.00    112805.60
  278.39        2965.00           1424       28389.00    124137.70
  278.43        2965.25           1427       29992.00    131173.90
  278.46        2965.50           1430       31746.00    138875.90
  278.49        2965.75           1434       34271.00    149969.20
  278.52        2966.00           1437       36004.00    157586.70
  278.55        2966.25           1440       38178.00    167147.10
  278.58        2966.50           1444       39808.00    174318.50
  278.62        2966.75           1447       40433.00    177069.00
  278.65        2967.00           1450       40784.00    178613.90
  278.68        2967.25           1454       40839.00    178856.00
  278.71        2967.50           1457       40959.00    179384.20
  278.74        2967.75           1460       40777.00    178583.10
  278.78        2968.00           1464       39598.00    173394.40
  278.81        2968.25           1467       38188.00    167191.10
  278.84        2968.50           1470       36629.00    160334.70
  278.87        2968.75           1474       34350.00    150316.30
  278.90        2969.00           1477       32272.00    141186.30
  278.94        2969.25           1480       30690.00    134238.50
  278.97        2969.50           1484       28000.00    122430.60
  279.00        2969.75           1487       26331.00    115108.30
  279.03        2970.00           1490       24434.00    106789.20
  279.06        2970.25           1494       21640.00     94543.12
  279.10        2970.50           1497       19738.00     86211.34
  279.13        2970.75           1500       17663.00     77126.01
  279.16        2971.00           1504       15176.00     66242.62
  279.19        2971.25           1507       13285.00     57971.66
  279.22        2971.50           1510       11616.00     50674.78
  279.25        2971.75           1514        9498.00     41419.01
  279.28        2972.00           1517        7790.00     33958.33
  279.32        2972.25           1520        5929.00     25832.75
  279.35        2972.50           1524        3487.00     15175.79
  279.38        2972.75           1527        2028.00      8811.60
  279.41        2973.00           1530         878.00      3796.82
  279.44        2973.25           1534         388.00      1660.49
  279.47        2973.50           1537         263.00      1115.55
  279.50        2973.75           1540         199.00       836.55
  279.54        2974.00           1544         149.00       618.58
  279.57        2974.25           1547         106.00       431.13
  279.60        2974.50           1550          90.00       361.38
  279.63        2974.75           1554          76.00       300.35
  279.66        2975.00           1557          62.00       239.32
  279.69        2975.25           1561          55.00       208.81
  279.73        2975.50           1564          42.00       152.14
  279.76        2975.75           1567          41.00       147.78
  279.79        2976.00           1571          43.00       156.50
  279.82        2976.25           1574          45.00       165.21
  279.85        2976.50           1577          47.00       173.93
  279.88        2976.75           1581          42.00       152.14
  279.91        2977.00           1584          39.00       139.06
  279.95        2977.25           1587          33.00       112.90
  279.98        2977.50           1591          47.00       173.93
  280.01        2977.75           1594          40.00       143.42
  280.04        2978.00           1597          37.00       130.34
  280.07        2978.25           1601          42.00       152.14
  280.10        2978.50           1604          38.00       134.70
  280.13        2978.75           1607          37.00       130.34
  280.17        2979.00           1611          30.00        99.83
  280.20        2979.25           1614          29.00        95.47
  280.23        2979.50           1617          33.00       112.90
  280.26        2979.75           1621          38.00       134.70
  280.29        2980.00           1624          32.00       108.54
  280.32        2980.25           1628          28.00        91.11
  280.36        2980.50           1631          35.00       121.62
  280.39        2980.75           1634          31.00       104.19
  280.42        2981.00           1638          31.00       104.19
  280.45        2981.25           1641          33.00       112.90
  280.48        2981.50           1644          34.00       117.26
  280.51        2981.75           1648          30.00        99.83
  280.54        2982.00           1651          33.00       112.90
  280.58        2982.25           1654          34.00       117.26
  280.61        2982.50           1658          32.00       108.54
  280.64        2982.75           1661          29.00        95.47
  280.67        2983.00           1664          27.00        86.75
  280.70        2983.25           1668          30.00        99.83
  280.74        2983.50           1671          32.00       108.54
  280.77        2983.75           1674          34.00       117.26
  280.80        2984.00           1678          29.00        95.47
HS scan finished at 04:41:01
end
************************************************************
  HS Scan of (1) Internal mercury lamp
************************************************************
Integration time is 0.2294 seconds per sample
dh080619Izana 28.3081 16.4992 2.857833pr770
************************************************************
Dead Time -------------------------  2.7E-08 
Number of Cycles Used -------------  4 
Starting Wavelength (Angstroms) ---  2950 
Final Wavelength (Angstoms) -------  2984 
Wavelength Increment (Angstroms) --  .25 
Filter Wheel #1 Position ---------- (1) Ground quartz diffuser (ND=2.32)
Filter Wheel #2 Position ---------- (1) Neutral Density 0.494



************************************************************
HS scan start time = 22:24:56
Dark Count =  7.1 


Time (GMT)  Wavelength (Ang)  Step Number  Raw Counts  Counts/Second

 1345.26        2950.00           1224          34.00       117.26
 1345.33        2950.25           1227          34.00       117.26
 1345.36        2950.50           1230          43.00       156.50
 1345.39        2950.75           1234          32.00       108.54
 1345.42        2951.00           1237          30.00        99.83
 1345.46        2951.25           1240          37.00       130.34
 1345.49        2951.50           1244          37.00       130.34
 1345.52        2951.75           1247          32.00       108.54
 1345.55        2952.00           1250          33.00       112.90
 1345.58        2952.25           1254          39.00       139.06
 1345.61        2952.50           1257          35.00       121.62
 1345.64        2952.75           1260          37.00       130.34
 1345.68        2953.00           1264          40.00       143.42
 1345.71        2953.25           1267          36.00       125.98
 1345.74        2953.50           1270          27.00        86.75
 1345.77        2953.75           1274          31.00       104.19
 1345.80        2954.00           1277          29.00        95.47
 1345.83        2954.25           1280          35.00       121.62
 1345.86        2954.50           1284          26.00        82.39
 1345.90        2954.75           1287          33.00       112.90
 1345.93        2955.00           1290          36.00       125.98
 1345.96        2955.25           1294          39.00       139.06
 1345.99        2955.50           1297          29.00        95.47
 1346.02        2955.75           1300          41.00       147.78
 1346.05        2956.00           1304          36.00       125.98
 1346.09        2956.25           1307          34.00       117.26
 1346.12        2956.50           1310          31.00       104.19
 1346.15        2956.75           1314          52.00       195.73
 1346.18        2957.00           1317          40.00       143.42
 1346.21        2957.25           1320          37.00       130.34
 1346.24        2957.50           1324          41.00       147.78
 1346.27        2957.75           1327          42.00       152.14
 1346.31        2958.00           1330          39.00       139.06
 1346.34        2958.25           1334          41.00       147.78
 1346.37        2958.50           1337          41.00       147.78
 1346.40        2958.75           1340          49.00       182.65
 1346.43        2959.00           1344          53.00       200.09
 1346.46        2959.25           1347          55.00       208.81
 1346.49        2959.50           1350          68.00       265.48
 1346.53        2959.75           1354          93.00       374.46
 1346.56        2960.00           1357         115.00       470.36
 1346.59        2960.25           1360         163.00       679.61
 1346.62        2960.50           1364         204.00       858.35
 1346.65        2960.75           1367         234.00       989.13
 1346.68        2961.00           1370         280.00      1189.66
 1346.71        2961.25           1373         345.00      1473.03
 1346.74        2961.50           1377         918.00      3971.22
 1346.78        2961.75           1380        1660.00      7206.72
 1346.81        2962.00           1383        2875.00     12505.97
 1346.84        2962.25           1387        4820.00     20992.28
 1346.87        2962.50           1390        6449.00     28102.83
 1346.90        2962.75           1393        8284.00     36115.85
 1346.94        2963.00           1397       10922.00     47641.46
 1346.97        2963.25           1400       13046.00     56926.58
 1347.00        2963.50           1404       15724.00     68640.18
 1347.03        2963.75           1407       17650.00     77069.10
 1347.06        2964.00           1410       19264.00     84135.56
 1347.09        2964.25           1414       21244.00     92808.12
 1347.13        2964.50           1417       23050.00    100722.10
 1347.16        2964.75           1420       25020.00    109358.60
 1347.19        2965.00           1424       27722.00    121210.80
 1347.22        2965.25           1427       29444.00    128768.20
 1347.25        2965.50           1430       31279.00    136824.90
 1347.28        2965.75           1434       33628.00    147143.60
 1347.32        2966.00           1437       35202.00    154061.00
 1347.35        2966.25           1440       36960.00    161790.20
 1347.38        2966.50           1444       38883.00    170248.50
 1347.41        2966.75           1447       39642.00    173588.10
 1347.44        2967.00           1450       40124.00    175709.10
 1347.48        2967.25           1454       40289.00    176435.30
 1347.51        2967.50           1457       40151.00    175827.90
 1347.54        2967.75           1460       39993.00    175132.60
 1347.57        2968.00           1464       38940.00    170499.30
 1347.60        2968.25           1467       37904.00    165941.90
 1347.63        2968.50           1470       36328.00    159011.20
 1347.66        2968.75           1474       33774.00    147785.10
 1347.70        2969.00           1477       32100.00    140430.80
 1347.73        2969.25           1480       30179.00    131994.90
 1347.76        2969.50           1484       27635.00    120829.10
 1347.79        2969.75           1487       25507.00    111494.30
 1347.82        2970.00           1490       23921.00    104540.10
 1347.86        2970.25           1494       21675.00     94696.48
 1347.89        2970.50           1497       19681.00     85961.71
 1347.92        2970.75           1500       17599.00     76845.85
 1347.95        2971.00           1504       15195.00     66325.74
 1347.98        2971.25           1507       13304.00     58054.75
 1348.01        2971.50           1510       11483.00     50093.43
 1348.05        2971.75           1514        9121.00     39771.99
 1348.08        2972.00           1517        7505.00     32713.71
 1348.11        2972.25           1520        5522.00     24056.16
 1348.14        2972.50           1524        2961.00     12881.11
 1348.17        2972.75           1527        1798.00      7808.53
 1348.20        2973.00           1530         831.00      3591.89
 1348.24        2973.25           1534         378.00      1616.90
 1348.27        2973.50           1537         252.00      1067.60
 1348.30        2973.75           1540         204.00       858.35
 1348.33        2974.00           1544         152.00       631.66
 1348.36        2974.25           1547         114.00       466.00
 1348.39        2974.50           1550          94.00       378.82
 1348.42        2974.75           1554          61.00       234.96
 1348.46        2975.00           1557          55.00       208.81
 1348.49        2975.25           1561          52.00       195.73
 1348.52        2975.50           1564          53.00       200.09
 1348.55        2975.75           1567          49.00       182.65
 1348.58        2976.00           1571          45.00       165.21
 1348.61        2976.25           1574          50.00       187.01
 1348.65        2976.50           1577          43.00       156.50
 1348.68        2976.75           1581          41.00       147.78
 1348.71        2977.00           1584          53.00       200.09
 1348.74        2977.25           1587          38.00       134.70
 1348.77        2977.50           1591          41.00       147.78
 1348.80        2977.75           1594          34.00       117.26
 1348.83        2978.00           1597          45.00       165.21
 1348.87        2978.25           1601          34.00       117.26
 1348.90        2978.50           1604          38.00       134.70
 1348.93        2978.75           1607          36.00       125.98
 1348.96        2979.00           1611          33.00       112.90
 1348.99        2979.25           1614          38.00       134.70
 1349.02        2979.50           1617          39.00       139.06
 1349.05        2979.75           1621          30.00        99.83
 1349.09        2980.00           1624          43.00       156.50
 1349.12        2980.25           1628          37.00       130.34
 1349.15        2980.50           1631          37.00       130.34
 1349.18        2980.75           1634          26.00        82.39
 1349.21        2981.00           1638          32.00       108.54
 1349.24        2981.25           1641          31.00       104.19
 1349.28        2981.50           1644          29.00        95.47
 1349.31        2981.75           1648          36.00       125.98
 1349.34        2982.00           1651          37.00       130.34
 1349.37        2982.25           1654          30.00        99.83
 1349.40        2982.50           1658          35.00       121.62
 1349.43        2982.75           1661          35.00       121.62
 1349.46        2983.00           1664          34.00       117.26
 1349.50        2983.25           1668          32.00       108.54
 1349.53        2983.50           1671          32.00       108.54
 1349.56        2983.75           1674          24.00        73.67
 1349.59        2984.00           1678          32.00       108.54
HS scan finished at 22:29:49
end
