************************************************************
  HS Scan of (1) Internal mercury lamp
************************************************************
Integration time is 0.2294 seconds per sample
dh030619Izana 28.3081 16.4992 2.857833pr770
************************************************************
Dead Time -------------------------  2.7E-08 
Number of Cycles Used -------------  4 
Starting Wavelength (Angstroms) ---  2950 
Final Wavelength (Angstoms) -------  2984 
Wavelength Increment (Angstroms) --  .25 
Filter Wheel #1 Position ---------- (1) Ground quartz diffuser (ND=2.32)
Filter Wheel #2 Position ---------- (1) Neutral Density 0.494



************************************************************
HS scan start time = 04:36:54
Dark Count =  6.5 


Time (GMT)  Wavelength (Ang)  Step Number  Raw Counts  Counts/Second

  277.23        2950.00           1224          39.00       141.67
  277.30        2950.25           1227          36.00       128.60
  277.33        2950.50           1230          29.00        98.08
  277.36        2950.75           1234          33.00       115.52
  277.39        2951.00           1237          34.00       119.88
  277.42        2951.25           1240          29.00        98.08
  277.45        2951.50           1244          33.00       115.52
  277.49        2951.75           1247          31.00       106.80
  277.52        2952.00           1250          30.00       102.44
  277.55        2952.25           1254          34.00       119.88
  277.58        2952.50           1257          37.00       132.96
  277.61        2952.75           1260          32.00       111.16
  277.64        2953.00           1264          37.00       132.96
  277.68        2953.25           1267          28.00        93.72
  277.71        2953.50           1270          31.00       106.80
  277.74        2953.75           1274          37.00       132.96
  277.77        2954.00           1277          35.00       124.24
  277.80        2954.25           1280          25.00        80.65
  277.84        2954.50           1284          43.00       159.11
  277.87        2954.75           1287          37.00       132.96
  277.90        2955.00           1290          33.00       115.52
  277.93        2955.25           1294          39.00       141.67
  277.96        2955.50           1297          35.00       124.24
  277.99        2955.75           1300          31.00       106.80
  278.03        2956.00           1304          36.00       128.60
  278.06        2956.25           1307          37.00       132.96
  278.09        2956.50           1310          42.00       154.75
  278.12        2956.75           1314          34.00       119.88
  278.15        2957.00           1317          48.00       180.91
  278.19        2957.25           1320          39.00       141.67
  278.22        2957.50           1324          45.00       167.83
  278.25        2957.75           1327          45.00       167.83
  278.28        2958.00           1330          45.00       167.83
  278.31        2958.25           1334          36.00       128.60
  278.35        2958.50           1337          39.00       141.67
  278.38        2958.75           1340          41.00       150.39
  278.41        2959.00           1344          48.00       180.91
  278.44        2959.25           1347          52.00       198.34
  278.47        2959.50           1350          69.00       272.45
  278.50        2959.75           1354          95.00       385.79
  278.54        2960.00           1357         131.00       542.73
  278.57        2960.25           1360         161.00       673.51
  278.60        2960.50           1364         208.00       878.40
  278.63        2960.75           1367         261.00      1109.45
  278.66        2961.00           1370         298.00      1270.75
  278.69        2961.25           1373         336.00      1436.41
  278.73        2961.50           1377         741.00      3202.11
  278.76        2961.75           1380        1629.00      7074.15
  278.79        2962.00           1383        2942.00     12800.85
  278.82        2962.25           1387        5220.00     22740.64
  278.85        2962.50           1390        6932.00     30214.26
  278.89        2962.75           1393        8695.00     37913.68
  278.92        2963.00           1397       11310.00     49339.89
  278.95        2963.25           1400       13437.00     58638.98
  278.98        2963.50           1404       16137.00     70449.93
  279.01        2963.75           1407       17983.00     78529.46
  279.05        2964.00           1410       19774.00     86371.62
  279.08        2964.25           1414       22092.00     96526.31
  279.11        2964.50           1417       24074.00    105213.50
  279.14        2964.75           1420       26038.00    113825.70
  279.17        2965.00           1424       28290.00    123705.90
  279.21        2965.25           1427       29913.00    130829.70
  279.24        2965.50           1430       31571.00    138110.00
  279.27        2965.75           1434       34012.00    148833.60
  279.30        2966.00           1437       35312.00    154547.20
  279.33        2966.25           1440       37067.00    162263.40
  279.36        2966.50           1444       39129.00    171333.50
  279.40        2966.75           1447       39895.00    174704.00
  279.43        2967.00           1450       40351.00    176710.80
  279.46        2967.25           1454       40529.00    177494.20
  279.49        2967.50           1457       40425.00    177036.50
  279.52        2967.75           1460       40074.00    175491.70
  279.56        2968.00           1464       39109.00    171245.50
  279.59        2968.25           1467       38002.00    166375.60
  279.62        2968.50           1470       36457.00    159581.10
  279.65        2968.75           1474       34039.00    148952.20
  279.69        2969.00           1477       32147.00    140639.80
  279.72        2969.25           1480       30264.00    132370.70
  279.75        2969.50           1484       27734.00    121266.10
  279.78        2969.75           1487       26018.00    113738.00
  279.81        2970.00           1490       24178.00    105669.40
  279.85        2970.25           1494       21781.00     95163.56
  279.88        2970.50           1497       19663.00     85885.51
  279.91        2970.75           1500       17541.00     76594.60
  279.94        2971.00           1504       14959.00     65295.92
  279.97        2971.25           1507       13179.00     57510.77
  280.01        2971.50           1510       11373.00     49615.25
  280.04        2971.75           1514        8924.00     38914.01
  280.07        2972.00           1517        7363.00     32096.24
  280.10        2972.25           1520        5613.00     24455.99
  280.13        2972.50           1524        3431.00     14934.09
  280.17        2972.75           1527        2015.00      8757.52
  280.20        2973.00           1530         865.00      3742.75
  280.23        2973.25           1534         385.00      1650.03
  280.26        2973.50           1537         241.00      1022.26
  280.29        2973.75           1540         180.00       756.34
  280.32        2974.00           1544         127.00       525.29
  280.36        2974.25           1547         106.00       433.75
  280.39        2974.50           1550          84.00       337.84
  280.42        2974.75           1554          55.00       211.42
  280.45        2975.00           1557          57.00       220.14
  280.48        2975.25           1561          54.00       207.06
  280.52        2975.50           1564          45.00       167.83
  280.55        2975.75           1567          47.00       176.55
  280.58        2976.00           1571          42.00       154.75
  280.61        2976.25           1574          44.00       163.47
  280.64        2976.50           1577          44.00       163.47
  280.68        2976.75           1581          40.00       146.03
  280.71        2977.00           1584          41.00       150.39
  280.74        2977.25           1587          44.00       163.47
  280.77        2977.50           1591          44.00       163.47
  280.80        2977.75           1594          38.00       137.32
  280.83        2978.00           1597          38.00       137.32
  280.87        2978.25           1601          32.00       111.16
  280.90        2978.50           1604          34.00       119.88
  280.93        2978.75           1607          32.00       111.16
  280.96        2979.00           1611          37.00       132.96
  280.99        2979.25           1614          35.00       124.24
  281.03        2979.50           1617          30.00       102.44
  281.06        2979.75           1621          33.00       115.52
  281.09        2980.00           1624          34.00       119.88
  281.12        2980.25           1628          33.00       115.52
  281.15        2980.50           1631          41.00       150.39
  281.19        2980.75           1634          39.00       141.67
  281.22        2981.00           1638          35.00       124.24
  281.25        2981.25           1641          31.00       106.80
  281.28        2981.50           1644          29.00        98.08
  281.31        2981.75           1648          28.00        93.72
  281.34        2982.00           1651          33.00       115.52
  281.38        2982.25           1654          31.00       106.80
  281.41        2982.50           1658          32.00       111.16
  281.44        2982.75           1661          32.00       111.16
  281.47        2983.00           1664          33.00       115.52
  281.50        2983.25           1668          29.00        98.08
  281.53        2983.50           1671          34.00       119.88
  281.56        2983.75           1674          28.00        93.72
  281.60        2984.00           1678          41.00       150.39
HS scan finished at 04:41:49
end
************************************************************
  HS Scan of (1) Internal mercury lamp
************************************************************
Integration time is 0.2294 seconds per sample
dh030619Izana 28.3081 16.4992 2.911481pr770
************************************************************
Dead Time -------------------------  2.7E-08 
Number of Cycles Used -------------  4 
Starting Wavelength (Angstroms) ---  2950 
Final Wavelength (Angstoms) -------  2984 
Wavelength Increment (Angstroms) --  .25 
Filter Wheel #1 Position ---------- (1) Ground quartz diffuser (ND=2.32)
Filter Wheel #2 Position ---------- (1) Neutral Density 0.494



************************************************************
HS scan start time = 21:45:24
Dark Count =  8.5 


Time (GMT)  Wavelength (Ang)  Step Number  Raw Counts  Counts/Second

 1305.73        2950.00           1224          35.00       115.52
 1305.80        2950.25           1227          33.00       106.80
 1305.83        2950.50           1230          45.00       159.11
 1305.86        2950.75           1234          33.00       106.80
 1305.89        2951.00           1237          36.00       119.88
 1305.92        2951.25           1240          41.00       141.67
 1305.96        2951.50           1244          36.00       119.88
 1305.99        2951.75           1247          36.00       119.88
 1306.02        2952.00           1250          30.00        93.72
 1306.05        2952.25           1254          36.00       119.88
 1306.08        2952.50           1257          32.00       102.44
 1306.11        2952.75           1260          32.00       102.44
 1306.15        2953.00           1264          38.00       128.60
 1306.18        2953.25           1267          30.00        93.72
 1306.21        2953.50           1270          35.00       115.52
 1306.24        2953.75           1274          30.00        93.72
 1306.27        2954.00           1277          31.00        98.08
 1306.30        2954.25           1280          37.00       124.24
 1306.34        2954.50           1284          32.00       102.44
 1306.37        2954.75           1287          33.00       106.80
 1306.40        2955.00           1290          34.00       111.16
 1306.43        2955.25           1294          37.00       124.24
 1306.46        2955.50           1297          34.00       111.16
 1306.49        2955.75           1300          39.00       132.96
 1306.53        2956.00           1304          35.00       115.52
 1306.56        2956.25           1307          34.00       111.16
 1306.59        2956.50           1310          36.00       119.88
 1306.62        2956.75           1314          36.00       119.88
 1306.65        2957.00           1317          39.00       132.96
 1306.68        2957.25           1320          29.00        89.36
 1306.72        2957.50           1324          34.00       111.16
 1306.75        2957.75           1327          42.00       146.03
 1306.78        2958.00           1330          43.00       150.39
 1306.81        2958.25           1334          42.00       146.03
 1306.84        2958.50           1337          48.00       172.19
 1306.88        2958.75           1340          44.00       154.75
 1306.91        2959.00           1344          47.00       167.83
 1306.94        2959.25           1347          53.00       193.99
 1306.97        2959.50           1350          71.00       272.45
 1307.00        2959.75           1354          86.00       337.84
 1307.04        2960.00           1357         124.00       503.49
 1307.07        2960.25           1360         167.00       690.95
 1307.10        2960.50           1364         194.00       808.65
 1307.13        2960.75           1367         235.00       987.38
 1307.16        2961.00           1370         276.00      1166.12
 1307.20        2961.25           1373         331.00      1405.89
 1307.23        2961.50           1377         900.00      3886.63
 1307.26        2961.75           1380        1959.00      8504.57
 1307.29        2962.00           1383        3334.00     14502.19
 1307.32        2962.25           1387        5622.00     24486.54
 1307.36        2962.50           1390        7466.00     32537.29
 1307.39        2962.75           1393        9268.00     40408.06
 1307.42        2963.00           1397       11497.00     50148.50
 1307.45        2963.25           1400       13215.00     57659.45
 1307.48        2963.50           1404       15505.00     67675.86
 1307.52        2963.75           1407       17280.00     75443.41
 1307.55        2964.00           1410       19137.00     83573.29
 1307.58        2964.25           1414       21664.00     94642.14
 1307.61        2964.50           1417       23666.00    103416.10
 1307.64        2964.75           1420       25464.00    111299.50
 1307.68        2965.00           1424       27725.00    121217.80
 1307.71        2965.25           1427       29469.00    128871.80
 1307.74        2965.50           1430       31480.00    137701.50
 1307.77        2965.75           1434       34083.00    149136.80
 1307.80        2966.00           1437       35721.00    156336.40
 1307.84        2966.25           1440       37675.00    164928.50
 1307.87        2966.50           1444       39539.00    173128.70
 1307.90        2966.75           1447       40260.00    176301.50
 1307.93        2967.00           1450       40652.00    178026.70
 1307.97        2967.25           1454       40991.00    179518.90
 1308.01        2967.50           1457       40834.00    178827.80
 1308.04        2967.75           1460       40439.00    177089.30
 1308.08        2968.00           1464       39597.00    173383.90
 1308.13        2968.25           1467       38162.00    167070.60
 1308.16        2968.50           1470       36494.00    159734.90
 1308.19        2968.75           1474       34455.00    150771.60
 1308.22        2969.00           1477       32566.00    142471.60
 1308.26        2969.25           1480       30932.00    135295.00
 1308.29        2969.50           1484       28281.00    123657.60
 1308.32        2969.75           1487       26284.00    114896.00
 1308.35        2970.00           1490       24235.00    105910.50
 1308.38        2970.25           1494       21549.00     94138.28
 1308.42        2970.50           1497       19756.00     86284.04
 1308.45        2970.75           1500       17976.00     78490.05
 1308.49        2971.00           1504       15641.00     68270.90
 1308.52        2971.25           1507       13915.00     60720.66
 1308.55        2971.50           1510       12145.00     52981.14
 1308.59        2971.75           1514        9749.00     42509.54
 1308.64        2972.00           1517        7829.00     34122.53
 1308.68        2972.25           1520        5893.00     25669.49
 1308.72        2972.50           1524        3346.00     14554.54
 1308.76        2972.75           1527        1823.00      7911.45
 1308.80        2973.00           1530         953.00      4117.72
 1308.84        2973.25           1534         426.00      1820.05
 1308.87        2973.50           1537         258.00      1087.65
 1308.90        2973.75           1540         218.00       913.27
 1308.93        2974.00           1544         157.00       647.35
 1308.96        2974.25           1547         119.00       481.70
 1309.00        2974.50           1550          88.00       346.56
 1309.03        2974.75           1554          77.00       298.61
 1309.06        2975.00           1557          58.00       215.78
 1309.09        2975.25           1561          53.00       193.99
 1309.12        2975.50           1564          43.00       150.39
 1309.16        2975.75           1567          54.00       198.34
 1309.19        2976.00           1571          42.00       146.03
 1309.22        2976.25           1574          44.00       154.75
 1309.25        2976.50           1577          47.00       167.83
 1309.28        2976.75           1581          44.00       154.75
 1309.32        2977.00           1584          34.00       111.16
 1309.35        2977.25           1587          39.00       132.96
 1309.38        2977.50           1591          33.00       106.80
 1309.41        2977.75           1594          38.00       128.60
 1309.44        2978.00           1597          37.00       124.24
 1309.48        2978.25           1601          38.00       128.60
 1309.51        2978.50           1604          37.00       124.24
 1309.54        2978.75           1607          31.00        98.08
 1309.57        2979.00           1611          30.00        93.72
 1309.60        2979.25           1614          31.00        98.08
 1309.63        2979.50           1617          31.00        98.08
 1309.67        2979.75           1621          35.00       115.52
 1309.70        2980.00           1624          23.00        63.21
 1309.73        2980.25           1628          38.00       128.60
 1309.76        2980.50           1631          34.00       111.16
 1309.79        2980.75           1634          34.00       111.16
 1309.82        2981.00           1638          30.00        93.72
 1309.86        2981.25           1641          29.00        89.36
 1309.89        2981.50           1644          31.00        98.08
 1309.92        2981.75           1648          31.00        98.08
 1309.95        2982.00           1651          29.00        89.36
 1309.98        2982.25           1654          33.00       106.80
 1310.02        2982.50           1658          32.00       102.44
 1310.05        2982.75           1661          34.00       111.16
 1310.08        2983.00           1664          32.00       102.44
 1310.11        2983.25           1668          32.00       102.44
 1310.14        2983.50           1671          29.00        89.36
 1310.17        2983.75           1674          43.00       150.39
 1310.21        2984.00           1678          29.00        89.36
HS scan finished at 21:50:26
end
