************************************************************
  HS Scan of (1) Internal mercury lamp
************************************************************
Integration time is 0.2294 seconds per sample
dh010619Izana 28.3081 16.4992 2.857833pr770
************************************************************
Dead Time -------------------------  2.7E-08 
Number of Cycles Used -------------  4 
Starting Wavelength (Angstroms) ---  2950 
Final Wavelength (Angstoms) -------  2984 
Wavelength Increment (Angstroms) --  .25 
Filter Wheel #1 Position ---------- (1) Ground quartz diffuser (ND=2.32)
Filter Wheel #2 Position ---------- (1) Neutral Density 0.494



************************************************************
HS scan start time = 04:37:36
Dark Count =  5.9 


Time (GMT)  Wavelength (Ang)  Step Number  Raw Counts  Counts/Second

  277.93        2950.00           1224          41.00       153.01
  278.00        2950.25           1227          34.00       122.49
  278.03        2950.50           1230          30.00       105.06
  278.06        2950.75           1234          30.00       105.06
  278.09        2951.00           1237          30.00       105.06
  278.13        2951.25           1240          37.00       135.57
  278.16        2951.50           1244          38.00       139.93
  278.19        2951.75           1247          33.00       118.13
  278.22        2952.00           1250          36.00       131.21
  278.25        2952.25           1254          31.00       109.42
  278.28        2952.50           1257          27.00        91.98
  278.32        2952.75           1260          37.00       135.57
  278.35        2953.00           1264          37.00       135.57
  278.38        2953.25           1267          37.00       135.57
  278.41        2953.50           1270          39.00       144.29
  278.44        2953.75           1274          31.00       109.42
  278.47        2954.00           1277          36.00       131.21
  278.51        2954.25           1280          40.00       148.65
  278.54        2954.50           1284          32.00       113.78
  278.57        2954.75           1287          35.00       126.85
  278.60        2955.00           1290          34.00       122.49
  278.63        2955.25           1294          35.00       126.85
  278.66        2955.50           1297          41.00       153.01
  278.70        2955.75           1300          37.00       135.57
  278.73        2956.00           1304          36.00       131.21
  278.76        2956.25           1307          37.00       135.57
  278.79        2956.50           1310          37.00       135.57
  278.82        2956.75           1314          35.00       126.85
  278.85        2957.00           1317          44.00       166.09
  278.89        2957.25           1320          41.00       153.01
  278.92        2957.50           1324          44.00       166.09
  278.95        2957.75           1327          39.00       144.29
  278.98        2958.00           1330          49.00       187.88
  279.01        2958.25           1334          45.00       170.45
  279.05        2958.50           1337          46.00       174.80
  279.08        2958.75           1340          49.00       187.88
  279.11        2959.00           1344          46.00       174.80
  279.14        2959.25           1347          55.00       214.04
  279.17        2959.50           1350          67.00       266.35
  279.21        2959.75           1354          99.00       405.85
  279.24        2960.00           1357         122.00       506.11
  279.27        2960.25           1360         170.00       715.36
  279.30        2960.50           1364         200.00       846.14
  279.33        2960.75           1367         244.00      1037.95
  279.36        2961.00           1370         290.00      1238.49
  279.40        2961.25           1373         339.00      1452.11
  279.43        2961.50           1377         719.00      3108.80
  279.46        2961.75           1380        1376.00      5973.50
  279.49        2962.00           1383        2551.00     11097.92
  279.52        2962.25           1387        4984.00     21713.25
  279.56        2962.50           1390        7035.00     30666.62
  279.59        2962.75           1393        9158.00     39938.86
  279.62        2963.00           1397       11795.00     51462.48
  279.65        2963.25           1400       13614.00     59415.64
  279.68        2963.50           1404       16156.00     70535.69
  279.72        2963.75           1407       18026.00     78720.32
  279.75        2964.00           1410       20004.00     87381.60
  279.78        2964.25           1414       22026.00     96239.72
  279.81        2964.50           1417       23687.00    103519.50
  279.84        2964.75           1420       25431.00    111166.20
  279.88        2965.00           1424       27585.00    120614.90
  279.91        2965.25           1427       29228.00    127825.30
  279.94        2965.50           1430       30701.00    134292.10
  279.97        2965.75           1434       33163.00    145105.80
  280.00        2966.00           1437       35052.00    153407.00
  280.04        2966.25           1440       37062.00    162244.10
  280.07        2966.50           1444       39058.00    171023.80
  280.10        2966.75           1447       39583.00    173333.70
  280.13        2967.00           1450       40105.00    175630.80
  280.16        2967.25           1454       40052.00    175397.60
  280.20        2967.50           1457       40100.00    175608.80
  280.23        2967.75           1460       39795.00    174266.60
  280.26        2968.00           1464       38667.00    169303.60
  280.29        2968.25           1467       37351.00    163515.00
  280.32        2968.50           1470       35700.00    156255.50
  280.35        2968.75           1474       33732.00    147605.90
  280.39        2969.00           1477       32198.00    140866.50
  280.42        2969.25           1480       30286.00    132469.90
  280.45        2969.50           1484       27552.00    120470.10
  280.48        2969.75           1487       25649.00    112122.30
  280.52        2970.00           1490       23677.00    103475.70
  280.55        2970.25           1494       21185.00     92554.89
  280.58        2970.50           1497       19378.00     84640.02
  280.61        2970.75           1500       17349.00     75756.81
  280.64        2971.00           1504       14808.00     64638.00
  280.68        2971.25           1507       13338.00     58208.67
  280.71        2971.50           1510       11593.00     50579.49
  280.74        2971.75           1514        9088.00     39633.06
  280.77        2972.00           1517        7194.00     31360.90
  280.80        2972.25           1520        5365.00     23376.13
  280.84        2972.50           1524        3108.00     13527.61
  280.87        2972.75           1527        1925.00      8367.63
  280.90        2973.00           1530         961.00      4163.94
  280.93        2973.25           1534         444.00      1909.86
  280.96        2973.50           1537         265.00      1129.50
  280.99        2973.75           1540         183.00       772.03
  281.03        2974.00           1544         136.00       567.14
  281.06        2974.25           1547         109.00       449.44
  281.09        2974.50           1550          81.00       327.38
  281.12        2974.75           1554          66.00       261.99
  281.15        2975.00           1557          55.00       214.04
  281.19        2975.25           1561          56.00       218.40
  281.22        2975.50           1564          55.00       214.04
  281.25        2975.75           1567          42.00       157.37
  281.28        2976.00           1571          38.00       139.93
  281.31        2976.25           1574          39.00       144.29
  281.34        2976.50           1577          46.00       174.80
  281.38        2976.75           1581          40.00       148.65
  281.41        2977.00           1584          39.00       144.29
  281.44        2977.25           1587          38.00       139.93
  281.47        2977.50           1591          37.00       135.57
  281.50        2977.75           1594          40.00       148.65
  281.54        2978.00           1597          36.00       131.21
  281.57        2978.25           1601          38.00       139.93
  281.60        2978.50           1604          33.00       118.13
  281.63        2978.75           1607          32.00       113.78
  281.66        2979.00           1611          35.00       126.85
  281.69        2979.25           1614          34.00       122.49
  281.72        2979.50           1617          34.00       122.49
  281.76        2979.75           1621          35.00       126.85
  281.79        2980.00           1624          37.00       135.57
  281.82        2980.25           1628          37.00       135.57
  281.85        2980.50           1631          32.00       113.78
  281.88        2980.75           1634          34.00       122.49
  281.91        2981.00           1638          34.00       122.49
  281.95        2981.25           1641          36.00       131.21
  281.98        2981.50           1644          31.00       109.42
  282.01        2981.75           1648          34.00       122.49
  282.04        2982.00           1651          38.00       139.93
  282.07        2982.25           1654          27.00        91.98
  282.11        2982.50           1658          34.00       122.49
  282.14        2982.75           1661          31.00       109.42
  282.17        2983.00           1664          31.00       109.42
  282.20        2983.25           1668          30.00       105.06
  282.23        2983.50           1671          33.00       118.13
  282.26        2983.75           1674          26.00        87.62
  282.30        2984.00           1678          35.00       126.85
HS scan finished at 04:42:31
end
************************************************************
  HS Scan of (1) Internal mercury lamp
************************************************************
Integration time is 0.2294 seconds per sample
dh010619Izana 28.3081 16.4992 2.857833pr770
************************************************************
Dead Time -------------------------  2.7E-08 
Number of Cycles Used -------------  4 
Starting Wavelength (Angstroms) ---  2950 
Final Wavelength (Angstoms) -------  2984 
Wavelength Increment (Angstroms) --  .25 
Filter Wheel #1 Position ---------- (1) Ground quartz diffuser (ND=2.32)
Filter Wheel #2 Position ---------- (1) Neutral Density 0.494



************************************************************
HS scan start time = 21:46:21
Dark Count =  6.1 


Time (GMT)  Wavelength (Ang)  Step Number  Raw Counts  Counts/Second

 1306.67        2950.00           1224          32.00       112.90
 1306.74        2950.25           1227          30.00       104.19
 1306.77        2950.50           1230          27.00        91.11
 1306.80        2950.75           1234          31.00       108.54
 1306.83        2951.00           1237          32.00       112.90
 1306.87        2951.25           1240          34.00       121.62
 1306.90        2951.50           1244          33.00       117.26
 1306.93        2951.75           1247          28.00        95.47
 1306.96        2952.00           1250          37.00       134.70
 1306.99        2952.25           1254          33.00       117.26
 1307.02        2952.50           1257          37.00       134.70
 1307.06        2952.75           1260          34.00       121.62
 1307.09        2953.00           1264          33.00       117.26
 1307.12        2953.25           1267          30.00       104.19
 1307.15        2953.50           1270          33.00       117.26
 1307.18        2953.75           1274          35.00       125.98
 1307.21        2954.00           1277          39.00       143.42
 1307.25        2954.25           1280          39.00       143.42
 1307.28        2954.50           1284          37.00       134.70
 1307.31        2954.75           1287          30.00       104.19
 1307.34        2955.00           1290          34.00       121.62
 1307.37        2955.25           1294          37.00       134.70
 1307.41        2955.50           1297          30.00       104.19
 1307.44        2955.75           1300          34.00       121.62
 1307.47        2956.00           1304          34.00       121.62
 1307.50        2956.25           1307          45.00       169.57
 1307.53        2956.50           1310          31.00       108.54
 1307.56        2956.75           1314          40.00       147.78
 1307.60        2957.00           1317          37.00       134.70
 1307.63        2957.25           1320          38.00       139.06
 1307.66        2957.50           1324          37.00       134.70
 1307.69        2957.75           1327          37.00       134.70
 1307.73        2958.00           1330          40.00       147.78
 1307.76        2958.25           1334          39.00       143.42
 1307.79        2958.50           1337          45.00       169.57
 1307.82        2958.75           1340          45.00       169.57
 1307.85        2959.00           1344          44.00       165.21
 1307.88        2959.25           1347          58.00       226.24
 1307.92        2959.50           1350          73.00       291.63
 1307.95        2959.75           1354          91.00       370.10
 1307.98        2960.00           1357         143.00       596.78
 1308.02        2960.25           1360         167.00       701.41
 1308.06        2960.50           1364         214.00       906.30
 1308.10        2960.75           1367         237.00      1006.57
 1308.14        2961.00           1370         288.00      1228.90
 1308.18        2961.25           1373         353.00      1512.27
 1308.21        2961.50           1377         874.00      3783.73
 1308.24        2961.75           1380        1633.00      7093.34
 1308.28        2962.00           1383        2850.00     12401.28
 1308.32        2962.25           1387        4786.00     20848.26
 1308.35        2962.50           1390        6358.00     27709.91
 1308.38        2962.75           1393        8207.00     35783.91
 1308.42        2963.00           1397       10960.00     47811.90
 1308.46        2963.25           1400       13190.00     57560.62
 1308.50        2963.50           1404       15909.00     69454.02
 1308.54        2963.75           1407       17765.00     77576.88
 1308.59        2964.00           1410       19293.00     84266.93
 1308.63        2964.25           1414       21720.00     94898.03
 1308.66        2964.50           1417       23393.00    102229.90
 1308.70        2964.75           1420       25337.00    110753.10
 1308.73        2965.00           1424       28071.00    122746.60
 1308.76        2965.25           1427       30216.00    132161.70
 1308.79        2965.50           1430       31886.00    139495.20
 1308.82        2965.75           1434       34430.00    150672.30
 1308.85        2966.00           1437       36050.00    157793.30
 1308.89        2966.25           1440       37851.00    165713.20
 1308.92        2966.50           1444       39932.00    174868.60
 1308.95        2966.75           1447       40522.00    177465.10
 1308.98        2967.00           1450       40954.00    179366.60
 1309.02        2967.25           1454       40958.00    179384.20
 1309.05        2967.50           1457       41033.00    179714.30
 1309.08        2967.75           1460       40954.00    179366.60
 1309.11        2968.00           1464       39932.00    174868.60
 1309.14        2968.25           1467       38909.00    170367.30
 1309.17        2968.50           1470       37177.00    162748.90
 1309.21        2968.75           1474       34717.00    151933.70
 1309.24        2969.00           1477       32837.00    143672.60
 1309.27        2969.25           1480       30976.00    135498.70
 1309.30        2969.50           1484       28481.00    124545.80
 1309.33        2969.75           1487       26682.00    116652.40
 1309.37        2970.00           1490       25110.00    109757.70
 1309.40        2970.25           1494       22440.00     98053.06
 1309.43        2970.50           1497       20684.00     90359.25
 1309.46        2970.75           1500       18558.00     81048.57
 1309.49        2971.00           1504       15644.00     68294.52
 1309.52        2971.25           1507       13813.00     60285.06
 1309.56        2971.50           1510       12014.00     52418.96
 1309.59        2971.75           1514        9673.00     42187.96
 1309.62        2972.00           1517        7873.00     34325.17
 1309.65        2972.25           1520        5910.00     25754.17
 1309.68        2972.50           1524        3339.00     14534.47
 1309.72        2972.75           1527        1816.00      7891.39
 1309.75        2973.00           1530         934.00      4045.34
 1309.78        2973.25           1534         430.00      1847.96
 1309.81        2973.50           1537         273.00      1163.51
 1309.84        2973.75           1540         214.00       906.30
 1309.87        2974.00           1544         158.00       662.17
 1309.91        2974.25           1547         126.00       522.68
 1309.94        2974.50           1550          93.00       378.82
 1309.97        2974.75           1554          63.00       248.04
 1310.00        2975.00           1557          53.00       204.45
 1310.03        2975.25           1561          54.00       208.81
 1310.06        2975.50           1564          50.00       191.37
 1310.10        2975.75           1567          44.00       165.21
 1310.13        2976.00           1571          44.00       165.21
 1310.16        2976.25           1574          42.00       156.50
 1310.19        2976.50           1577          51.00       195.73
 1310.22        2976.75           1581          44.00       165.21
 1310.25        2977.00           1584          40.00       147.78
 1310.29        2977.25           1587          40.00       147.78
 1310.32        2977.50           1591          39.00       143.42
 1310.35        2977.75           1594          40.00       147.78
 1310.38        2978.00           1597          35.00       125.98
 1310.42        2978.25           1601          41.00       152.14
 1310.45        2978.50           1604          35.00       125.98
 1310.48        2978.75           1607          42.00       156.50
 1310.51        2979.00           1611          33.00       117.26
 1310.54        2979.25           1614          35.00       125.98
 1310.57        2979.50           1617          32.00       112.90
 1310.61        2979.75           1621          28.00        95.47
 1310.64        2980.00           1624          31.00       108.54
 1310.67        2980.25           1628          33.00       117.26
 1310.70        2980.50           1631          34.00       121.62
 1310.73        2980.75           1634          36.00       130.34
 1310.77        2981.00           1638          34.00       121.62
 1310.80        2981.25           1641          39.00       143.42
 1310.83        2981.50           1644          26.00        86.75
 1310.86        2981.75           1648          34.00       121.62
 1310.89        2982.00           1651          34.00       121.62
 1310.93        2982.25           1654          31.00       108.54
 1310.96        2982.50           1658          29.00        99.83
 1310.99        2982.75           1661          27.00        91.11
 1311.02        2983.00           1664          31.00       108.54
 1311.05        2983.25           1668          32.00       112.90
 1311.08        2983.50           1671          31.00       108.54
 1311.11        2983.75           1674          29.00        99.83
 1311.15        2984.00           1678          35.00       125.98
HS scan finished at 21:51:22
end
