************************************************************
  HS Scan of (1) Internal mercury lamp
************************************************************
Integration time is 0.2294 seconds per sample
dh310519Izana 28.3081 16.4992 2.857833pr770
************************************************************
Dead Time -------------------------  2.7E-08 
Number of Cycles Used -------------  4 
Starting Wavelength (Angstroms) ---  2950 
Final Wavelength (Angstoms) -------  2984 
Wavelength Increment (Angstroms) --  .25 
Filter Wheel #1 Position ---------- (1) Ground quartz diffuser (ND=2.32)
Filter Wheel #2 Position ---------- (1) Neutral Density 0.494



************************************************************
HS scan start time = 04:38:03
Dark Count =  6 


Time (GMT)  Wavelength (Ang)  Step Number  Raw Counts  Counts/Second

  278.38        2950.00           1224          26.00        87.18
  278.44        2950.25           1227          31.00       108.98
  278.48        2950.50           1230          29.00       100.26
  278.51        2950.75           1234          30.00       104.62
  278.54        2951.00           1237          34.00       122.06
  278.57        2951.25           1240          30.00       104.62
  278.60        2951.50           1244          24.00        78.47
  278.63        2951.75           1247          33.00       117.70
  278.66        2952.00           1250          29.00       100.26
  278.70        2952.25           1254          32.00       113.34
  278.73        2952.50           1257          28.00        95.90
  278.76        2952.75           1260          31.00       108.98
  278.79        2953.00           1264          27.00        91.54
  278.82        2953.25           1267          29.00       100.26
  278.85        2953.50           1270          33.00       117.70
  278.89        2953.75           1274          24.00        78.47
  278.92        2954.00           1277          24.00        78.47
  278.95        2954.25           1280          33.00       117.70
  278.98        2954.50           1284          30.00       104.62
  279.01        2954.75           1287          25.00        82.82
  279.04        2955.00           1290          27.00        91.54
  279.07        2955.25           1294          29.00       100.26
  279.11        2955.50           1297          35.00       126.42
  279.14        2955.75           1300          25.00        82.82
  279.17        2956.00           1304          39.00       143.85
  279.20        2956.25           1307          34.00       122.06
  279.23        2956.50           1310          42.00       156.93
  279.26        2956.75           1314          38.00       139.49
  279.29        2957.00           1317          35.00       126.42
  279.33        2957.25           1320          43.00       161.29
  279.36        2957.50           1324          40.00       148.21
  279.39        2957.75           1327          44.00       165.65
  279.42        2958.00           1330          37.00       135.14
  279.45        2958.25           1334          41.00       152.57
  279.48        2958.50           1337          40.00       148.21
  279.51        2958.75           1340          39.00       143.85
  279.55        2959.00           1344          44.00       165.65
  279.58        2959.25           1347          50.00       191.81
  279.61        2959.50           1350          65.00       257.19
  279.64        2959.75           1354          86.00       348.74
  279.67        2960.00           1357         122.00       505.67
  279.70        2960.25           1360         150.00       627.74
  279.74        2960.50           1364         183.00       771.59
  279.77        2960.75           1367         243.00      1033.16
  279.80        2961.00           1370         284.00      1211.90
  279.83        2961.25           1373         332.00      1421.15
  279.86        2961.50           1377         695.00      3003.73
  279.89        2961.75           1380        1522.00      6609.72
  279.92        2962.00           1383        2896.00     12602.37
  279.96        2962.25           1387        5213.00     22712.27
  279.99        2962.50           1390        6961.00     30343.07
  280.02        2962.75           1393        8510.00     37107.78
  280.05        2963.00           1397       10826.00     47226.71
  280.08        2963.25           1400       12823.00     55956.32
  280.11        2963.50           1404       15533.00     67809.30
  280.15        2963.75           1407       17436.00     76137.18
  280.18        2964.00           1410       19285.00     84232.33
  280.21        2964.25           1414       21543.00     94122.94
  280.24        2964.50           1417       23279.00    101730.70
  280.27        2964.75           1420       25195.00    110130.80
  280.31        2965.00           1424       27389.00    119754.50
  280.34        2965.25           1427       29101.00    127267.40
  280.37        2965.50           1430       30779.00    134634.10
  280.40        2965.75           1434       33066.00    144679.20
  280.43        2966.00           1437       34735.00    152013.20
  280.46        2966.25           1440       36347.00    159099.60
  280.50        2966.50           1444       37847.00    165696.00
  280.53        2966.75           1447       38775.00    169778.20
  280.56        2967.00           1450       39118.00    171287.30
  280.59        2967.25           1454       39191.00    171608.50
  280.62        2967.50           1457       39529.00    173095.70
  280.65        2967.75           1460       38969.00    170631.70
  280.69        2968.00           1464       37812.00    165542.10
  280.72        2968.25           1467       36679.00    160559.40
  280.75        2968.50           1470       35222.00    154153.80
  280.78        2968.75           1474       32955.00    144191.50
  280.81        2969.00           1477       31309.00    136961.50
  280.84        2969.25           1480       29417.00    128654.50
  280.87        2969.50           1484       26909.00    117648.60
  280.91        2969.75           1487       25218.00    110231.70
  280.94        2970.00           1490       23429.00    102388.20
  280.97        2970.25           1494       21250.00     92839.24
  281.00        2970.50           1497       19268.00     84157.89
  281.03        2970.75           1500       17261.00     75371.18
  281.07        2971.00           1504       14521.00     63382.14
  281.10        2971.25           1507       12730.00     55549.69
  281.13        2971.50           1510       10829.00     47239.82
  281.16        2971.75           1514        8805.00     38396.37
  281.19        2972.00           1517        7182.00     31308.06
  281.23        2972.25           1520        5423.00     23628.85
  281.26        2972.50           1524        3274.00     14251.34
  281.29        2972.75           1527        2046.00      8894.90
  281.32        2973.00           1530         867.00      3753.65
  281.35        2973.25           1534         377.00      1617.33
  281.38        2973.50           1537         241.00      1024.44
  281.41        2973.75           1540         189.00       797.75
  281.45        2974.00           1544         138.00       575.42
  281.48        2974.25           1547         117.00       483.88
  281.51        2974.50           1550          75.00       300.79
  281.54        2974.75           1554          53.00       204.88
  281.57        2975.00           1557          54.00       209.24
  281.60        2975.25           1561          48.00       183.09
  281.64        2975.50           1564          44.00       165.65
  281.67        2975.75           1567          42.00       156.93
  281.70        2976.00           1571          44.00       165.65
  281.73        2976.25           1574          42.00       156.93
  281.76        2976.50           1577          39.00       143.85
  281.79        2976.75           1581          33.00       117.70
  281.82        2977.00           1584          36.00       130.78
  281.85        2977.25           1587          33.00       117.70
  281.89        2977.50           1591          39.00       143.85
  281.92        2977.75           1594          36.00       130.78
  281.95        2978.00           1597          35.00       126.42
  281.98        2978.25           1601          36.00       130.78
  282.01        2978.50           1604          31.00       108.98
  282.04        2978.75           1607          31.00       108.98
  282.07        2979.00           1611          31.00       108.98
  282.11        2979.25           1614          46.00       174.37
  282.14        2979.50           1617          27.00        91.54
  282.17        2979.75           1621          29.00       100.26
  282.20        2980.00           1624          33.00       117.70
  282.23        2980.25           1628          31.00       108.98
  282.26        2980.50           1631          36.00       130.78
  282.30        2980.75           1634          28.00        95.90
  282.33        2981.00           1638          27.00        91.54
  282.36        2981.25           1641          29.00       100.26
  282.39        2981.50           1644          26.00        87.18
  282.42        2981.75           1648          25.00        82.82
  282.45        2982.00           1651          25.00        82.82
  282.48        2982.25           1654          32.00       113.34
  282.52        2982.50           1658          27.00        91.54
  282.55        2982.75           1661          29.00       100.26
  282.58        2983.00           1664          31.00       108.98
  282.61        2983.25           1668          29.00       100.26
  282.64        2983.50           1671          27.00        91.54
  282.67        2983.75           1674          28.00        95.90
  282.71        2984.00           1678          27.00        91.54
HS scan finished at 04:42:56
end
************************************************************
  HS Scan of (1) Internal mercury lamp
************************************************************
Integration time is 0.2294 seconds per sample
dh310519Izana 28.3081 16.4992 2.911481pr770
************************************************************
Dead Time -------------------------  2.7E-08 
Number of Cycles Used -------------  4 
Starting Wavelength (Angstroms) ---  2950 
Final Wavelength (Angstoms) -------  2984 
Wavelength Increment (Angstroms) --  .25 
Filter Wheel #1 Position ---------- (1) Ground quartz diffuser (ND=2.32)
Filter Wheel #2 Position ---------- (1) Neutral Density 0.494



************************************************************
HS scan start time = 21:46:21
Dark Count =  6.1 


Time (GMT)  Wavelength (Ang)  Step Number  Raw Counts  Counts/Second

 1306.68        2950.00           1224          28.00        95.47
 1306.75        2950.25           1227          37.00       134.70
 1306.78        2950.50           1230          29.00        99.83
 1306.81        2950.75           1234          26.00        86.75
 1306.84        2951.00           1237          24.00        78.03
 1306.87        2951.25           1240          32.00       112.90
 1306.90        2951.50           1244          27.00        91.11
 1306.94        2951.75           1247          30.00       104.19
 1306.97        2952.00           1250          31.00       108.54
 1307.00        2952.25           1254          29.00        99.83
 1307.03        2952.50           1257          31.00       108.54
 1307.06        2952.75           1260          26.00        86.75
 1307.09        2953.00           1264          25.00        82.39
 1307.13        2953.25           1267          29.00        99.83
 1307.16        2953.50           1270          26.00        86.75
 1307.19        2953.75           1274          32.00       112.90
 1307.22        2954.00           1277          24.00        78.03
 1307.25        2954.25           1280          31.00       108.54
 1307.28        2954.50           1284          31.00       108.54
 1307.31        2954.75           1287          29.00        99.83
 1307.35        2955.00           1290          40.00       147.78
 1307.38        2955.25           1294          30.00       104.19
 1307.41        2955.50           1297          33.00       117.26
 1307.44        2955.75           1300          30.00       104.19
 1307.47        2956.00           1304          33.00       117.26
 1307.51        2956.25           1307          33.00       117.26
 1307.54        2956.50           1310          37.00       134.70
 1307.57        2956.75           1314          34.00       121.62
 1307.60        2957.00           1317          34.00       121.62
 1307.63        2957.25           1320          35.00       125.98
 1307.66        2957.50           1324          41.00       152.14
 1307.70        2957.75           1327          28.00        95.47
 1307.73        2958.00           1330          43.00       160.86
 1307.76        2958.25           1334          38.00       139.06
 1307.79        2958.50           1337          37.00       134.70
 1307.82        2958.75           1340          43.00       160.86
 1307.86        2959.00           1344          36.00       130.34
 1307.89        2959.25           1347          55.00       213.17
 1307.92        2959.50           1350          61.00       239.32
 1307.95        2959.75           1354          88.00       357.02
 1307.98        2960.00           1357         119.00       492.16
 1308.02        2960.25           1360         147.00       614.22
 1308.06        2960.50           1364         193.00       814.75
 1308.10        2960.75           1367         226.00       958.61
 1308.15        2961.00           1370         268.00      1141.71
 1308.18        2961.25           1373         357.00      1529.71
 1308.21        2961.50           1377         851.00      3683.45
 1308.25        2961.75           1380        1583.00      6875.30
 1308.28        2962.00           1383        2870.00     12488.52
 1308.32        2962.25           1387        4939.00     21515.99
 1308.35        2962.50           1390        6460.00     28155.22
 1308.39        2962.75           1393        7995.00     34857.99
 1308.43        2963.00           1397       10358.00     45181.07
 1308.47        2963.25           1400       12366.00     53957.81
 1308.52        2963.50           1404       14899.00     65035.20
 1308.56        2963.75           1407       16756.00     73160.51
 1308.61        2964.00           1410       18509.00     80834.03
 1308.64        2964.25           1414       20664.00     90271.63
 1308.67        2964.50           1417       22365.00     97724.38
 1308.71        2964.75           1420       24237.00    105929.80
 1308.74        2965.00           1424       26310.00    115020.60
 1308.77        2965.25           1427       28232.00    123453.10
 1308.80        2965.50           1430       30168.00    131951.00
 1308.84        2965.75           1434       32743.00    143259.70
 1308.87        2966.00           1437       34291.00    150061.40
 1308.90        2966.25           1440       35867.00    156988.80
 1308.93        2966.50           1444       37603.00    164622.40
 1308.96        2966.75           1447       38365.00    167974.10
 1308.99        2967.00           1450       38657.00    169258.70
 1309.03        2967.25           1454       38946.00    170530.10
 1309.06        2967.50           1457       39046.00    170970.10
 1309.09        2967.75           1460       38944.00    170521.30
 1309.12        2968.00           1464       38023.00    166469.70
 1309.15        2968.25           1467       36915.00    161596.70
 1309.19        2968.50           1470       35195.00    154034.70
 1309.22        2968.75           1474       33254.00    145504.70
 1309.25        2969.00           1477       31406.00    137387.10
 1309.28        2969.25           1480       29360.00    128403.90
 1309.31        2969.50           1484       26776.00    117064.70
 1309.35        2969.75           1487       24989.00    109227.10
 1309.38        2970.00           1490       23192.00    101348.90
 1309.41        2970.25           1494       21033.00     91888.11
 1309.44        2970.50           1497       19284.00     84227.52
 1309.47        2970.75           1500       17626.00     76968.43
 1309.51        2971.00           1504       15013.00     65533.91
 1309.54        2971.25           1507       13127.00     57285.14
 1309.57        2971.50           1510       11226.00     48974.49
 1309.60        2971.75           1514        8911.00     38858.97
 1309.63        2972.00           1517        7249.00     31600.18
 1309.66        2972.25           1520        5692.00     24802.57
 1309.70        2972.50           1524        3192.00     13893.18
 1309.73        2972.75           1527        1739.00      7555.59
 1309.76        2973.00           1530         840.00      3635.49
 1309.79        2973.25           1534         342.00      1464.31
 1309.82        2973.50           1537         252.00      1071.96
 1309.86        2973.75           1540         207.00       875.78
 1309.89        2974.00           1544         139.00       579.35
 1309.92        2974.25           1547         123.00       509.60
 1309.95        2974.50           1550          96.00       391.90
 1309.98        2974.75           1554          62.00       243.68
 1310.01        2975.00           1557          51.00       195.73
 1310.05        2975.25           1561          57.00       221.88
 1310.08        2975.50           1564          45.00       169.57
 1310.11        2975.75           1567          42.00       156.50
 1310.14        2976.00           1571          41.00       152.14
 1310.17        2976.25           1574          32.00       112.90
 1310.20        2976.50           1577          35.00       125.98
 1310.24        2976.75           1581          36.00       130.34
 1310.27        2977.00           1584          35.00       125.98
 1310.30        2977.25           1587          30.00       104.19
 1310.33        2977.50           1591          32.00       112.90
 1310.36        2977.75           1594          40.00       147.78
 1310.40        2978.00           1597          34.00       121.62
 1310.43        2978.25           1601          32.00       112.90
 1310.46        2978.50           1604          29.00        99.83
 1310.49        2978.75           1607          36.00       130.34
 1310.52        2979.00           1611          31.00       108.54
 1310.55        2979.25           1614          32.00       112.90
 1310.59        2979.50           1617          26.00        86.75
 1310.62        2979.75           1621          27.00        91.11
 1310.65        2980.00           1624          35.00       125.98
 1310.68        2980.25           1628          30.00       104.19
 1310.71        2980.50           1631          35.00       125.98
 1310.75        2980.75           1634          29.00        99.83
 1310.78        2981.00           1638          27.00        91.11
 1310.81        2981.25           1641          28.00        95.47
 1310.84        2981.50           1644          29.00        99.83
 1310.87        2981.75           1648          23.00        73.67
 1310.90        2982.00           1651          33.00       117.26
 1310.93        2982.25           1654          32.00       112.90
 1310.97        2982.50           1658          30.00       104.19
 1311.00        2982.75           1661          24.00        78.03
 1311.03        2983.00           1664          26.00        86.75
 1311.06        2983.25           1668          24.00        78.03
 1311.09        2983.50           1671          27.00        91.11
 1311.12        2983.75           1674          31.00       108.54
 1311.16        2984.00           1678          27.00        91.11
HS scan finished at 21:51:23
end
