************************************************************
  HS Scan of (1) Internal mercury lamp
************************************************************
Integration time is 0.2294 seconds per sample
dh070619Izana 28.3081 16.4992 2.965129pr770
************************************************************
Dead Time -------------------------  2.7E-08 
Number of Cycles Used -------------  4 
Starting Wavelength (Angstroms) ---  2950 
Final Wavelength (Angstoms) -------  2984 
Wavelength Increment (Angstroms) --  .25 
Filter Wheel #1 Position ---------- (1) Ground quartz diffuser (ND=2.32)
Filter Wheel #2 Position ---------- (1) Neutral Density 0.494



************************************************************
HS scan start time = 04:36:07
Dark Count =  5.9 


Time (GMT)  Wavelength (Ang)  Step Number  Raw Counts  Counts/Second

  276.44        2950.00           1224          32.00       113.78
  276.51        2950.25           1227          36.00       131.21
  276.54        2950.50           1230          31.00       109.42
  276.58        2950.75           1234          31.00       109.42
  276.61        2951.00           1237          33.00       118.13
  276.64        2951.25           1240          29.00       100.70
  276.67        2951.50           1244          37.00       135.57
  276.70        2951.75           1247          31.00       109.42
  276.73        2952.00           1250          30.00       105.06
  276.76        2952.25           1254          32.00       113.78
  276.80        2952.50           1257          40.00       148.65
  276.83        2952.75           1260          32.00       113.78
  276.86        2953.00           1264          31.00       109.42
  276.89        2953.25           1267          32.00       113.78
  276.92        2953.50           1270          32.00       113.78
  276.95        2953.75           1274          33.00       118.13
  276.98        2954.00           1277          32.00       113.78
  277.02        2954.25           1280          32.00       113.78
  277.05        2954.50           1284          32.00       113.78
  277.08        2954.75           1287          30.00       105.06
  277.11        2955.00           1290          32.00       113.78
  277.14        2955.25           1294          28.00        96.34
  277.17        2955.50           1297          37.00       135.57
  277.20        2955.75           1300          47.00       179.16
  277.24        2956.00           1304          33.00       118.13
  277.27        2956.25           1307          36.00       131.21
  277.30        2956.50           1310          39.00       144.29
  277.33        2956.75           1314          45.00       170.45
  277.36        2957.00           1317          37.00       135.57
  277.39        2957.25           1320          40.00       148.65
  277.42        2957.50           1324          34.00       122.49
  277.46        2957.75           1327          50.00       192.24
  277.49        2958.00           1330          47.00       179.16
  277.52        2958.25           1334          40.00       148.65
  277.55        2958.50           1337          42.00       157.37
  277.58        2958.75           1340          43.00       161.73
  277.61        2959.00           1344          51.00       196.60
  277.65        2959.25           1347          65.00       257.63
  277.68        2959.50           1350          73.00       292.50
  277.71        2959.75           1354          85.00       344.82
  277.74        2960.00           1357         124.00       514.83
  277.77        2960.25           1360         162.00       680.48
  277.80        2960.50           1364         205.00       867.94
  277.84        2960.75           1367         249.00      1059.75
  277.87        2961.00           1370         292.00      1247.21
  277.90        2961.25           1373         320.00      1369.27
  277.93        2961.50           1377         648.00      2799.25
  277.96        2961.75           1380        1470.00      6383.40
  277.99        2962.00           1383        2852.00     12410.87
  278.03        2962.25           1387        5123.00     22319.90
  278.06        2962.50           1390        7318.00     31902.36
  278.09        2962.75           1393        9413.00     41052.89
  278.12        2963.00           1397       12165.00     53079.94
  278.15        2963.25           1400       14214.00     62039.75
  278.18        2963.50           1404       16552.00     72268.60
  278.21        2963.75           1407       18206.00     79508.33
  278.25        2964.00           1410       20156.00     88047.34
  278.28        2964.25           1414       22228.00     97124.90
  278.31        2964.50           1417       24121.00    105422.10
  278.34        2964.75           1420       25739.00    112517.00
  278.37        2965.00           1424       28059.00    122694.80
  278.41        2965.25           1427       29817.00    130410.90
  278.44        2965.50           1430       31993.00    139966.00
  278.47        2965.75           1434       34172.00    149539.40
  278.50        2966.00           1437       36424.00    159438.60
  278.53        2966.25           1440       38194.00    167222.80
  278.56        2966.50           1444       40046.00    175371.20
  278.60        2966.75           1447       40988.00    179517.10
  278.63        2967.00           1450       41111.00    180058.50
  278.66        2967.25           1454       41569.00    182074.70
  278.69        2967.50           1457       41535.00    181925.00
  278.72        2967.75           1460       41486.00    181709.30
  278.76        2968.00           1464       40407.00    176959.90
  278.79        2968.25           1467       39147.00    171415.30
  278.82        2968.50           1470       37768.00    165349.00
  278.85        2968.75           1474       35260.00    154321.30
  278.88        2969.00           1477       33345.00    145905.40
  278.91        2969.25           1480       31335.00    137076.10
  278.95        2969.50           1484       28519.00    124713.50
  278.98        2969.75           1487       26705.00    116754.10
  279.01        2970.00           1490       24852.00    108627.20
  279.04        2970.25           1494       22191.00     96962.76
  279.07        2970.50           1497       20465.00     89400.81
  279.10        2970.75           1500       18487.00     80738.60
  279.14        2971.00           1504       16044.00     70045.60
  279.17        2971.25           1507       13965.00     60950.70
  279.20        2971.50           1510       11798.00     51475.59
  279.23        2971.75           1514        9560.00     41695.13
  279.26        2972.00           1517        7701.00     33574.89
  279.30        2972.25           1520        6036.00     26305.08
  279.33        2972.50           1524        4126.00     17969.05
  279.36        2972.75           1527        2718.00     11826.36
  279.39        2973.00           1530        1261.00      5472.04
  279.42        2973.25           1534         498.00      2145.29
  279.45        2973.50           1537         277.00      1181.82
  279.48        2973.75           1540         200.00       846.14
  279.51        2974.00           1544         145.00       606.37
  279.55        2974.25           1547         119.00       493.03
  279.58        2974.50           1550          85.00       344.82
  279.61        2974.75           1554          62.00       244.55
  279.64        2975.00           1557          61.00       240.19
  279.67        2975.25           1561          49.00       187.88
  279.71        2975.50           1564          49.00       187.88
  279.74        2975.75           1567          39.00       144.29
  279.77        2976.00           1571          48.00       183.52
  279.80        2976.25           1574          44.00       166.09
  279.83        2976.50           1577          49.00       187.88
  279.86        2976.75           1581          38.00       139.93
  279.89        2977.00           1584          40.00       148.65
  279.93        2977.25           1587          40.00       148.65
  279.96        2977.50           1591          32.00       113.78
  279.99        2977.75           1594          35.00       126.85
  280.02        2978.00           1597          41.00       153.01
  280.05        2978.25           1601          34.00       122.49
  280.08        2978.50           1604          36.00       131.21
  280.11        2978.75           1607          42.00       157.37
  280.14        2979.00           1611          28.00        96.34
  280.18        2979.25           1614          42.00       157.37
  280.21        2979.50           1617          32.00       113.78
  280.24        2979.75           1621          34.00       122.49
  280.27        2980.00           1624          31.00       109.42
  280.30        2980.25           1628          30.00       105.06
  280.33        2980.50           1631          30.00       105.06
  280.36        2980.75           1634          35.00       126.85
  280.40        2981.00           1638          33.00       118.13
  280.43        2981.25           1641          34.00       122.49
  280.46        2981.50           1644          37.00       135.57
  280.49        2981.75           1648          33.00       118.13
  280.52        2982.00           1651          29.00       100.70
  280.55        2982.25           1654          30.00       105.06
  280.59        2982.50           1658          31.00       109.42
  280.62        2982.75           1661          29.00       100.70
  280.65        2983.00           1664          36.00       131.21
  280.68        2983.25           1668          35.00       126.85
  280.71        2983.50           1671          29.00       100.70
  280.74        2983.75           1674          34.00       122.49
  280.77        2984.00           1678          28.00        96.34
HS scan finished at 04:41:00
end
************************************************************
  HS Scan of (1) Internal mercury lamp
************************************************************
Integration time is 0.2294 seconds per sample
dh070619Izana 28.3081 16.4992 2.857833pr770
************************************************************
Dead Time -------------------------  2.7E-08 
Number of Cycles Used -------------  4 
Starting Wavelength (Angstroms) ---  2950 
Final Wavelength (Angstoms) -------  2984 
Wavelength Increment (Angstroms) --  .25 
Filter Wheel #1 Position ---------- (1) Ground quartz diffuser (ND=2.32)
Filter Wheel #2 Position ---------- (1) Neutral Density 0.494



************************************************************
HS scan start time = 22:24:28
Dark Count =  6.3 


Time (GMT)  Wavelength (Ang)  Step Number  Raw Counts  Counts/Second

 1344.80        2950.00           1224          32.00       112.03
 1344.86        2950.25           1227          27.00        90.24
 1344.89        2950.50           1230          32.00       112.03
 1344.93        2950.75           1234          34.00       120.75
 1344.96        2951.00           1237          38.00       138.19
 1344.99        2951.25           1240          30.00       103.31
 1345.02        2951.50           1244          31.00       107.67
 1345.05        2951.75           1247          42.00       155.62
 1345.08        2952.00           1250          35.00       125.11
 1345.12        2952.25           1254          38.00       138.19
 1345.15        2952.50           1257          33.00       116.39
 1345.18        2952.75           1260          32.00       112.03
 1345.21        2953.00           1264          37.00       133.83
 1345.24        2953.25           1267          29.00        98.95
 1345.27        2953.50           1270          25.00        81.52
 1345.30        2953.75           1274          32.00       112.03
 1345.34        2954.00           1277          28.00        94.59
 1345.37        2954.25           1280          29.00        98.95
 1345.40        2954.50           1284          35.00       125.11
 1345.43        2954.75           1287          39.00       142.55
 1345.46        2955.00           1290          27.00        90.24
 1345.49        2955.25           1294          35.00       125.11
 1345.53        2955.50           1297          34.00       120.75
 1345.56        2955.75           1300          32.00       112.03
 1345.59        2956.00           1304          30.00       103.31
 1345.62        2956.25           1307          40.00       146.91
 1345.65        2956.50           1310          30.00       103.31
 1345.68        2956.75           1314          33.00       116.39
 1345.71        2957.00           1317          33.00       116.39
 1345.75        2957.25           1320          46.00       173.06
 1345.78        2957.50           1324          36.00       129.47
 1345.81        2957.75           1327          41.00       151.26
 1345.84        2958.00           1330          40.00       146.91
 1345.87        2958.25           1334          43.00       159.98
 1345.90        2958.50           1337          46.00       173.06
 1345.93        2958.75           1340          49.00       186.14
 1345.97        2959.00           1344          51.00       194.86
 1346.00        2959.25           1347          50.00       190.50
 1346.03        2959.50           1350          70.00       277.68
 1346.06        2959.75           1354         100.00       408.46
 1346.09        2960.00           1357         128.00       530.52
 1346.12        2960.25           1360         155.00       648.22
 1346.16        2960.50           1364         185.00       779.01
 1346.19        2960.75           1367         246.00      1044.93
 1346.22        2961.00           1370         272.00      1158.28
 1346.25        2961.25           1373         323.00      1380.61
 1346.28        2961.50           1377         821.00      3551.78
 1346.31        2961.75           1380        1577.00      6848.26
 1346.34        2962.00           1383        2635.00     11462.57
 1346.38        2962.25           1387        4528.00     19721.49
 1346.41        2962.50           1390        6242.00     27202.62
 1346.44        2962.75           1393        8198.00     35743.72
 1346.47        2963.00           1397       10914.00     47609.99
 1346.50        2963.25           1400       12984.00     56658.98
 1346.54        2963.50           1404       15711.00     68586.80
 1346.57        2963.75           1407       17063.00     74503.25
 1346.60        2964.00           1410       18745.00     81866.46
 1346.63        2964.25           1414       21145.00     92377.89
 1346.66        2964.50           1417       23083.00    100870.20
 1346.69        2964.75           1420       25065.00    109559.50
 1346.73        2965.00           1424       27695.00    121095.80
 1346.76        2965.25           1427       29236.00    127858.70
 1346.79        2965.50           1430       31210.00    136525.40
 1346.82        2965.75           1434       33454.00    146382.60
 1346.85        2966.00           1437       35220.00    154143.70
 1346.88        2966.25           1440       37078.00    162312.60
 1346.92        2966.50           1444       38966.00    170617.20
 1346.95        2966.75           1447       39523.00    173067.90
 1346.98        2967.00           1450       39999.00    175162.60
 1347.01        2967.25           1454       40085.00    175541.00
 1347.04        2967.50           1457       40180.00    175959.10
 1347.07        2967.75           1460       40016.00    175237.40
 1347.11        2968.00           1464       39128.00    171330.00
 1347.14        2968.25           1467       37949.00    166143.40
 1347.17        2968.50           1470       36339.00    159063.10
 1347.20        2968.75           1474       33881.00    148258.80
 1347.23        2969.00           1477       31930.00    139687.60
 1347.27        2969.25           1480       30314.00    132591.10
 1347.30        2969.50           1484       27610.00    120722.90
 1347.33        2969.75           1487       26165.00    114383.70
 1347.36        2970.00           1490       24458.00    106897.90
 1347.39        2970.25           1494       21944.00     95878.66
 1347.42        2970.50           1497       20039.00     87533.13
 1347.45        2970.75           1500       17969.00     78469.03
 1347.49        2971.00           1504       15407.00     67256.73
 1347.52        2971.25           1507       13674.00     59676.29
 1347.55        2971.50           1510       11707.00     51076.06
 1347.58        2971.75           1514        9414.00     41055.51
 1347.61        2972.00           1517        7501.00     32699.74
 1347.65        2972.25           1520        5604.00     24417.58
 1347.68        2972.50           1524        3097.00     13477.88
 1347.71        2972.75           1527        1909.00      8296.10
 1347.74        2973.00           1530         912.00      3948.55
 1347.77        2973.25           1534         449.00      1929.92
 1347.80        2973.50           1537         275.00      1171.35
 1347.84        2973.75           1540         213.00       901.07
 1347.87        2974.00           1544         156.00       652.58
 1347.90        2974.25           1547         121.00       500.01
 1347.93        2974.50           1550          90.00       364.87
 1347.96        2974.75           1554          68.00       268.96
 1347.99        2975.00           1557          57.00       221.01
 1348.03        2975.25           1561          51.00       194.86
 1348.06        2975.50           1564          45.00       168.70
 1348.09        2975.75           1567          48.00       181.78
 1348.12        2976.00           1571          41.00       151.26
 1348.15        2976.25           1574          39.00       142.55
 1348.18        2976.50           1577          40.00       146.91
 1348.21        2976.75           1581          42.00       155.62
 1348.25        2977.00           1584          38.00       138.19
 1348.28        2977.25           1587          35.00       125.11
 1348.31        2977.50           1591          37.00       133.83
 1348.34        2977.75           1594          36.00       129.47
 1348.37        2978.00           1597          41.00       151.26
 1348.40        2978.25           1601          39.00       142.55
 1348.44        2978.50           1604          29.00        98.95
 1348.47        2978.75           1607          33.00       116.39
 1348.50        2979.00           1611          31.00       107.67
 1348.53        2979.25           1614          29.00        98.95
 1348.56        2979.50           1617          35.00       125.11
 1348.59        2979.75           1621          32.00       112.03
 1348.62        2980.00           1624          30.00       103.31
 1348.66        2980.25           1628          32.00       112.03
 1348.69        2980.50           1631          25.00        81.52
 1348.72        2980.75           1634          30.00       103.31
 1348.75        2981.00           1638          29.00        98.95
 1348.78        2981.25           1641          29.00        98.95
 1348.81        2981.50           1644          27.00        90.24
 1348.85        2981.75           1648          30.00       103.31
 1348.88        2982.00           1651          25.00        81.52
 1348.91        2982.25           1654          29.00        98.95
 1348.94        2982.50           1658          31.00       107.67
 1348.97        2982.75           1661          32.00       112.03
 1349.00        2983.00           1664          28.00        94.59
 1349.04        2983.25           1668          30.00       103.31
 1349.07        2983.50           1671          35.00       125.11
 1349.10        2983.75           1674          30.00       103.31
 1349.13        2984.00           1678          29.00        98.95
HS scan finished at 22:29:21
end
