************************************************************
  HS Scan of (1) Internal mercury lamp
************************************************************
Integration time is 0.2294 seconds per sample
dh040619Izana 28.3081 16.4992 2.911481pr770
************************************************************
Dead Time -------------------------  2.7E-08 
Number of Cycles Used -------------  4 
Starting Wavelength (Angstroms) ---  2950 
Final Wavelength (Angstoms) -------  2984 
Wavelength Increment (Angstroms) --  .25 
Filter Wheel #1 Position ---------- (1) Ground quartz diffuser (ND=2.32)
Filter Wheel #2 Position ---------- (1) Neutral Density 0.494



************************************************************
HS scan start time = 04:36:53
Dark Count =  6.1 


Time (GMT)  Wavelength (Ang)  Step Number  Raw Counts  Counts/Second

  277.21        2950.00           1224          31.00       108.54
  277.28        2950.25           1227          34.00       121.62
  277.31        2950.50           1230          34.00       121.62
  277.34        2950.75           1234          32.00       112.90
  277.37        2951.00           1237          37.00       134.70
  277.40        2951.25           1240          39.00       143.42
  277.44        2951.50           1244          28.00        95.47
  277.47        2951.75           1247          35.00       125.98
  277.50        2952.00           1250          33.00       117.26
  277.53        2952.25           1254          31.00       108.54
  277.56        2952.50           1257          29.00        99.83
  277.60        2952.75           1260          38.00       139.06
  277.63        2953.00           1264          33.00       117.26
  277.66        2953.25           1267          35.00       125.98
  277.69        2953.50           1270          38.00       139.06
  277.72        2953.75           1274          34.00       121.62
  277.75        2954.00           1277          31.00       108.54
  277.79        2954.25           1280          31.00       108.54
  277.82        2954.50           1284          40.00       147.78
  277.85        2954.75           1287          35.00       125.98
  277.88        2955.00           1290          32.00       112.90
  277.91        2955.25           1294          35.00       125.98
  277.95        2955.50           1297          35.00       125.98
  277.98        2955.75           1300          28.00        95.47
  278.01        2956.00           1304          39.00       143.42
  278.04        2956.25           1307          35.00       125.98
  278.07        2956.50           1310          42.00       156.50
  278.10        2956.75           1314          34.00       121.62
  278.14        2957.00           1317          38.00       139.06
  278.17        2957.25           1320          41.00       152.14
  278.20        2957.50           1324          46.00       173.93
  278.23        2957.75           1327          40.00       147.78
  278.26        2958.00           1330          39.00       143.42
  278.29        2958.25           1334          45.00       169.57
  278.33        2958.50           1337          40.00       147.78
  278.36        2958.75           1340          44.00       165.21
  278.39        2959.00           1344          46.00       173.93
  278.42        2959.25           1347          66.00       261.12
  278.45        2959.50           1350          60.00       234.96
  278.48        2959.75           1354          94.00       383.18
  278.52        2960.00           1357         125.00       518.32
  278.55        2960.25           1360         155.00       649.10
  278.58        2960.50           1364         187.00       788.60
  278.61        2960.75           1367         246.00      1045.80
  278.64        2961.00           1370         287.00      1224.54
  278.67        2961.25           1373         339.00      1451.23
  278.71        2961.50           1377         761.00      3291.05
  278.74        2961.75           1380        1525.00      6622.37
  278.77        2962.00           1383        2873.00     12501.60
  278.80        2962.25           1387        5281.00     23008.62
  278.84        2962.50           1390        7447.00     32464.80
  278.87        2962.75           1393        9415.00     41060.76
  278.90        2963.00           1397       11829.00     51610.23
  278.93        2963.25           1400       13630.00     59484.75
  278.96        2963.50           1404       16059.00     70110.37
  279.00        2963.75           1407       17922.00     78264.18
  279.03        2964.00           1410       19984.00     87293.12
  279.06        2964.25           1414       22599.00     98749.88
  279.09        2964.50           1417       24576.00    107416.10
  279.12        2964.75           1420       26173.00    114419.60
  279.16        2965.00           1424       28638.00    125234.90
  279.19        2965.25           1427       30352.00    132758.80
  279.22        2965.50           1430       32271.00    141186.30
  279.25        2965.75           1434       34742.00    152043.50
  279.28        2966.00           1437       36343.00    159081.60
  279.32        2966.25           1440       38029.00    166496.10
  279.35        2966.50           1444       39900.00    174727.80
  279.38        2966.75           1447       40722.00    178345.40
  279.41        2967.00           1450       40971.00    179441.40
  279.44        2967.25           1454       41065.00    179855.20
  279.48        2967.50           1457       41101.00    180013.60
  279.51        2967.75           1460       40632.00    177949.30
  279.54        2968.00           1464       39454.00    172765.20
  279.57        2968.25           1467       38188.00    167195.50
  279.60        2968.50           1470       36545.00    159969.70
  279.63        2968.75           1474       34228.00    149784.60
  279.67        2969.00           1477       32659.00    142890.70
  279.70        2969.25           1480       30693.00    134256.10
  279.73        2969.50           1484       28109.00    122913.30
  279.76        2969.75           1487       26160.00    114362.60
  279.80        2970.00           1490       24250.00    105986.80
  279.83        2970.25           1494       21708.00     94845.46
  279.86        2970.50           1497       19961.00     87192.39
  279.89        2970.75           1500       17962.00     78439.28
  279.92        2971.00           1504       15273.00     66671.35
  279.96        2971.25           1507       13311.00     58089.73
  279.99        2971.50           1510       11151.00     48646.68
  280.02        2971.75           1514        8774.00     38260.52
  280.05        2972.00           1517        7060.00     30774.91
  280.08        2972.25           1520        5282.00     23012.99
  280.11        2972.50           1524        3194.00     13901.90
  280.15        2972.75           1527        2013.00      8750.54
  280.18        2973.00           1530         954.00      4132.55
  280.21        2973.25           1534         392.00      1682.29
  280.24        2973.50           1537         274.00      1167.87
  280.27        2973.75           1540         217.00       919.38
  280.30        2974.00           1544         163.00       683.97
  280.34        2974.25           1547         137.00       570.63
  280.37        2974.50           1550          88.00       357.02
  280.40        2974.75           1554          61.00       239.32
  280.43        2975.00           1557          61.00       239.32
  280.46        2975.25           1561          54.00       208.81
  280.49        2975.50           1564          52.00       200.09
  280.53        2975.75           1567          44.00       165.21
  280.56        2976.00           1571          44.00       165.21
  280.59        2976.25           1574          40.00       147.78
  280.62        2976.50           1577          50.00       191.37
  280.65        2976.75           1581          38.00       139.06
  280.68        2977.00           1584          41.00       152.14
  280.72        2977.25           1587          44.00       165.21
  280.75        2977.50           1591          40.00       147.78
  280.78        2977.75           1594          31.00       108.54
  280.81        2978.00           1597          36.00       130.34
  280.84        2978.25           1601          30.00       104.19
  280.87        2978.50           1604          32.00       112.90
  280.91        2978.75           1607          33.00       117.26
  280.94        2979.00           1611          37.00       134.70
  280.97        2979.25           1614          36.00       130.34
  281.00        2979.50           1617          32.00       112.90
  281.03        2979.75           1621          30.00       104.19
  281.07        2980.00           1624          38.00       139.06
  281.10        2980.25           1628          30.00       104.19
  281.13        2980.50           1631          26.00        86.75
  281.16        2980.75           1634          27.00        91.11
  281.19        2981.00           1638          38.00       139.06
  281.23        2981.25           1641          32.00       112.90
  281.26        2981.50           1644          35.00       125.98
  281.29        2981.75           1648          35.00       125.98
  281.32        2982.00           1651          36.00       130.34
  281.35        2982.25           1654          33.00       117.26
  281.38        2982.50           1658          29.00        99.83
  281.42        2982.75           1661          28.00        95.47
  281.45        2983.00           1664          35.00       125.98
  281.48        2983.25           1668          27.00        91.11
  281.51        2983.50           1671          31.00       108.54
  281.54        2983.75           1674          32.00       112.90
  281.57        2984.00           1678          31.00       108.54
HS scan finished at 04:41:48
end
************************************************************
  HS Scan of (1) Internal mercury lamp
************************************************************
Integration time is 0.2294 seconds per sample
dh040619Izana 28.3081 16.4992 2.857833pr770
************************************************************
Dead Time -------------------------  2.7E-08 
Number of Cycles Used -------------  4 
Starting Wavelength (Angstroms) ---  2950 
Final Wavelength (Angstoms) -------  2984 
Wavelength Increment (Angstroms) --  .25 
Filter Wheel #1 Position ---------- (1) Ground quartz diffuser (ND=2.32)
Filter Wheel #2 Position ---------- (1) Neutral Density 0.494



************************************************************
HS scan start time = 21:45:22
Dark Count =  5.9 


Time (GMT)  Wavelength (Ang)  Step Number  Raw Counts  Counts/Second

 1305.69        2950.00           1224          35.00       126.85
 1305.76        2950.25           1227          41.00       153.01
 1305.79        2950.50           1230          29.00       100.70
 1305.82        2950.75           1234          31.00       109.42
 1305.85        2951.00           1237          26.00        87.62
 1305.88        2951.25           1240          30.00       105.06
 1305.91        2951.50           1244          31.00       109.42
 1305.94        2951.75           1247          35.00       126.85
 1305.98        2952.00           1250          29.00       100.70
 1306.01        2952.25           1254          31.00       109.42
 1306.04        2952.50           1257          24.00        78.90
 1306.07        2952.75           1260          36.00       131.21
 1306.10        2953.00           1264          35.00       126.85
 1306.14        2953.25           1267          35.00       126.85
 1306.17        2953.50           1270          29.00       100.70
 1306.20        2953.75           1274          33.00       118.13
 1306.23        2954.00           1277          34.00       122.49
 1306.26        2954.25           1280          29.00       100.70
 1306.30        2954.50           1284          43.00       161.73
 1306.33        2954.75           1287          32.00       113.78
 1306.36        2955.00           1290          35.00       126.85
 1306.39        2955.25           1294          33.00       118.13
 1306.42        2955.50           1297          50.00       192.24
 1306.45        2955.75           1300          36.00       131.21
 1306.49        2956.00           1304          32.00       113.78
 1306.52        2956.25           1307          35.00       126.85
 1306.55        2956.50           1310          35.00       126.85
 1306.58        2956.75           1314          34.00       122.49
 1306.62        2957.00           1317          42.00       157.37
 1306.65        2957.25           1320          34.00       122.49
 1306.68        2957.50           1324          47.00       179.16
 1306.71        2957.75           1327          36.00       131.21
 1306.74        2958.00           1330          39.00       144.29
 1306.77        2958.25           1334          40.00       148.65
 1306.81        2958.50           1337          45.00       170.45
 1306.84        2958.75           1340          48.00       183.52
 1306.87        2959.00           1344          47.00       179.16
 1306.90        2959.25           1347          51.00       196.60
 1306.93        2959.50           1350          68.00       270.71
 1306.97        2959.75           1354          80.00       323.02
 1307.00        2960.00           1357         113.00       466.88
 1307.03        2960.25           1360         144.00       602.02
 1307.06        2960.50           1364         191.00       806.91
 1307.09        2960.75           1367         255.00      1085.91
 1307.12        2961.00           1370         263.00      1120.78
 1307.16        2961.25           1373         359.00      1539.30
 1307.19        2961.50           1377         916.00      3967.73
 1307.22        2961.75           1380        1628.00      7072.41
 1307.25        2962.00           1383        2707.00     11778.38
 1307.28        2962.25           1387        4736.00     20630.93
 1307.32        2962.50           1390        6670.00     29072.94
 1307.35        2962.75           1393        8515.00     37130.06
 1307.38        2963.00           1397       11330.00     49429.92
 1307.41        2963.25           1400       13262.00     57876.34
 1307.44        2963.50           1404       15613.00     68159.76
 1307.47        2963.75           1407       17076.00     74561.91
 1307.51        2964.00           1410       18863.00     82384.88
 1307.54        2964.25           1414       21495.00     93913.08
 1307.57        2964.50           1417       23248.00    101595.20
 1307.60        2964.75           1420       25189.00    110105.00
 1307.64        2965.00           1424       27672.00    120996.70
 1307.67        2965.25           1427       29337.00    128303.80
 1307.70        2965.50           1430       31100.00    136044.20
 1307.73        2965.75           1434       33404.00    146164.60
 1307.76        2966.00           1437       35064.00    153459.80
 1307.79        2966.25           1440       37177.00    162749.80
 1307.83        2966.50           1444       38722.00    169545.50
 1307.86        2966.75           1447       39476.00    172862.90
 1307.89        2967.00           1450       39744.00    174042.20
 1307.92        2967.25           1454       40060.00    175432.80
 1307.95        2967.50           1457       39944.00    174922.30
 1307.99        2967.75           1460       39611.00    173456.90
 1308.02        2968.00           1464       38659.00    169268.40
 1308.07        2968.25           1467       37239.00    163022.50
 1308.11        2968.50           1470       35663.00    156092.80
 1308.15        2968.75           1474       33289.00    145659.40
 1308.19        2969.00           1477       31438.00    137528.50
 1308.22        2969.25           1480       29731.00    130033.30
 1308.25        2969.50           1484       27334.00    119513.60
 1308.28        2969.75           1487       25704.00    112363.50
 1308.31        2970.00           1490       23955.00    104694.40
 1308.35        2970.25           1494       21276.00     92953.58
 1308.38        2970.50           1497       19441.00     84915.91
 1308.41        2970.75           1500       17515.00     76483.41
 1308.45        2971.00           1504       15004.00     65495.40
 1308.48        2971.25           1507       13153.00     57399.71
 1308.52        2971.50           1510       11307.00     49329.39
 1308.55        2971.75           1514        8779.00     38283.23
 1308.59        2972.00           1517        7088.00     30898.04
 1308.62        2972.25           1520        5143.00     22407.19
 1308.66        2972.50           1524        2837.00     12345.44
 1308.70        2972.75           1527        1782.00      7743.99
 1308.75        2973.00           1530         864.00      3741.01
 1308.78        2973.25           1534         408.00      1752.92
 1308.82        2973.50           1537         286.00      1221.05
 1308.85        2973.75           1540         207.00       876.66
 1308.88        2974.00           1544         158.00       663.05
 1308.91        2974.25           1547         115.00       475.59
 1308.94        2974.50           1550          90.00       366.61
 1308.98        2974.75           1554          58.00       227.12
 1309.01        2975.00           1557          54.00       209.68
 1309.04        2975.25           1561          49.00       187.88
 1309.07        2975.50           1564          43.00       161.73
 1309.10        2975.75           1567          60.00       235.83
 1309.13        2976.00           1571          45.00       170.45
 1309.17        2976.25           1574          40.00       148.65
 1309.20        2976.50           1577          32.00       113.78
 1309.23        2976.75           1581          36.00       131.21
 1309.26        2977.00           1584          42.00       157.37
 1309.30        2977.25           1587          39.00       144.29
 1309.33        2977.50           1591          40.00       148.65
 1309.36        2977.75           1594          35.00       126.85
 1309.39        2978.00           1597          39.00       144.29
 1309.42        2978.25           1601          35.00       126.85
 1309.45        2978.50           1604          36.00       131.21
 1309.49        2978.75           1607          34.00       122.49
 1309.52        2979.00           1611          36.00       131.21
 1309.55        2979.25           1614          35.00       126.85
 1309.58        2979.50           1617          30.00       105.06
 1309.61        2979.75           1621          32.00       113.78
 1309.64        2980.00           1624          32.00       113.78
 1309.67        2980.25           1628          32.00       113.78
 1309.71        2980.50           1631          26.00        87.62
 1309.74        2980.75           1634          49.00       187.88
 1309.77        2981.00           1638          33.00       118.13
 1309.80        2981.25           1641          32.00       113.78
 1309.83        2981.50           1644          30.00       105.06
 1309.87        2981.75           1648          26.00        87.62
 1309.90        2982.00           1651          32.00       113.78
 1309.93        2982.25           1654          31.00       109.42
 1309.96        2982.50           1658          31.00       109.42
 1309.99        2982.75           1661          35.00       126.85
 1310.02        2983.00           1664          26.00        87.62
 1310.06        2983.25           1668          31.00       109.42
 1310.09        2983.50           1671          37.00       135.57
 1310.12        2983.75           1674          32.00       113.78
 1310.15        2984.00           1678          37.00       135.57
HS scan finished at 21:50:23
end
