************************************************************
  HS Scan of (1) Internal mercury lamp
************************************************************
Integration time is 0.2294 seconds per sample
dh050619Izana 28.3081 16.4992 2.804185pr770
************************************************************
Dead Time -------------------------  2.7E-08 
Number of Cycles Used -------------  4 
Starting Wavelength (Angstroms) ---  2950 
Final Wavelength (Angstoms) -------  2984 
Wavelength Increment (Angstroms) --  .25 
Filter Wheel #1 Position ---------- (1) Ground quartz diffuser (ND=2.32)
Filter Wheel #2 Position ---------- (1) Neutral Density 0.494



************************************************************
HS scan start time = 04:37:25
Dark Count =  8.8 


Time (GMT)  Wavelength (Ang)  Step Number  Raw Counts  Counts/Second

  277.74        2950.00           1224          30.00        92.42
  277.80        2950.25           1227          39.00       131.65
  277.84        2950.50           1230          33.00       105.49
  277.87        2950.75           1234          35.00       114.21
  277.90        2951.00           1237          33.00       105.49
  277.93        2951.25           1240          36.00       118.57
  277.96        2951.50           1244          30.00        92.42
  278.00        2951.75           1247          29.00        88.06
  278.03        2952.00           1250          31.00        96.77
  278.06        2952.25           1254          31.00        96.77
  278.09        2952.50           1257          37.00       122.93
  278.12        2952.75           1260          31.00        96.77
  278.15        2953.00           1264          34.00       109.85
  278.19        2953.25           1267          28.00        83.70
  278.22        2953.50           1270          34.00       109.85
  278.25        2953.75           1274          36.00       118.57
  278.28        2954.00           1277          31.00        96.77
  278.31        2954.25           1280          34.00       109.85
  278.35        2954.50           1284          30.00        92.42
  278.38        2954.75           1287          31.00        96.77
  278.41        2955.00           1290          35.00       114.21
  278.44        2955.25           1294          41.00       140.37
  278.47        2955.50           1297          29.00        88.06
  278.50        2955.75           1300          41.00       140.37
  278.54        2956.00           1304          32.00       101.13
  278.57        2956.25           1307          38.00       127.29
  278.60        2956.50           1310          43.00       149.09
  278.63        2956.75           1314          34.00       109.85
  278.66        2957.00           1317          30.00        92.42
  278.70        2957.25           1320          38.00       127.29
  278.73        2957.50           1324          40.00       136.01
  278.76        2957.75           1327          42.00       144.73
  278.79        2958.00           1330          49.00       175.24
  278.82        2958.25           1334          46.00       162.16
  278.85        2958.50           1337          42.00       144.73
  278.89        2958.75           1340          52.00       188.32
  278.92        2959.00           1344          46.00       162.16
  278.95        2959.25           1347          63.00       236.27
  278.98        2959.50           1350          70.00       266.78
  279.01        2959.75           1354          87.00       340.89
  279.04        2960.00           1357         134.00       545.78
  279.07        2960.25           1360         158.00       650.40
  279.11        2960.50           1364         198.00       824.78
  279.14        2960.75           1367         234.00       981.72
  279.17        2961.00           1370         272.00      1147.38
  279.20        2961.25           1373         324.00      1374.07
  279.23        2961.50           1377         699.00      3008.96
  279.27        2961.75           1380        1437.00      6226.85
  279.30        2962.00           1383        2477.00     10762.50
  279.33        2962.25           1387        4518.00     19666.94
  279.36        2962.50           1390        6447.00     28086.68
  279.39        2962.75           1393        8429.00     36741.75
  279.43        2963.00           1397       11309.00     49325.46
  279.46        2963.25           1400       13197.00     57579.42
  279.49        2963.50           1404       15843.00     69153.41
  279.52        2963.75           1407       17516.00     76475.10
  279.55        2964.00           1410       19399.00     84719.28
  279.58        2964.25           1414       21862.00     95508.40
  279.62        2964.50           1417       23520.00    102774.80
  279.65        2964.75           1420       25029.00    109390.60
  279.68        2965.00           1424       27512.00    120281.90
  279.71        2965.25           1427       29136.00    127408.80
  279.74        2965.50           1430       30609.00    133875.40
  279.78        2965.75           1434       32915.00    144003.50
  279.81        2966.00           1437       34346.00    150291.30
  279.84        2966.25           1440       36593.00    160168.90
  279.87        2966.50           1444       38618.00    169075.20
  279.91        2966.75           1447       39620.00    173483.80
  279.94        2967.00           1450       39808.00    174311.00
  279.97        2967.25           1454       39862.00    174548.70
  280.00        2967.50           1457       39911.00    174764.30
  280.03        2967.75           1460       40042.00    175340.80
  280.07        2968.00           1464       38420.00    168204.20
  280.10        2968.25           1467       37360.00    163541.80
  280.13        2968.50           1470       35545.00    155561.40
  280.16        2968.75           1474       33474.00    146459.50
  280.19        2969.00           1477       32027.00    140102.60
  280.23        2969.25           1480       30366.00    132808.40
  280.26        2969.50           1484       27808.00    121580.70
  280.29        2969.75           1487       25852.00    112999.90
  280.32        2970.00           1490       23997.00    104865.80
  280.35        2970.25           1494       21201.00     92612.28
  280.39        2970.50           1497       19270.00     84154.38
  280.42        2970.75           1500       17395.00     75945.46
  280.45        2971.00           1504       14907.00     65058.39
  280.48        2971.25           1507       13301.00     58034.20
  280.51        2971.50           1510       11411.00     49771.29
  280.55        2971.75           1514        9325.00     40655.76
  280.58        2972.00           1517        7559.00     32942.10
  280.61        2972.25           1520        5649.00     24603.09
  280.64        2972.50           1524        3208.00     13951.20
  280.67        2972.75           1527        2056.00      8926.30
  280.70        2973.00           1530        1007.00      4351.86
  280.74        2973.25           1534         432.00      1844.90
  280.77        2973.50           1537         269.00      1134.30
  280.80        2973.75           1540         197.00       820.42
  280.83        2974.00           1544         143.00       585.01
  280.86        2974.25           1547         111.00       445.52
  280.90        2974.50           1550          89.00       349.61
  280.93        2974.75           1554          63.00       236.27
  280.96        2975.00           1557          47.00       166.52
  280.99        2975.25           1561          54.00       197.04
  281.02        2975.50           1564          51.00       183.96
  281.05        2975.75           1567          42.00       144.73
  281.09        2976.00           1571          51.00       183.96
  281.12        2976.25           1574          43.00       149.09
  281.15        2976.50           1577          57.00       210.11
  281.18        2976.75           1581          40.00       136.01
  281.21        2977.00           1584          38.00       127.29
  281.25        2977.25           1587          45.00       157.80
  281.28        2977.50           1591          38.00       127.29
  281.31        2977.75           1594          36.00       118.57
  281.34        2978.00           1597          41.00       140.37
  281.37        2978.25           1601          43.00       149.09
  281.41        2978.50           1604          38.00       127.29
  281.44        2978.75           1607          41.00       140.37
  281.47        2979.00           1611          37.00       122.93
  281.50        2979.25           1614          36.00       118.57
  281.53        2979.50           1617          34.00       109.85
  281.56        2979.75           1621          36.00       118.57
  281.60        2980.00           1624          31.00        96.77
  281.63        2980.25           1628          33.00       105.49
  281.66        2980.50           1631          33.00       105.49
  281.69        2980.75           1634          28.00        83.70
  281.72        2981.00           1638          29.00        88.06
  281.75        2981.25           1641          32.00       101.13
  281.79        2981.50           1644          26.00        74.98
  281.82        2981.75           1648          36.00       118.57
  281.85        2982.00           1651          36.00       118.57
  281.88        2982.25           1654          25.00        70.62
  281.91        2982.50           1658          36.00       118.57
  281.94        2982.75           1661          29.00        88.06
  281.98        2983.00           1664          30.00        92.42
  282.01        2983.25           1668          34.00       109.85
  282.04        2983.50           1671          31.00        96.77
  282.07        2983.75           1674          31.00        96.77
  282.10        2984.00           1678          34.00       109.85
HS scan finished at 04:42:20
end
************************************************************
  HS Scan of (1) Internal mercury lamp
************************************************************
Integration time is 0.2294 seconds per sample
dh050619Izana 28.3081 16.4992 2.911481pr770
************************************************************
Dead Time -------------------------  2.7E-08 
Number of Cycles Used -------------  4 
Starting Wavelength (Angstroms) ---  2950 
Final Wavelength (Angstoms) -------  2984 
Wavelength Increment (Angstroms) --  .25 
Filter Wheel #1 Position ---------- (1) Ground quartz diffuser (ND=2.32)
Filter Wheel #2 Position ---------- (1) Neutral Density 0.494



************************************************************
HS scan start time = 21:45:23
Dark Count =  6.4 


Time (GMT)  Wavelength (Ang)  Step Number  Raw Counts  Counts/Second

 1305.72        2950.00           1224          32.00       111.60
 1305.78        2950.25           1227          32.00       111.60
 1305.81        2950.50           1230          36.00       129.03
 1305.85        2950.75           1234          44.00       163.91
 1305.88        2951.00           1237          33.00       115.96
 1305.91        2951.25           1240          33.00       115.96
 1305.94        2951.50           1244          31.00       107.24
 1305.97        2951.75           1247          29.00        98.52
 1306.00        2952.00           1250          36.00       129.03
 1306.04        2952.25           1254          30.00       102.88
 1306.07        2952.50           1257          32.00       111.60
 1306.10        2952.75           1260          33.00       115.96
 1306.13        2953.00           1264          40.00       146.47
 1306.16        2953.25           1267          31.00       107.24
 1306.19        2953.50           1270          34.00       120.31
 1306.23        2953.75           1274          37.00       133.39
 1306.26        2954.00           1277          36.00       129.03
 1306.29        2954.25           1280          34.00       120.31
 1306.32        2954.50           1284          32.00       111.60
 1306.35        2954.75           1287          39.00       142.11
 1306.38        2955.00           1290          37.00       133.39
 1306.42        2955.25           1294          29.00        98.52
 1306.45        2955.50           1297          30.00       102.88
 1306.48        2955.75           1300          31.00       107.24
 1306.51        2956.00           1304          40.00       146.47
 1306.54        2956.25           1307          34.00       120.31
 1306.57        2956.50           1310          38.00       137.75
 1306.60        2956.75           1314          41.00       150.83
 1306.64        2957.00           1317          30.00       102.88
 1306.67        2957.25           1320          41.00       150.83
 1306.70        2957.50           1324          38.00       137.75
 1306.73        2957.75           1327          44.00       163.91
 1306.76        2958.00           1330          39.00       142.11
 1306.80        2958.25           1334          45.00       168.27
 1306.83        2958.50           1337          47.00       176.98
 1306.86        2958.75           1340          50.00       190.06
 1306.89        2959.00           1344          42.00       155.19
 1306.92        2959.25           1347          55.00       211.86
 1306.95        2959.50           1350          68.00       268.53
 1306.99        2959.75           1354          85.00       342.64
 1307.02        2960.00           1357         131.00       543.16
 1307.05        2960.25           1360         162.00       678.30
 1307.08        2960.50           1364         190.00       800.37
 1307.11        2960.75           1367         249.00      1057.57
 1307.15        2961.00           1370         295.00      1258.11
 1307.18        2961.25           1373         351.00      1502.24
 1307.21        2961.50           1377         880.00      3808.59
 1307.24        2961.75           1380        1768.00      7680.76
 1307.27        2962.00           1383        3022.00     13150.27
 1307.30        2962.25           1387        4991.00     21741.62
 1307.34        2962.50           1390        6647.00     28970.34
 1307.37        2962.75           1393        8340.00     36363.50
 1307.40        2963.00           1397       11061.00     48252.01
 1307.43        2963.25           1400       13099.00     57161.39
 1307.46        2963.50           1404       16025.00     69960.28
 1307.50        2963.75           1407       17946.00     78367.91
 1307.53        2964.00           1410       19579.00     85518.07
 1307.56        2964.25           1414       21836.00     95404.99
 1307.59        2964.50           1417       23713.00    103631.30
 1307.62        2964.75           1420       25529.00    111593.80
 1307.65        2965.00           1424       28268.00    123609.80
 1307.69        2965.25           1427       30043.00    131400.90
 1307.72        2965.50           1430       31942.00    139739.90
 1307.75        2965.75           1434       34518.00    151057.80
 1307.78        2966.00           1437       36183.00    158376.80
 1307.81        2966.25           1440       37842.00    165672.30
 1307.85        2966.50           1444       39737.00    174009.20
 1307.88        2966.75           1447       40500.00    177367.00
 1307.91        2967.00           1450       41063.00    179845.10
 1307.94        2967.25           1454       41208.00    180483.30
 1307.97        2967.50           1457       41044.00    179761.40
 1308.01        2967.75           1460       40932.00    179268.40
 1308.06        2968.00           1464       39840.00    174462.40
 1308.10        2968.25           1467       38797.00    169873.30
 1308.15        2968.50           1470       37451.00    163952.60
 1308.19        2968.75           1474       34865.00    152582.90
 1308.23        2969.00           1477       32927.00    144066.70
 1308.26        2969.25           1480       30919.00    135247.10
 1308.30        2969.50           1484       28215.00    123377.20
 1308.33        2969.75           1487       26443.00    115602.60
 1308.36        2970.00           1490       24520.00    107169.30
 1308.39        2970.25           1494       22320.00     97525.87
 1308.43        2970.50           1497       20416.00     89183.98
 1308.46        2970.75           1500       18456.00     80600.68
 1308.49        2971.00           1504       15689.00     68490.10
 1308.52        2971.25           1507       13818.00     60305.61
 1308.56        2971.50           1510       11898.00     51910.55
 1308.59        2971.75           1514        9435.00     41146.82
 1308.63        2972.00           1517        7647.00     33336.88
 1308.67        2972.25           1520        5808.00     25307.61
 1308.71        2972.50           1524        3237.00     14088.18
 1308.75        2972.75           1527        1937.00      8417.78
 1308.79        2973.00           1530         893.00      3865.27
 1308.83        2973.25           1534         391.00      1676.62
 1308.87        2973.50           1537         282.00      1201.43
 1308.91        2973.75           1540         207.00       874.48
 1308.94        2974.00           1544         144.00       599.84
 1308.97        2974.25           1547         121.00       499.57
 1309.00        2974.50           1550          85.00       342.64
 1309.03        2974.75           1554          70.00       277.25
 1309.07        2975.00           1557          62.00       242.37
 1309.10        2975.25           1561          44.00       163.91
 1309.13        2975.50           1564          42.00       155.19
 1309.16        2975.75           1567          48.00       181.34
 1309.19        2976.00           1571          45.00       168.27
 1309.23        2976.25           1574          44.00       163.91
 1309.26        2976.50           1577          39.00       142.11
 1309.29        2976.75           1581          47.00       176.98
 1309.32        2977.00           1584          46.00       172.63
 1309.35        2977.25           1587          35.00       124.67
 1309.38        2977.50           1591          37.00       133.39
 1309.41        2977.75           1594          37.00       133.39
 1309.45        2978.00           1597          31.00       107.24
 1309.48        2978.25           1601          36.00       129.03
 1309.51        2978.50           1604          33.00       115.96
 1309.54        2978.75           1607          32.00       111.60
 1309.57        2979.00           1611          36.00       129.03
 1309.61        2979.25           1614          36.00       129.03
 1309.64        2979.50           1617          32.00       111.60
 1309.67        2979.75           1621          40.00       146.47
 1309.70        2980.00           1624          40.00       146.47
 1309.73        2980.25           1628          33.00       115.96
 1309.76        2980.50           1631          37.00       133.39
 1309.80        2980.75           1634          30.00       102.88
 1309.83        2981.00           1638          49.00       185.70
 1309.86        2981.25           1641          33.00       115.96
 1309.89        2981.50           1644          30.00       102.88
 1309.92        2981.75           1648          39.00       142.11
 1309.95        2982.00           1651          33.00       115.96
 1309.99        2982.25           1654          36.00       129.03
 1310.02        2982.50           1658          30.00       102.88
 1310.05        2982.75           1661          36.00       129.03
 1310.08        2983.00           1664          33.00       115.96
 1310.11        2983.25           1668          31.00       107.24
 1310.15        2983.50           1671          28.00        94.16
 1310.18        2983.75           1674          28.00        94.16
 1310.21        2984.00           1678          30.00       102.88
HS scan finished at 21:50:26
end
