************************************************************
  HS Scan of (1) Internal mercury lamp
************************************************************
Integration time is 0.2294 seconds per sample
dh100619Izana 28.3081 16.4992 2.857833pr770
************************************************************
Dead Time -------------------------  2.7E-08 
Number of Cycles Used -------------  4 
Starting Wavelength (Angstroms) ---  2950 
Final Wavelength (Angstoms) -------  2984 
Wavelength Increment (Angstroms) --  .25 
Filter Wheel #1 Position ---------- (1) Ground quartz diffuser (ND=2.32)
Filter Wheel #2 Position ---------- (1) Neutral Density 0.494



************************************************************
HS scan start time = 04:35:47
Dark Count =  6.2 


Time (GMT)  Wavelength (Ang)  Step Number  Raw Counts  Counts/Second

  276.11        2950.00           1224          29.00        99.39
  276.18        2950.25           1227          31.00       108.11
  276.21        2950.50           1230          35.00       125.55
  276.24        2950.75           1234          27.00        90.67
  276.28        2951.00           1237          38.00       138.62
  276.31        2951.25           1240          34.00       121.19
  276.34        2951.50           1244          29.00        99.39
  276.37        2951.75           1247          34.00       121.19
  276.40        2952.00           1250          31.00       108.11
  276.43        2952.25           1254          34.00       121.19
  276.46        2952.50           1257          32.00       112.47
  276.50        2952.75           1260          35.00       125.55
  276.53        2953.00           1264          33.00       116.83
  276.56        2953.25           1267          33.00       116.83
  276.59        2953.50           1270          35.00       125.55
  276.62        2953.75           1274          40.00       147.34
  276.65        2954.00           1277          29.00        99.39
  276.68        2954.25           1280          39.00       142.98
  276.72        2954.50           1284          34.00       121.19
  276.75        2954.75           1287          38.00       138.62
  276.78        2955.00           1290          34.00       121.19
  276.81        2955.25           1294          34.00       121.19
  276.84        2955.50           1297          36.00       129.90
  276.88        2955.75           1300          37.00       134.26
  276.91        2956.00           1304          45.00       169.14
  276.94        2956.25           1307          37.00       134.26
  276.97        2956.50           1310          40.00       147.34
  277.00        2956.75           1314          42.00       156.06
  277.03        2957.00           1317          36.00       129.90
  277.06        2957.25           1320          46.00       173.50
  277.09        2957.50           1324          41.00       151.70
  277.13        2957.75           1327          35.00       125.55
  277.16        2958.00           1330          47.00       177.86
  277.19        2958.25           1334          43.00       160.42
  277.22        2958.50           1337          38.00       138.62
  277.25        2958.75           1340          43.00       160.42
  277.28        2959.00           1344          57.00       221.45
  277.31        2959.25           1347          53.00       204.01
  277.35        2959.50           1350          77.00       308.63
  277.38        2959.75           1354          91.00       369.66
  277.41        2960.00           1357         142.00       591.99
  277.44        2960.25           1360         174.00       731.49
  277.47        2960.50           1364         204.00       862.27
  277.50        2960.75           1367         259.00      1102.04
  277.53        2961.00           1370         276.00      1176.15
  277.57        2961.25           1373         334.00      1429.00
  277.60        2961.50           1377         585.00      2523.28
  277.63        2961.75           1380        1355.00      5880.62
  277.66        2962.00           1383        2750.00     11964.63
  277.69        2962.25           1387        5268.00     22951.45
  277.72        2962.50           1390        7157.00     31198.02
  277.75        2962.75           1393        9248.00     40330.73
  277.79        2963.00           1397       11977.00     52256.77
  277.82        2963.25           1400       13875.00     60555.78
  277.85        2963.50           1404       16539.00     72210.40
  277.88        2963.75           1407       18124.00     79148.04
  277.91        2964.00           1410       19823.00     86587.55
  277.95        2964.25           1414       22159.00     96821.22
  277.98        2964.50           1417       23811.00    104061.80
  278.01        2964.75           1420       25622.00    112002.50
  278.04        2965.00           1424       27740.00    121293.70
  278.07        2965.25           1427       29209.00    127740.60
  278.10        2965.50           1430       31389.00    137312.00
  278.14        2965.75           1434       34079.00    149129.40
  278.17        2966.00           1437       35908.00    157168.60
  278.20        2966.25           1440       37892.00    165893.10
  278.23        2966.50           1444       39535.00    173121.20
  278.26        2966.75           1447       40673.00    178129.30
  278.29        2967.00           1450       41078.00    179911.90
  278.33        2967.25           1454       41551.00    181994.10
  278.36        2967.50           1457       41376.00    181223.70
  278.39        2967.75           1460       41030.00    179700.70
  278.42        2968.00           1464       39906.00    174753.70
  278.45        2968.25           1467       38598.00    168998.70
  278.48        2968.50           1470       37526.00    164283.30
  278.52        2968.75           1474       35188.00    154003.50
  278.55        2969.00           1477       33238.00    145434.00
  278.58        2969.25           1480       31205.00    136503.90
  278.61        2969.50           1484       28646.00    125269.60
  278.64        2969.75           1487       26722.00    116827.40
  278.67        2970.00           1490       24723.00    108060.30
  278.71        2970.25           1494       22112.00     96615.27
  278.74        2970.50           1497       20296.00     88659.24
  278.77        2970.75           1500       18320.00     80006.12
  278.80        2971.00           1504       15976.00     69746.75
  278.83        2971.25           1507       14225.00     62086.56
  278.87        2971.50           1510       12030.00     52488.46
  278.90        2971.75           1514        9473.00     41313.71
  278.93        2972.00           1517        7729.00     33695.86
  278.96        2972.25           1520        5979.00     26054.94
  278.99        2972.50           1524        3804.00     16562.77
  279.02        2972.75           1527        2637.00     11471.73
  279.06        2973.00           1530        1280.00      5553.58
  279.09        2973.25           1534         524.00      2257.33
  279.12        2973.50           1537         281.00      1197.95
  279.15        2973.75           1540         203.00       857.91
  279.18        2974.00           1544         145.00       605.07
  279.21        2974.25           1547         110.00       452.49
  279.24        2974.50           1550          84.00       339.15
  279.27        2974.75           1554          67.00       265.04
  279.31        2975.00           1557          55.00       212.73
  279.34        2975.25           1561          52.00       199.65
  279.37        2975.50           1564          42.00       156.06
  279.40        2975.75           1567          42.00       156.06
  279.43        2976.00           1571          46.00       173.50
  279.46        2976.25           1574          48.00       182.22
  279.49        2976.50           1577          48.00       182.22
  279.53        2976.75           1581          43.00       160.42
  279.56        2977.00           1584          37.00       134.26
  279.59        2977.25           1587          39.00       142.98
  279.62        2977.50           1591          40.00       147.34
  279.65        2977.75           1594          37.00       134.26
  279.68        2978.00           1597          38.00       138.62
  279.72        2978.25           1601          42.00       156.06
  279.75        2978.50           1604          30.00       103.75
  279.78        2978.75           1607          33.00       116.83
  279.81        2979.00           1611          32.00       112.47
  279.84        2979.25           1614          31.00       108.11
  279.87        2979.50           1617          37.00       134.26
  279.91        2979.75           1621          36.00       129.90
  279.94        2980.00           1624          30.00       103.75
  279.97        2980.25           1628          32.00       112.47
  280.00        2980.50           1631          40.00       147.34
  280.03        2980.75           1634          30.00       103.75
  280.06        2981.00           1638          30.00       103.75
  280.09        2981.25           1641          29.00        99.39
  280.13        2981.50           1644          32.00       112.47
  280.16        2981.75           1648          30.00       103.75
  280.19        2982.00           1651          32.00       112.47
  280.22        2982.25           1654          36.00       129.90
  280.25        2982.50           1658          34.00       121.19
  280.28        2982.75           1661          31.00       108.11
  280.32        2983.00           1664          27.00        90.67
  280.35        2983.25           1668          29.00        99.39
  280.38        2983.50           1671          29.00        99.39
  280.41        2983.75           1674          29.00        99.39
  280.44        2984.00           1678          26.00        86.31
HS scan finished at 04:40:40
end
************************************************************
  HS Scan of (1) Internal mercury lamp
************************************************************
Integration time is 0.2294 seconds per sample
dh100619Izana 28.3081 16.4992 2.804185pr770
************************************************************
Dead Time -------------------------  2.7E-08 
Number of Cycles Used -------------  4 
Starting Wavelength (Angstroms) ---  2950 
Final Wavelength (Angstoms) -------  2984 
Wavelength Increment (Angstroms) --  .25 
Filter Wheel #1 Position ---------- (1) Ground quartz diffuser (ND=2.32)
Filter Wheel #2 Position ---------- (1) Neutral Density 0.494



************************************************************
HS scan start time = 22:24:57
Dark Count =  10.2 


Time (GMT)  Wavelength (Ang)  Step Number  Raw Counts  Counts/Second

 1345.27        2950.00           1224          32.00        95.03
 1345.34        2950.25           1227          43.00       142.98
 1345.37        2950.50           1230          28.00        77.59
 1345.40        2950.75           1234          31.00        90.67
 1345.43        2951.00           1237          27.00        73.23
 1345.46        2951.25           1240          30.00        86.31
 1345.49        2951.50           1244          35.00       108.11
 1345.53        2951.75           1247          35.00       108.11
 1345.56        2952.00           1250          32.00        95.03
 1345.59        2952.25           1254          40.00       129.90
 1345.62        2952.50           1257          40.00       129.90
 1345.65        2952.75           1260          35.00       108.11
 1345.68        2953.00           1264          28.00        77.59
 1345.71        2953.25           1267          26.00        68.88
 1345.75        2953.50           1270          39.00       125.55
 1345.78        2953.75           1274          42.00       138.62
 1345.81        2954.00           1277          34.00       103.75
 1345.84        2954.25           1280          36.00       112.47
 1345.87        2954.50           1284          37.00       116.83
 1345.90        2954.75           1287          31.00        90.67
 1345.94        2955.00           1290          37.00       116.83
 1345.97        2955.25           1294          34.00       103.75
 1346.00        2955.50           1297          30.00        86.31
 1346.03        2955.75           1300          35.00       108.11
 1346.06        2956.00           1304          37.00       116.83
 1346.09        2956.25           1307          41.00       134.26
 1346.12        2956.50           1310          36.00       112.47
 1346.16        2956.75           1314          31.00        90.67
 1346.19        2957.00           1317          34.00       103.75
 1346.22        2957.25           1320          34.00       103.75
 1346.25        2957.50           1324          35.00       108.11
 1346.28        2957.75           1327          35.00       108.11
 1346.31        2958.00           1330          40.00       129.90
 1346.34        2958.25           1334          40.00       129.90
 1346.37        2958.50           1337          50.00       173.50
 1346.41        2958.75           1340          49.00       169.14
 1346.44        2959.00           1344          46.00       156.06
 1346.47        2959.25           1347          51.00       177.86
 1346.50        2959.50           1350          53.00       186.57
 1346.53        2959.75           1354          74.00       278.12
 1346.56        2960.00           1357         115.00       456.85
 1346.60        2960.25           1360         139.00       561.47
 1346.63        2960.50           1364         184.00       757.64
 1346.66        2960.75           1367         215.00       892.79
 1346.69        2961.00           1370         262.00      1097.68
 1346.72        2961.25           1373         319.00      1346.17
 1346.75        2961.50           1377         805.00      3465.01
 1346.79        2961.75           1380        1539.00      6665.54
 1346.82        2962.00           1383        2607.00     11323.43
 1346.85        2962.25           1387        4433.00     19289.90
 1346.88        2962.50           1390        6090.00     26522.04
 1346.91        2962.75           1393        7893.00     34394.61
 1346.94        2963.00           1397       10786.00     47033.54
 1346.97        2963.25           1400       12775.00     55728.08
 1347.01        2963.50           1404       15353.00     67003.41
 1347.04        2963.75           1407       16983.00     74136.05
 1347.07        2964.00           1410       18483.00     80702.25
 1347.10        2964.25           1414       20827.00     90967.71
 1347.13        2964.50           1417       22554.00     98534.69
 1347.16        2964.75           1420       24489.00    107016.70
 1347.20        2965.00           1424       26953.00    117823.20
 1347.23        2965.25           1427       28605.00    125072.10
 1347.26        2965.50           1430       30339.00    132683.70
 1347.29        2965.75           1434       32912.00    143984.10
 1347.32        2966.00           1437       34202.00    149652.30
 1347.36        2966.25           1440       36009.00    157595.10
 1347.39        2966.50           1444       38007.00    166381.40
 1347.42        2966.75           1447       38896.00    170292.10
 1347.45        2967.00           1450       39140.00    171365.60
 1347.48        2967.25           1454       39498.00    172940.80
 1347.51        2967.50           1457       39389.00    172461.20
 1347.55        2967.75           1460       39043.00    170938.80
 1347.58        2968.00           1464       38436.00    168268.40
 1347.61        2968.25           1467       37339.00    163443.30
 1347.64        2968.50           1470       35606.00    155823.40
 1347.67        2968.75           1474       33139.00    144981.40
 1347.71        2969.00           1477       31577.00    138120.10
 1347.74        2969.25           1480       29614.00    129500.80
 1347.77        2969.50           1484       27158.00    118722.60
 1347.80        2969.75           1487       25664.00    112169.20
 1347.83        2970.00           1490       23936.00    104592.30
 1347.87        2970.25           1494       21597.00     94341.14
 1347.90        2970.50           1497       19588.00     85540.84
 1347.93        2970.75           1500       17629.00     76963.61
 1347.96        2971.00           1504       14900.00     65021.64
 1347.99        2971.25           1507       13263.00     57861.91
 1348.02        2971.50           1510       11511.00     50202.27
 1348.05        2971.75           1514        9249.00     40317.63
 1348.09        2972.00           1517        7463.00     32516.77
 1348.12        2972.25           1520        5547.00     24151.75
 1348.15        2972.50           1524        3178.00     13814.22
 1348.18        2972.75           1527        1876.00      8135.18
 1348.21        2973.00           1530         917.00      3953.34
 1348.24        2973.25           1534         417.00      1773.41
 1348.28        2973.50           1537         277.00      1163.07
 1348.31        2973.75           1540         211.00       875.35
 1348.34        2974.00           1544         150.00       609.43
 1348.37        2974.25           1547         130.00       522.24
 1348.40        2974.50           1550          90.00       347.87
 1348.43        2974.75           1554          66.00       243.24
 1348.46        2975.00           1557          54.00       190.93
 1348.50        2975.25           1561          49.00       169.14
 1348.53        2975.50           1564          47.00       160.42
 1348.56        2975.75           1567          48.00       164.78
 1348.59        2976.00           1571          38.00       121.19
 1348.62        2976.25           1574          47.00       160.42
 1348.65        2976.50           1577          47.00       160.42
 1348.68        2976.75           1581          39.00       125.55
 1348.72        2977.00           1584          38.00       121.19
 1348.75        2977.25           1587          34.00       103.75
 1348.78        2977.50           1591          37.00       116.83
 1348.81        2977.75           1594          35.00       108.11
 1348.84        2978.00           1597          30.00        86.31
 1348.87        2978.25           1601          40.00       129.90
 1348.91        2978.50           1604          31.00        90.67
 1348.94        2978.75           1607          33.00        99.39
 1348.97        2979.00           1611          34.00       103.75
 1349.00        2979.25           1614          29.00        81.95
 1349.03        2979.50           1617          33.00        99.39
 1349.06        2979.75           1621          32.00        95.03
 1349.10        2980.00           1624          33.00        99.39
 1349.13        2980.25           1628          35.00       108.11
 1349.16        2980.50           1631          33.00        99.39
 1349.19        2980.75           1634          30.00        86.31
 1349.22        2981.00           1638          32.00        95.03
 1349.25        2981.25           1641          37.00       116.83
 1349.28        2981.50           1644          32.00        95.03
 1349.32        2981.75           1648          35.00       108.11
 1349.35        2982.00           1651          32.00        95.03
 1349.38        2982.25           1654          32.00        95.03
 1349.41        2982.50           1658          25.00        64.52
 1349.44        2982.75           1661          30.00        86.31
 1349.47        2983.00           1664          36.00       112.47
 1349.50        2983.25           1668          31.00        90.67
 1349.54        2983.50           1671          32.00        95.03
 1349.57        2983.75           1674          30.00        86.31
 1349.60        2984.00           1678          28.00        77.59
HS scan finished at 22:29:49
end
