************************************************************
  HS Scan of (1) Internal mercury lamp
************************************************************
Integration time is 0.2294 seconds per sample
dh110619Izana 28.3081 16.4992 2.804185pr770
************************************************************
Dead Time -------------------------  2.7E-08 
Number of Cycles Used -------------  4 
Starting Wavelength (Angstroms) ---  2950 
Final Wavelength (Angstoms) -------  2984 
Wavelength Increment (Angstroms) --  .25 
Filter Wheel #1 Position ---------- (1) Ground quartz diffuser (ND=2.32)
Filter Wheel #2 Position ---------- (1) Neutral Density 0.494



************************************************************
HS scan start time = 04:35:46
Dark Count =  4.5 


Time (GMT)  Wavelength (Ang)  Step Number  Raw Counts  Counts/Second

  276.09        2950.00           1224          34.00       128.60
  276.16        2950.25           1227          31.00       115.52
  276.19        2950.50           1230          38.00       146.03
  276.22        2950.75           1234          36.00       137.32
  276.25        2951.00           1237          28.00       102.44
  276.29        2951.25           1240          33.00       124.24
  276.32        2951.50           1244          32.00       119.88
  276.35        2951.75           1247          30.00       111.16
  276.38        2952.00           1250          30.00       111.16
  276.41        2952.25           1254          33.00       124.24
  276.45        2952.50           1257          32.00       119.88
  276.48        2952.75           1260          27.00        98.08
  276.51        2953.00           1264          41.00       159.11
  276.54        2953.25           1267          32.00       119.88
  276.57        2953.50           1270          31.00       115.52
  276.60        2953.75           1274          33.00       124.24
  276.64        2954.00           1277          35.00       132.96
  276.67        2954.25           1280          30.00       111.16
  276.70        2954.50           1284          38.00       146.03
  276.73        2954.75           1287          37.00       141.67
  276.76        2955.00           1290          32.00       119.88
  276.79        2955.25           1294          39.00       150.39
  276.82        2955.50           1297          38.00       146.03
  276.85        2955.75           1300          35.00       132.96
  276.89        2956.00           1304          33.00       124.24
  276.92        2956.25           1307          30.00       111.16
  276.95        2956.50           1310          40.00       154.75
  276.98        2956.75           1314          38.00       146.03
  277.01        2957.00           1317          63.00       255.01
  277.05        2957.25           1320          39.00       150.39
  277.08        2957.50           1324          45.00       176.55
  277.11        2957.75           1327          38.00       146.03
  277.14        2958.00           1330          39.00       150.39
  277.17        2958.25           1334          55.00       220.14
  277.20        2958.50           1337          49.00       193.99
  277.23        2958.75           1340          46.00       180.91
  277.26        2959.00           1344          50.00       198.34
  277.30        2959.25           1347          65.00       263.73
  277.33        2959.50           1350          77.00       316.04
  277.36        2959.75           1354          98.00       407.59
  277.39        2960.00           1357         142.00       599.40
  277.42        2960.25           1360         191.00       813.01
  277.45        2960.50           1364         209.00       891.48
  277.48        2960.75           1367         251.00      1074.57
  277.52        2961.00           1370         284.00      1218.44
  277.55        2961.25           1373         350.00      1506.16
  277.58        2961.50           1377         701.00      3036.43
  277.61        2961.75           1380        1595.00      6934.60
  277.64        2962.00           1383        3120.00     13586.07
  277.68        2962.25           1387        5584.00     24338.13
  277.71        2962.50           1390        7505.00     32725.07
  277.74        2962.75           1393        9455.00     41242.50
  277.77        2963.00           1397       12122.00     52898.08
  277.80        2963.25           1400       13977.00     61009.32
  277.84        2963.50           1404       16501.00     72051.54
  277.87        2963.75           1407       18115.00     79116.08
  277.90        2964.00           1410       19709.00     86095.72
  277.93        2964.25           1414       21854.00     95492.19
  277.96        2964.50           1417       23725.00    103692.30
  277.99        2964.75           1420       25193.00    110128.60
  278.03        2965.00           1424       27028.00    118177.30
  278.06        2965.25           1427       28967.00    126685.90
  278.09        2965.50           1430       30790.00    134689.00
  278.12        2965.75           1434       33270.00    145582.00
  278.15        2966.00           1437       35274.00    154389.00
  278.18        2966.25           1440       36744.00    160851.80
  278.22        2966.50           1444       38865.00    170180.80
  278.25        2966.75           1447       39472.00    172851.50
  278.28        2967.00           1450       39666.00    173705.10
  278.31        2967.25           1454       39919.00    174818.40
  278.34        2967.50           1457       39648.00    173625.90
  278.37        2967.75           1460       39549.00    173190.30
  278.41        2968.00           1464       38323.00    167796.40
  278.44        2968.25           1467       36904.00    161555.40
  278.47        2968.50           1470       35564.00    155663.80
  278.50        2968.75           1474       33684.00    147401.10
  278.53        2969.00           1477       31707.00    138716.00
  278.56        2969.25           1480       29832.00    130482.90
  278.60        2969.50           1484       27299.00    119366.20
  278.63        2969.75           1487       25401.00    111040.80
  278.66        2970.00           1490       23495.00    102684.00
  278.69        2970.25           1494       20864.00     91154.76
  278.72        2970.50           1497       19117.00     83503.22
  278.75        2970.75           1500       17410.00     76029.94
  278.79        2971.00           1504       15005.00     65505.91
  278.82        2971.25           1507       13331.00     58184.19
  278.85        2971.50           1510       11444.00     49934.32
  278.88        2971.75           1514        8666.00     37795.75
  278.91        2972.00           1517        7016.00     30589.77
  278.94        2972.25           1520        5295.00     23076.71
  278.97        2972.50           1524        3195.00     13913.25
  279.01        2972.75           1527        1975.00      8591.79
  279.04        2973.00           1530        1066.00      4627.87
  279.07        2973.25           1534         441.00      1902.89
  279.10        2973.50           1537         251.00      1074.57
  279.13        2973.75           1540         184.00       782.49
  279.16        2974.00           1544         145.00       612.48
  279.19        2974.25           1547          98.00       407.59
  279.23        2974.50           1550          75.00       307.33
  279.26        2974.75           1554          64.00       259.37
  279.29        2975.00           1557          61.00       246.30
  279.32        2975.25           1561          46.00       180.91
  279.35        2975.50           1564          50.00       198.34
  279.38        2975.75           1567          46.00       180.91
  279.42        2976.00           1571          44.00       172.19
  279.45        2976.25           1574          39.00       150.39
  279.48        2976.50           1577          41.00       159.11
  279.51        2976.75           1581          38.00       146.03
  279.54        2977.00           1584          55.00       220.14
  279.57        2977.25           1587          33.00       124.24
  279.60        2977.50           1591          37.00       141.67
  279.64        2977.75           1594          36.00       137.32
  279.67        2978.00           1597          32.00       119.88
  279.70        2978.25           1601          33.00       124.24
  279.73        2978.50           1604          34.00       128.60
  279.76        2978.75           1607          37.00       141.67
  279.79        2979.00           1611          34.00       128.60
  279.83        2979.25           1614          32.00       119.88
  279.86        2979.50           1617          30.00       111.16
  279.89        2979.75           1621          36.00       137.32
  279.92        2980.00           1624          41.00       159.11
  279.95        2980.25           1628          32.00       119.88
  279.98        2980.50           1631          32.00       119.88
  280.01        2980.75           1634          30.00       111.16
  280.05        2981.00           1638          30.00       111.16
  280.08        2981.25           1641          38.00       146.03
  280.11        2981.50           1644          28.00       102.44
  280.14        2981.75           1648          34.00       128.60
  280.17        2982.00           1651          34.00       128.60
  280.20        2982.25           1654          32.00       119.88
  280.24        2982.50           1658          29.00       106.80
  280.27        2982.75           1661          29.00       106.80
  280.30        2983.00           1664          32.00       119.88
  280.33        2983.25           1668          29.00       106.80
  280.36        2983.50           1671          27.00        98.08
  280.39        2983.75           1674          33.00       124.24
  280.43        2984.00           1678          35.00       132.96
HS scan finished at 04:40:39
end
