************************************************************
  HS Scan of (1) Internal mercury lamp
************************************************************
Integration time is 0.2294 seconds per sample
dh170619ElArenosillo 37.1 6.73 2.857833pr1023
************************************************************
Dead Time -------------------------  2.7E-08 
Number of Cycles Used -------------  4 
Starting Wavelength (Angstroms) ---  2950 
Final Wavelength (Angstoms) -------  2984 
Wavelength Increment (Angstroms) --  .25 
Filter Wheel #1 Position ---------- (1) Ground quartz diffuser (ND=2.32)
Filter Wheel #2 Position ---------- (1) Neutral Density 0.494



************************************************************
HS scan start time = 02:12:01
Dark Count =  6.6 


Time (GMT)  Wavelength (Ang)  Step Number  Raw Counts  Counts/Second

  132.34        2950.00           1224          34.00       119.44
  132.41        2950.25           1227          33.00       115.08
  132.44        2950.50           1230          36.00       128.16
  132.47        2950.75           1234          32.00       110.72
  132.50        2951.00           1237          35.00       123.80
  132.53        2951.25           1240          39.00       141.24
  132.56        2951.50           1244          31.00       106.36
  132.60        2951.75           1247          29.00        97.65
  132.63        2952.00           1250          30.00       102.01
  132.66        2952.25           1254          33.00       115.08
  132.69        2952.50           1257          32.00       110.72
  132.72        2952.75           1260          37.00       132.52
  132.75        2953.00           1264          36.00       128.16
  132.78        2953.25           1267          40.00       145.60
  132.81        2953.50           1270          38.00       136.88
  132.84        2953.75           1274          30.00       102.01
  132.87        2954.00           1277          37.00       132.52
  132.90        2954.25           1280          39.00       141.24
  132.93        2954.50           1284          36.00       128.16
  132.96        2954.75           1287          29.00        97.65
  132.99        2955.00           1290          34.00       119.44
  133.03        2955.25           1294          27.00        88.93
  133.06        2955.50           1297          35.00       123.80
  133.09        2955.75           1300          34.00       119.44
  133.12        2956.00           1304          38.00       136.88
  133.15        2956.25           1307          37.00       132.52
  133.18        2956.50           1310          33.00       115.08
  133.21        2956.75           1314          42.00       154.32
  133.24        2957.00           1317          38.00       136.88
  133.27        2957.25           1320          38.00       136.88
  133.30        2957.50           1324          45.00       167.39
  133.33        2957.75           1327          40.00       145.60
  133.36        2958.00           1330          45.00       167.39
  133.39        2958.25           1334          43.00       158.68
  133.42        2958.50           1337          45.00       167.39
  133.45        2958.75           1340          45.00       167.39
  133.48        2959.00           1344          45.00       167.39
  133.51        2959.25           1347          46.00       171.75
  133.54        2959.50           1350          69.00       272.02
  133.58        2959.75           1354          81.00       324.33
  133.61        2960.00           1357         124.00       511.78
  133.64        2960.25           1360         157.00       655.63
  133.67        2960.50           1364         189.00       795.13
  133.70        2960.75           1367         242.00      1026.18
  133.73        2961.00           1370         270.00      1148.25
  133.76        2961.25           1373         347.00      1483.93
  133.79        2961.50           1377         851.00      3681.27
  133.82        2961.75           1380        1825.00      7928.46
  133.85        2962.00           1383        2877.00     12516.87
  133.88        2962.25           1387        4831.00     21042.47
  133.91        2962.50           1390        6495.00     28305.85
  133.94        2962.75           1393        8211.00     35799.19
  133.97        2963.00           1397       10757.00     46922.53
  134.00        2963.25           1400       12809.00     55892.49
  134.04        2963.50           1404       15549.00     67876.68
  134.07        2963.75           1407       17403.00     75990.10
  134.10        2964.00           1410       19247.00     84063.30
  134.13        2964.25           1414       21317.00     93130.14
  134.16        2964.50           1417       23222.00    101478.20
  134.19        2964.75           1420       25023.00    109374.00
  134.22        2965.00           1424       27728.00    121239.30
  134.25        2965.25           1427       29531.00    129152.30
  134.28        2965.50           1430       31500.00    137797.70
  134.31        2965.75           1434       33803.00    147914.80
  134.34        2966.00           1437       35246.00    154256.70
  134.38        2966.25           1440       37008.00    162003.50
  134.41        2966.50           1444       39057.00    171016.30
  134.44        2966.75           1447       39742.00    174030.30
  134.47        2967.00           1450       39947.00    174932.40
  134.50        2967.25           1454       40225.00    176155.80
  134.53        2967.50           1457       40286.00    176424.30
  134.56        2967.75           1460       39995.00    175143.60
  134.59        2968.00           1464       39168.00    171504.60
  134.62        2968.25           1467       37847.00    165693.40
  134.65        2968.50           1470       36418.00    159409.10
  134.68        2968.75           1474       34191.00    149619.80
  134.71        2969.00           1477       32118.00    140512.00
  134.74        2969.25           1480       30250.00    132308.80
  134.77        2969.50           1484       27710.00    121160.30
  134.80        2969.75           1487       25908.00    113255.10
  134.83        2970.00           1490       24292.00    106168.80
  134.86        2970.25           1494       21811.00     95294.56
  134.89        2970.50           1497       20137.00     87961.05
  134.92        2970.75           1500       18040.00     78778.56
  134.96        2971.00           1504       15558.00     67916.06
  134.99        2971.25           1507       13444.00     58669.15
  135.02        2971.50           1510       11730.00     51175.29
  135.05        2971.75           1514        9177.00     40018.81
  135.08        2972.00           1517        7483.00     32619.82
  135.11        2972.25           1520        5643.00     24586.50
  135.14        2972.50           1524        3098.00     13480.93
  135.17        2972.75           1527        1644.00      7139.13
  135.20        2973.00           1530         901.00      3899.28
  135.23        2973.25           1534         397.00      1701.91
  135.26        2973.50           1537         280.00      1191.84
  135.29        2973.75           1540         224.00       947.71
  135.32        2974.00           1544         159.00       664.35
  135.35        2974.25           1547         123.00       507.42
  135.39        2974.50           1550          89.00       359.20
  135.42        2974.75           1554          68.00       267.66
  135.45        2975.00           1557          59.00       228.42
  135.48        2975.25           1561          51.00       193.55
  135.51        2975.50           1564          50.00       189.19
  135.54        2975.75           1567          41.00       149.96
  135.57        2976.00           1571          47.00       176.11
  135.60        2976.25           1574          35.00       123.80
  135.63        2976.50           1577          46.00       171.75
  135.66        2976.75           1581          39.00       141.24
  135.69        2977.00           1584          37.00       132.52
  135.72        2977.25           1587          41.00       149.96
  135.75        2977.50           1591          39.00       141.24
  135.78        2977.75           1594          33.00       115.08
  135.82        2978.00           1597          31.00       106.36
  135.85        2978.25           1601          34.00       119.44
  135.88        2978.50           1604          38.00       136.88
  135.91        2978.75           1607          34.00       119.44
  135.94        2979.00           1611          31.00       106.36
  135.97        2979.25           1614          33.00       115.08
  136.00        2979.50           1617          37.00       132.52
  136.03        2979.75           1621          32.00       110.72
  136.06        2980.00           1624          36.00       128.16
  136.09        2980.25           1628          33.00       115.08
  136.12        2980.50           1631          35.00       123.80
  136.15        2980.75           1634          38.00       136.88
  136.18        2981.00           1638          33.00       115.08
  136.21        2981.25           1641          38.00       136.88
  136.25        2981.50           1644          30.00       102.01
  136.28        2981.75           1648          36.00       128.16
  136.31        2982.00           1651          37.00       132.52
  136.34        2982.25           1654          35.00       123.80
  136.37        2982.50           1658          31.00       106.36
  136.40        2982.75           1661          26.00        84.57
  136.43        2983.00           1664          38.00       136.88
  136.46        2983.25           1668          24.00        75.85
  136.49        2983.50           1671          29.00        97.65
  136.52        2983.75           1674          30.00       102.01
  136.55        2984.00           1678          32.00       110.72
HS scan finished at 02:16:46
end
************************************************************
  HS Scan of (1) Internal mercury lamp
************************************************************
Integration time is 0.2294 seconds per sample
dh170619ElArenosillo 37.1 6.73 2.857833pr1023
************************************************************
Dead Time -------------------------  2.7E-08 
Number of Cycles Used -------------  4 
Starting Wavelength (Angstroms) ---  2950 
Final Wavelength (Angstoms) -------  2984 
Wavelength Increment (Angstroms) --  .25 
Filter Wheel #1 Position ---------- (1) Ground quartz diffuser (ND=2.32)
Filter Wheel #2 Position ---------- (1) Neutral Density 0.494



************************************************************
HS scan start time = 21:40:14
Dark Count =  6.6 


Time (GMT)  Wavelength (Ang)  Step Number  Raw Counts  Counts/Second

 1300.56        2950.00           1224          33.00       115.08
 1300.62        2950.25           1227          30.00       102.01
 1300.65        2950.50           1230          33.00       115.08
 1300.68        2950.75           1234          35.00       123.80
 1300.72        2951.00           1237          33.00       115.08
 1300.75        2951.25           1240          32.00       110.72
 1300.78        2951.50           1244          35.00       123.80
 1300.81        2951.75           1247          30.00       102.01
 1300.84        2952.00           1250          28.00        93.29
 1300.87        2952.25           1254          32.00       110.72
 1300.90        2952.50           1257          31.00       106.36
 1300.93        2952.75           1260          39.00       141.24
 1300.96        2953.00           1264          29.00        97.65
 1300.99        2953.25           1267          31.00       106.36
 1301.02        2953.50           1270          33.00       115.08
 1301.05        2953.75           1274          32.00       110.72
 1301.08        2954.00           1277          31.00       106.36
 1301.11        2954.25           1280          33.00       115.08
 1301.15        2954.50           1284          43.00       158.68
 1301.18        2954.75           1287          31.00       106.36
 1301.21        2955.00           1290          35.00       123.80
 1301.24        2955.25           1294          33.00       115.08
 1301.27        2955.50           1297          30.00       102.01
 1301.30        2955.75           1300          31.00       106.36
 1301.33        2956.00           1304          43.00       158.68
 1301.36        2956.25           1307          35.00       123.80
 1301.39        2956.50           1310          40.00       145.60
 1301.42        2956.75           1314          41.00       149.96
 1301.45        2957.00           1317          34.00       119.44
 1301.48        2957.25           1320          36.00       128.16
 1301.51        2957.50           1324          35.00       123.80
 1301.54        2957.75           1327          41.00       149.96
 1301.57        2958.00           1330          44.00       163.03
 1301.60        2958.25           1334          42.00       154.32
 1301.63        2958.50           1337          41.00       149.96
 1301.66        2958.75           1340          49.00       184.83
 1301.69        2959.00           1344          38.00       136.88
 1301.73        2959.25           1347          57.00       219.70
 1301.76        2959.50           1350          62.00       241.50
 1301.79        2959.75           1354          81.00       324.33
 1301.82        2960.00           1357         118.00       485.62
 1301.85        2960.25           1360         165.00       690.51
 1301.88        2960.50           1364         185.00       777.70
 1301.91        2960.75           1367         239.00      1013.11
 1301.94        2961.00           1370         261.00      1109.01
 1301.97        2961.25           1373         333.00      1422.90
 1302.00        2961.50           1377         900.00      3894.92
 1302.03        2961.75           1380        1860.00      8081.10
 1302.06        2962.00           1383        3045.00     13249.73
 1302.09        2962.25           1387        4920.00     21430.88
 1302.12        2962.50           1390        6584.00     28694.42
 1302.16        2962.75           1393        8101.00     35318.76
 1302.19        2963.00           1397       10692.00     46638.47
 1302.22        2963.25           1400       12537.00     54703.23
 1302.25        2963.50           1404       15263.00     66625.41
 1302.28        2963.75           1407       17106.00     74690.15
 1302.31        2964.00           1410       18857.00     82355.55
 1302.34        2964.25           1414       20877.00     91202.52
 1302.37        2964.50           1417       22559.00     98572.38
 1302.40        2964.75           1420       24473.00    106962.40
 1302.43        2965.00           1424       27080.00    118396.20
 1302.47        2965.25           1427       28981.00    126738.10
 1302.50        2965.50           1430       30542.00    133590.90
 1302.53        2965.75           1434       32968.00    144246.00
 1302.56        2966.00           1437       34631.00    151553.50
 1302.59        2966.25           1440       36053.00    157804.30
 1302.62        2966.50           1444       38035.00    166520.30
 1302.65        2966.75           1447       38526.00    168680.20
 1302.68        2967.00           1450       39069.00    171069.10
 1302.71        2967.25           1454       39100.00    171205.40
 1302.74        2967.50           1457       39222.00    171742.20
 1302.77        2967.75           1460       39002.00    170774.30
 1302.80        2968.00           1464       38020.00    166454.40
 1302.83        2968.25           1467       36692.00    160613.90
 1302.86        2968.50           1470       35199.00    154050.10
 1302.89        2968.75           1474       33098.00    144817.10
 1302.93        2969.00           1477       31312.00    136972.10
 1302.96        2969.25           1480       29374.00    128463.10
 1302.99        2969.50           1484       26912.00    117659.20
 1303.02        2969.75           1487       24972.00    109150.30
 1303.05        2970.00           1490       23327.00    101938.40
 1303.08        2970.25           1494       21097.00     92166.31
 1303.11        2970.50           1497       19431.00     84869.06
 1303.14        2970.75           1500       17569.00     76716.73
 1303.17        2971.00           1504       14938.00     65203.62
 1303.20        2971.25           1507       12977.00     56627.06
 1303.23        2971.50           1510       11233.00     49002.89
 1303.26        2971.75           1514        8853.00     38603.43
 1303.29        2972.00           1517        7196.00     31366.57
 1303.32        2972.25           1520        5353.00     23320.70
 1303.35        2972.50           1524        2915.00     12682.63
 1303.38        2972.75           1527        1562.00      6781.54
 1303.41        2973.00           1530         861.00      3724.87
 1303.44        2973.25           1534         387.00      1658.31
 1303.47        2973.50           1537         274.00      1165.69
 1303.50        2973.75           1540         209.00       882.32
 1303.54        2974.00           1544         142.00       590.24
 1303.57        2974.25           1547         112.00       459.47
 1303.60        2974.50           1550          83.00       333.05
 1303.63        2974.75           1554          59.00       228.42
 1303.66        2975.00           1557          59.00       228.42
 1303.69        2975.25           1561          45.00       167.39
 1303.72        2975.50           1564          41.00       149.96
 1303.75        2975.75           1567          45.00       167.39
 1303.78        2976.00           1571          39.00       141.24
 1303.81        2976.25           1574          41.00       149.96
 1303.84        2976.50           1577          41.00       149.96
 1303.87        2976.75           1581          39.00       141.24
 1303.90        2977.00           1584          42.00       154.32
 1303.93        2977.25           1587          33.00       115.08
 1303.97        2977.50           1591          35.00       123.80
 1304.00        2977.75           1594          29.00        97.65
 1304.03        2978.00           1597          39.00       141.24
 1304.06        2978.25           1601          37.00       132.52
 1304.09        2978.50           1604          34.00       119.44
 1304.12        2978.75           1607          36.00       128.16
 1304.15        2979.00           1611          36.00       128.16
 1304.18        2979.25           1614          38.00       136.88
 1304.21        2979.50           1617          35.00       123.80
 1304.24        2979.75           1621          32.00       110.72
 1304.27        2980.00           1624          29.00        97.65
 1304.30        2980.25           1628          31.00       106.36
 1304.33        2980.50           1631          28.00        93.29
 1304.36        2980.75           1634          30.00       102.01
 1304.40        2981.00           1638          29.00        97.65
 1304.43        2981.25           1641          30.00       102.01
 1304.46        2981.50           1644          32.00       110.72
 1304.49        2981.75           1648          26.00        84.57
 1304.52        2982.00           1651          34.00       119.44
 1304.55        2982.25           1654          42.00       154.32
 1304.58        2982.50           1658          30.00       102.01
 1304.61        2982.75           1661          35.00       123.80
 1304.64        2983.00           1664          28.00        93.29
 1304.67        2983.25           1668          29.00        97.65
 1304.70        2983.50           1671          29.00        97.65
 1304.73        2983.75           1674          33.00       115.08
 1304.76        2984.00           1678          27.00        88.93
HS scan finished at 21:44:58
end
