************************************************************
  HS Scan of (1) Internal mercury lamp
************************************************************
Integration time is 0.2294 seconds per sample
dh140619ElArenosillo 37.1 6.73 2.911481pr1023
************************************************************
Dead Time -------------------------  2.7E-08 
Number of Cycles Used -------------  4 
Starting Wavelength (Angstroms) ---  2950 
Final Wavelength (Angstoms) -------  2984 
Wavelength Increment (Angstroms) --  .25 
Filter Wheel #1 Position ---------- (1) Ground quartz diffuser (ND=2.32)
Filter Wheel #2 Position ---------- (1) Neutral Density 0.494



************************************************************
HS scan start time = 21:40:03
Dark Count =  4.9 


Time (GMT)  Wavelength (Ang)  Step Number  Raw Counts  Counts/Second

 1300.37        2950.00           1224          29.00       105.06
 1300.43        2950.25           1227          33.00       122.49
 1300.46        2950.50           1230          29.00       105.06
 1300.49        2950.75           1234          30.00       109.42
 1300.53        2951.00           1237          27.00        96.34
 1300.56        2951.25           1240          35.00       131.21
 1300.59        2951.50           1244          27.00        96.34
 1300.62        2951.75           1247          37.00       139.93
 1300.65        2952.00           1250          28.00       100.70
 1300.68        2952.25           1254          30.00       109.42
 1300.71        2952.50           1257          29.00       105.06
 1300.74        2952.75           1260          29.00       105.06
 1300.77        2953.00           1264          32.00       118.13
 1300.80        2953.25           1267          30.00       109.42
 1300.83        2953.50           1270          30.00       109.42
 1300.86        2953.75           1274          42.00       161.73
 1300.89        2954.00           1277          32.00       118.13
 1300.92        2954.25           1280          34.00       126.85
 1300.95        2954.50           1284          34.00       126.85
 1300.98        2954.75           1287          32.00       118.13
 1301.02        2955.00           1290          37.00       139.93
 1301.05        2955.25           1294          39.00       148.65
 1301.08        2955.50           1297          35.00       131.21
 1301.11        2955.75           1300          34.00       126.85
 1301.14        2956.00           1304          33.00       122.49
 1301.17        2956.25           1307          35.00       131.21
 1301.20        2956.50           1310          33.00       122.49
 1301.23        2956.75           1314          36.00       135.57
 1301.26        2957.00           1317          39.00       148.65
 1301.29        2957.25           1320          40.00       153.01
 1301.32        2957.50           1324          39.00       148.65
 1301.35        2957.75           1327          36.00       135.57
 1301.38        2958.00           1330          46.00       179.16
 1301.41        2958.25           1334          39.00       148.65
 1301.44        2958.50           1337          39.00       148.65
 1301.48        2958.75           1340          43.00       166.09
 1301.51        2959.00           1344          44.00       170.45
 1301.54        2959.25           1347          52.00       205.32
 1301.57        2959.50           1350          62.00       248.91
 1301.60        2959.75           1354          86.00       353.53
 1301.63        2960.00           1357         117.00       488.67
 1301.66        2960.25           1360         156.00       658.69
 1301.69        2960.50           1364         188.00       798.19
 1301.72        2960.75           1367         228.00       972.56
 1301.75        2961.00           1370         279.00      1194.89
 1301.78        2961.25           1373         342.00      1469.54
 1301.81        2961.50           1377         999.00      4333.99
 1301.84        2961.75           1380        2261.00      9837.40
 1301.88        2962.00           1383        3923.00     17087.65
 1301.91        2962.25           1387        6230.00     27156.35
 1301.94        2962.50           1390        8060.00     35147.11
 1301.97        2962.75           1393        9681.00     42228.16
 1302.00        2963.00           1397       12181.00     53154.27
 1302.03        2963.25           1400       13941.00     60850.11
 1302.06        2963.50           1404       16178.00     70636.33
 1302.09        2963.75           1407       18032.00     78750.96
 1302.12        2964.00           1410       19995.00     87346.56
 1302.15        2964.25           1414       22367.00     97738.41
 1302.18        2964.50           1417       24047.00    105102.10
 1302.21        2964.75           1420       26088.00    114052.10
 1302.24        2965.00           1424       28607.00    125104.10
 1302.27        2965.25           1427       29937.00    130942.10
 1302.30        2965.50           1430       31858.00    139377.50
 1302.33        2965.75           1434       34411.00    150594.10
 1302.36        2966.00           1437       36617.00    160291.60
 1302.39        2966.25           1440       38241.00    167433.90
 1302.43        2966.50           1444       40023.00    175274.30
 1302.46        2966.75           1447       40641.00    177994.20
 1302.49        2967.00           1450       40754.00    178491.60
 1302.52        2967.25           1454       41021.00    179666.80
 1302.55        2967.50           1457       40908.00    179169.40
 1302.58        2967.75           1460       40385.00    176867.50
 1302.61        2968.00           1464       39138.00    171380.10
 1302.64        2968.25           1467       37832.00    165634.90
 1302.67        2968.50           1470       36398.00    159328.70
 1302.70        2968.75           1474       33954.00    148585.80
 1302.73        2969.00           1477       32286.00    141257.40
 1302.76        2969.25           1480       30152.00    131886.00
 1302.79        2969.50           1484       27793.00    121532.00
 1302.82        2969.75           1487       26114.00    114166.10
 1302.85        2970.00           1490       24139.00    105505.40
 1302.89        2970.25           1494       21271.00     92936.06
 1302.92        2970.50           1497       19390.00     84696.94
 1302.95        2970.75           1500       17442.00     76168.25
 1302.98        2971.00           1504       15097.00     65906.63
 1303.01        2971.25           1507       13313.00     58103.72
 1303.04        2971.50           1510       11602.00     50623.21
 1303.07        2971.75           1514        9215.00     40192.24
 1303.10        2972.00           1517        7510.00     32745.16
 1303.14        2972.25           1520        5669.00     24707.41
 1303.17        2972.50           1524        3199.00     13928.95
 1303.20        2972.75           1527        1707.00      7421.28
 1303.23        2973.00           1530         894.00      3876.17
 1303.26        2973.25           1534         394.00      1696.24
 1303.29        2973.50           1537         261.00      1116.42
 1303.32        2973.75           1540         214.00       911.53
 1303.35        2974.00           1544         159.00       671.76
 1303.38        2974.25           1547         120.00       501.75
 1303.41        2974.50           1550          85.00       349.18
 1303.44        2974.75           1554          73.00       296.86
 1303.47        2975.00           1557          54.00       214.04
 1303.50        2975.25           1561          46.00       179.16
 1303.53        2975.50           1564          56.00       222.76
 1303.57        2975.75           1567          44.00       170.45
 1303.60        2976.00           1571          39.00       148.65
 1303.63        2976.25           1574          42.00       161.73
 1303.66        2976.50           1577          42.00       161.73
 1303.69        2976.75           1581          36.00       135.57
 1303.72        2977.00           1584          37.00       139.93
 1303.75        2977.25           1587          41.00       157.37
 1303.78        2977.50           1591          39.00       148.65
 1303.81        2977.75           1594          36.00       135.57
 1303.84        2978.00           1597          47.00       183.52
 1303.87        2978.25           1601          32.00       118.13
 1303.90        2978.50           1604          36.00       135.57
 1303.93        2978.75           1607          30.00       109.42
 1303.96        2979.00           1611          31.00       113.78
 1303.99        2979.25           1614          36.00       135.57
 1304.03        2979.50           1617          28.00       100.70
 1304.06        2979.75           1621          33.00       122.49
 1304.09        2980.00           1624          27.00        96.34
 1304.12        2980.25           1628          27.00        96.34
 1304.15        2980.50           1631          28.00       100.70
 1304.18        2980.75           1634          36.00       135.57
 1304.21        2981.00           1638          34.00       126.85
 1304.24        2981.25           1641          32.00       118.13
 1304.27        2981.50           1644          30.00       109.42
 1304.30        2981.75           1648          32.00       118.13
 1304.33        2982.00           1651          32.00       118.13
 1304.36        2982.25           1654          29.00       105.06
 1304.39        2982.50           1658          33.00       122.49
 1304.42        2982.75           1661          35.00       131.21
 1304.45        2983.00           1664          30.00       109.42
 1304.48        2983.25           1668          31.00       113.78
 1304.51        2983.50           1671          27.00        96.34
 1304.54        2983.75           1674          28.00       100.70
 1304.57        2984.00           1678          29.00       105.06
HS scan finished at 21:44:47
end
