************************************************************
  HS Scan of (1) Internal mercury lamp
************************************************************
Integration time is 0.2294 seconds per sample
dh160619ElArenosillo 37.1 6.73 2.911481pr1023
************************************************************
Dead Time -------------------------  2.7E-08 
Number of Cycles Used -------------  4 
Starting Wavelength (Angstroms) ---  2950 
Final Wavelength (Angstoms) -------  2984 
Wavelength Increment (Angstroms) --  .25 
Filter Wheel #1 Position ---------- (1) Ground quartz diffuser (ND=2.32)
Filter Wheel #2 Position ---------- (1) Neutral Density 0.494



************************************************************
HS scan start time = 01:27:06
Dark Count =  6.5 


Time (GMT)  Wavelength (Ang)  Step Number  Raw Counts  Counts/Second

   87.42        2950.00           1224          33.00       115.52
   87.49        2950.25           1227          30.00       102.44
   87.52        2950.50           1230          26.00        85.00
   87.55        2950.75           1234          28.00        93.72
   87.58        2951.00           1237          32.00       111.16
   87.62        2951.25           1240          38.00       137.32
   87.65        2951.50           1244          34.00       119.88
   87.68        2951.75           1247          30.00       102.44
   87.71        2952.00           1250          37.00       132.96
   87.74        2952.25           1254          31.00       106.80
   87.77        2952.50           1257          30.00       102.44
   87.80        2952.75           1260          33.00       115.52
   87.83        2953.00           1264          27.00        89.36
   87.86        2953.25           1267          31.00       106.80
   87.89        2953.50           1270          30.00       102.44
   87.92        2953.75           1274          31.00       106.80
   87.95        2954.00           1277          31.00       106.80
   87.98        2954.25           1280          39.00       141.67
   88.01        2954.50           1284          33.00       115.52
   88.04        2954.75           1287          37.00       132.96
   88.08        2955.00           1290          30.00       102.44
   88.11        2955.25           1294          30.00       102.44
   88.14        2955.50           1297          35.00       124.24
   88.17        2955.75           1300          38.00       137.32
   88.20        2956.00           1304          36.00       128.60
   88.23        2956.25           1307          34.00       119.88
   88.26        2956.50           1310          36.00       128.60
   88.29        2956.75           1314          39.00       141.67
   88.32        2957.00           1317          30.00       102.44
   88.35        2957.25           1320          42.00       154.75
   88.38        2957.50           1324          49.00       185.27
   88.41        2957.75           1327          41.00       150.39
   88.44        2958.00           1330          38.00       137.32
   88.47        2958.25           1334          44.00       163.47
   88.50        2958.50           1337          43.00       159.11
   88.53        2958.75           1340          44.00       163.47
   88.56        2959.00           1344          58.00       224.50
   88.59        2959.25           1347          55.00       211.42
   88.62        2959.50           1350          71.00       281.17
   88.66        2959.75           1354          91.00       368.36
   88.69        2960.00           1357         126.00       520.93
   88.72        2960.25           1360         162.00       677.87
   88.75        2960.50           1364         207.00       874.04
   88.78        2960.75           1367         253.00      1074.57
   88.81        2961.00           1370         288.00      1227.15
   88.84        2961.25           1373         320.00      1366.66
   88.87        2961.50           1377         653.00      2818.44
   88.90        2961.75           1380        1492.00      6476.72
   88.93        2962.00           1383        2821.00     12273.03
   88.96        2962.25           1387        5371.00     23399.70
   88.99        2962.50           1390        7319.00     31904.11
   89.02        2962.75           1393        9176.00     40014.88
   89.06        2963.00           1397       11563.00     50445.73
   89.09        2963.25           1400       13468.00     58774.55
   89.12        2963.50           1404       16180.00     70638.09
   89.15        2963.75           1407       18394.00     80328.79
   89.18        2964.00           1410       20458.00     89367.52
   89.21        2964.25           1414       22985.00    100439.80
   89.24        2964.50           1417       24928.00    108957.80
   89.27        2964.75           1420       26776.00    117063.00
   89.30        2965.00           1424       29248.00    127910.50
   89.33        2965.25           1427       31291.00    136880.30
   89.37        2965.50           1430       32995.00    144365.00
   89.40        2965.75           1434       35244.00    154248.30
   89.43        2966.00           1437       37009.00    162008.30
   89.46        2966.25           1440       38856.00    170132.40
   89.49        2966.50           1444       40682.00    178167.60
   89.52        2966.75           1447       41372.00    181204.80
   89.55        2967.00           1450       41844.00    183282.70
   89.58        2967.25           1454       42179.00    184757.60
   89.61        2967.50           1457       41909.00    183568.90
   89.64        2967.75           1460       41683.00    182573.90
   89.67        2968.00           1464       40326.00    176600.80
   89.70        2968.25           1467       38882.00    170246.80
   89.73        2968.50           1470       37490.00    164123.70
   89.76        2968.75           1474       35365.00    154780.20
   89.79        2969.00           1477       33467.00    146438.80
   89.83        2969.25           1480       31520.00    137886.00
   89.86        2969.50           1484       28742.00    125689.60
   89.89        2969.75           1487       26766.00    117019.10
   89.92        2970.00           1490       25064.00    109554.20
   89.95        2970.25           1494       22407.00     97906.69
   89.98        2970.50           1497       20550.00     89770.51
   90.01        2970.75           1500       18651.00     81454.01
   90.05        2971.00           1504       15765.00     68822.19
   90.08        2971.25           1507       13600.00     59351.80
   90.11        2971.50           1510       11939.00     52089.34
   90.14        2971.75           1514        9419.00     41076.49
   90.17        2972.00           1517        7563.00     32969.62
   90.20        2972.25           1520        5950.00     25927.04
   90.23        2972.50           1524        3496.00     15217.67
   90.26        2972.75           1527        1981.00      8609.24
   90.29        2973.00           1530        1137.00      4928.73
   90.32        2973.25           1534         404.00      1732.86
   90.36        2973.50           1537         260.00      1105.09
   90.39        2973.75           1540         190.00       799.93
   90.42        2974.00           1544         158.00       660.43
   90.45        2974.25           1547         105.00       429.39
   90.48        2974.50           1550          84.00       337.84
   90.51        2974.75           1554          67.00       263.73
   90.54        2975.00           1557          47.00       176.55
   90.57        2975.25           1561          52.00       198.34
   90.60        2975.50           1564          49.00       185.27
   90.63        2975.75           1567          46.00       172.19
   90.66        2976.00           1571          43.00       159.11
   90.69        2976.25           1574          44.00       163.47
   90.72        2976.50           1577          40.00       146.03
   90.75        2976.75           1581          39.00       141.67
   90.78        2977.00           1584          39.00       141.67
   90.82        2977.25           1587          39.00       141.67
   90.85        2977.50           1591          35.00       124.24
   90.88        2977.75           1594          41.00       150.39
   90.91        2978.00           1597          37.00       132.96
   90.94        2978.25           1601          36.00       128.60
   90.97        2978.50           1604          38.00       137.32
   91.00        2978.75           1607          32.00       111.16
   91.03        2979.00           1611          36.00       128.60
   91.06        2979.25           1614          35.00       124.24
   91.09        2979.50           1617          32.00       111.16
   91.12        2979.75           1621          29.00        98.08
   91.15        2980.00           1624          29.00        98.08
   91.18        2980.25           1628          32.00       111.16
   91.21        2980.50           1631          30.00       102.44
   91.24        2980.75           1634          29.00        98.08
   91.27        2981.00           1638          34.00       119.88
   91.30        2981.25           1641          27.00        89.36
   91.33        2981.50           1644          29.00        98.08
   91.37        2981.75           1648          33.00       115.52
   91.40        2982.00           1651          26.00        85.00
   91.43        2982.25           1654          34.00       119.88
   91.46        2982.50           1658          31.00       106.80
   91.49        2982.75           1661          24.00        76.29
   91.52        2983.00           1664          24.00        76.29
   91.55        2983.25           1668          36.00       128.60
   91.58        2983.50           1671          27.00        89.36
   91.61        2983.75           1674          33.00       115.52
   91.64        2984.00           1678          26.00        85.00
HS scan finished at 01:31:51
end
************************************************************
  HS Scan of (1) Internal mercury lamp
************************************************************
Integration time is 0.2294 seconds per sample
dh160619ElArenosillo 37.1 6.73 2.911481pr1023
************************************************************
Dead Time -------------------------  2.7E-08 
Number of Cycles Used -------------  4 
Starting Wavelength (Angstroms) ---  2950 
Final Wavelength (Angstoms) -------  2984 
Wavelength Increment (Angstroms) --  .25 
Filter Wheel #1 Position ---------- (1) Ground quartz diffuser (ND=2.32)
Filter Wheel #2 Position ---------- (1) Neutral Density 0.494



************************************************************
HS scan start time = 02:21:00
Dark Count =  3.6 


Time (GMT)  Wavelength (Ang)  Step Number  Raw Counts  Counts/Second

  141.33        2950.00           1224          24.00        88.93
  141.39        2950.25           1227          28.00       106.36
  141.43        2950.50           1230          34.00       132.52
  141.46        2950.75           1234          34.00       132.52
  141.49        2951.00           1237          32.00       123.80
  141.52        2951.25           1240          29.00       110.72
  141.55        2951.50           1244          30.00       115.08
  141.58        2951.75           1247          37.00       145.60
  141.61        2952.00           1250          33.00       128.16
  141.64        2952.25           1254          30.00       115.08
  141.67        2952.50           1257          30.00       115.08
  141.70        2952.75           1260          27.00       102.01
  141.73        2953.00           1264          38.00       149.96
  141.76        2953.25           1267          35.00       136.88
  141.79        2953.50           1270          34.00       132.52
  141.82        2953.75           1274          30.00       115.08
  141.85        2954.00           1277          37.00       145.60
  141.88        2954.25           1280          37.00       145.60
  141.91        2954.50           1284          33.00       128.16
  141.94        2954.75           1287          32.00       123.80
  141.97        2955.00           1290          32.00       123.80
  142.01        2955.25           1294          31.00       119.44
  142.04        2955.50           1297          32.00       123.80
  142.07        2955.75           1300          29.00       110.72
  142.10        2956.00           1304          33.00       128.16
  142.13        2956.25           1307          40.00       158.68
  142.16        2956.50           1310          32.00       123.80
  142.19        2956.75           1314          34.00       132.52
  142.22        2957.00           1317          41.00       163.03
  142.25        2957.25           1320          31.00       119.44
  142.28        2957.50           1324          42.00       167.39
  142.31        2957.75           1327          47.00       189.19
  142.34        2958.00           1330          40.00       158.68
  142.37        2958.25           1334          39.00       154.32
  142.40        2958.50           1337          48.00       193.55
  142.43        2958.75           1340          45.00       180.47
  142.46        2959.00           1344          42.00       167.39
  142.49        2959.25           1347          52.00       210.99
  142.52        2959.50           1350          72.00       298.17
  142.55        2959.75           1354          93.00       389.72
  142.58        2960.00           1357         130.00       551.01
  142.61        2960.25           1360         165.00       703.59
  142.65        2960.50           1364         202.00       864.89
  142.68        2960.75           1367         250.00      1074.14
  142.71        2961.00           1370         293.00      1261.59
  142.74        2961.25           1373         344.00      1483.93
  142.77        2961.50           1377         743.00      3223.47
  142.80        2961.75           1380        1524.00      6628.91
  142.83        2962.00           1383        2576.00     11217.00
  142.86        2962.25           1387        4467.00     19467.07
  142.89        2962.50           1390        6520.00     28428.09
  142.92        2962.75           1393        8513.00     37131.37
  142.95        2963.00           1397       11376.00     49641.04
  142.98        2963.25           1400       13481.00     58844.07
  143.01        2963.50           1404       16083.00     70226.32
  143.05        2963.75           1407       18005.00     78638.46
  143.08        2964.00           1410       19925.00     87045.66
  143.11        2964.25           1414       22492.00     98291.90
  143.14        2964.50           1417       24231.00    105914.50
  143.17        2964.75           1420       25990.00    113627.90
  143.20        2965.00           1424       28190.00    123279.80
  143.23        2965.25           1427       29663.00    129744.90
  143.26        2965.50           1430       31464.00    137652.80
  143.29        2965.75           1434       33575.00    146926.10
  143.32        2966.00           1437       35397.00    154933.60
  143.35        2966.25           1440       37071.00    162293.70
  143.38        2966.50           1444       39176.00    171553.00
  143.41        2966.75           1447       40252.00    176287.80
  143.44        2967.00           1450       40690.00    178215.60
  143.47        2967.25           1454       40987.00    179522.80
  143.51        2967.50           1457       40773.00    178580.90
  143.54        2967.75           1460       40611.00    177867.90
  143.57        2968.00           1464       39343.00    172287.80
  143.60        2968.25           1467       37875.00    165829.70
  143.63        2968.50           1470       36229.00    158591.30
  143.66        2968.75           1474       33965.00    148639.80
  143.69        2969.00           1477       32301.00    141329.00
  143.72        2969.25           1480       30648.00    134069.50
  143.75        2969.50           1484       28506.00    124666.50
  143.78        2969.75           1487       26636.00    116461.50
  143.81        2970.00           1490       24570.00    107400.80
  143.84        2970.25           1494       21953.00     95929.94
  143.87        2970.50           1497       19949.00     87150.78
  143.90        2970.75           1500       18109.00     79093.75
  143.93        2971.00           1504       15407.00     67268.54
  143.96        2971.25           1507       13610.00     59408.21
  143.99        2971.50           1510       11855.00     51734.82
  144.02        2971.75           1514        9407.00     41036.73
  144.06        2972.00           1517        7805.00     34039.12
  144.09        2972.25           1520        5971.00     26031.37
  144.12        2972.50           1524        3412.00     14863.85
  144.15        2972.75           1527        1900.00      8268.63
  144.18        2973.00           1530        1053.00      4575.11
  144.21        2973.25           1534         442.00      1911.17
  144.24        2973.50           1537         268.00      1152.61
  144.27        2973.75           1540         202.00       864.89
  144.30        2974.00           1544         145.00       616.40
  144.33        2974.25           1547         107.00       450.75
  144.36        2974.50           1550          92.00       385.36
  144.39        2974.75           1554          63.00       258.94
  144.43        2975.00           1557          48.00       193.55
  144.46        2975.25           1561          48.00       193.55
  144.49        2975.50           1564          47.00       189.19
  144.52        2975.75           1567          41.00       163.03
  144.55        2976.00           1571          40.00       158.68
  144.58        2976.25           1574          43.00       171.75
  144.61        2976.50           1577          48.00       193.55
  144.64        2976.75           1581          41.00       163.03
  144.67        2977.00           1584          41.00       163.03
  144.70        2977.25           1587          32.00       123.80
  144.73        2977.50           1591          36.00       141.24
  144.76        2977.75           1594          41.00       163.03
  144.79        2978.00           1597          34.00       132.52
  144.82        2978.25           1601          31.00       119.44
  144.85        2978.50           1604          37.00       145.60
  144.88        2978.75           1607          29.00       110.72
  144.91        2979.00           1611          33.00       128.16
  144.95        2979.25           1614          36.00       141.24
  144.98        2979.50           1617          33.00       128.16
  145.01        2979.75           1621          32.00       123.80
  145.04        2980.00           1624          26.00        97.65
  145.07        2980.25           1628          27.00       102.01
  145.10        2980.50           1631          35.00       136.88
  145.13        2980.75           1634          31.00       119.44
  145.16        2981.00           1638          33.00       128.16
  145.19        2981.25           1641          31.00       119.44
  145.22        2981.50           1644          28.00       106.36
  145.25        2981.75           1648          34.00       132.52
  145.28        2982.00           1651          32.00       123.80
  145.31        2982.25           1654          35.00       136.88
  145.34        2982.50           1658          35.00       136.88
  145.37        2982.75           1661          29.00       110.72
  145.41        2983.00           1664          34.00       132.52
  145.44        2983.25           1668          29.00       110.72
  145.47        2983.50           1671          31.00       119.44
  145.50        2983.75           1674          29.00       110.72
  145.53        2984.00           1678          32.00       123.80
HS scan finished at 02:25:44
end
************************************************************
  HS Scan of (1) Internal mercury lamp
************************************************************
Integration time is 0.2294 seconds per sample
dh160619ElArenosillo 37.1 6.73 2.911481pr1023
************************************************************
Dead Time -------------------------  2.7E-08 
Number of Cycles Used -------------  4 
Starting Wavelength (Angstroms) ---  2950 
Final Wavelength (Angstoms) -------  2984 
Wavelength Increment (Angstroms) --  .25 
Filter Wheel #1 Position ---------- (1) Ground quartz diffuser (ND=2.32)
Filter Wheel #2 Position ---------- (1) Neutral Density 0.494



************************************************************
HS scan start time = 21:39:08
Dark Count =  5.9 


Time (GMT)  Wavelength (Ang)  Step Number  Raw Counts  Counts/Second

 1299.46        2950.00           1224          23.00        74.54
 1299.53        2950.25           1227          31.00       109.42
 1299.56        2950.50           1230          33.00       118.13
 1299.59        2950.75           1234          30.00       105.06
 1299.62        2951.00           1237          36.00       131.21
 1299.65        2951.25           1240          31.00       109.42
 1299.68        2951.50           1244          29.00       100.70
 1299.71        2951.75           1247          31.00       109.42
 1299.74        2952.00           1250          40.00       148.65
 1299.77        2952.25           1254          34.00       122.49
 1299.80        2952.50           1257          29.00       100.70
 1299.83        2952.75           1260          31.00       109.42
 1299.87        2953.00           1264          31.00       109.42
 1299.90        2953.25           1267          38.00       139.93
 1299.93        2953.50           1270          32.00       113.78
 1299.96        2953.75           1274          31.00       109.42
 1299.99        2954.00           1277          39.00       144.29
 1300.02        2954.25           1280          31.00       109.42
 1300.05        2954.50           1284          33.00       118.13
 1300.08        2954.75           1287          31.00       109.42
 1300.11        2955.00           1290          34.00       122.49
 1300.14        2955.25           1294          36.00       131.21
 1300.17        2955.50           1297          32.00       113.78
 1300.20        2955.75           1300          35.00       126.85
 1300.23        2956.00           1304          39.00       144.29
 1300.26        2956.25           1307          32.00       113.78
 1300.29        2956.50           1310          35.00       126.85
 1300.33        2956.75           1314          38.00       139.93
 1300.36        2957.00           1317          41.00       153.01
 1300.39        2957.25           1320          35.00       126.85
 1300.42        2957.50           1324          40.00       148.65
 1300.45        2957.75           1327          45.00       170.45
 1300.48        2958.00           1330          40.00       148.65
 1300.51        2958.25           1334          47.00       179.16
 1300.54        2958.50           1337          43.00       161.73
 1300.57        2958.75           1340          46.00       174.80
 1300.60        2959.00           1344          50.00       192.24
 1300.63        2959.25           1347          56.00       218.40
 1300.66        2959.50           1350          72.00       288.15
 1300.69        2959.75           1354          86.00       349.18
 1300.72        2960.00           1357         138.00       575.86
 1300.76        2960.25           1360         155.00       649.97
 1300.79        2960.50           1364         187.00       789.47
 1300.82        2960.75           1367         251.00      1068.47
 1300.85        2961.00           1370         295.00      1260.29
 1300.88        2961.25           1373         347.00      1486.98
 1300.91        2961.50           1377        1005.00      4355.79
 1300.94        2961.75           1380        2274.00      9889.74
 1300.97        2962.00           1383        3499.00     15233.38
 1301.00        2962.25           1387        5835.00     25427.65
 1301.03        2962.50           1390        7721.00     33662.23
 1301.06        2962.75           1393        9398.00     40987.36
 1301.09        2963.00           1397       11666.00     50898.58
 1301.13        2963.25           1400       13470.00     58785.91
 1301.16        2963.50           1404       15660.00     68365.40
 1301.19        2963.75           1407       17530.00     76549.08
 1301.22        2964.00           1410       19441.00     84915.91
 1301.25        2964.25           1414       22006.00     96152.09
 1301.28        2964.50           1417       23984.00    104821.50
 1301.31        2964.75           1420       25805.00    112806.50
 1301.34        2965.00           1424       27750.00    121338.90
 1301.37        2965.25           1427       29589.00    129410.00
 1301.40        2965.50           1430       31364.00    137203.50
 1301.43        2965.75           1434       33895.00    148322.10
 1301.46        2966.00           1437       35881.00    157051.20
 1301.49        2966.25           1440       37831.00    165626.10
 1301.52        2966.50           1444       39231.00    171784.90
 1301.55        2966.75           1447       40123.00    175710.00
 1301.58        2967.00           1450       40189.00    176000.50
 1301.61        2967.25           1454       40520.00    177457.20
 1301.64        2967.50           1457       40144.00    175802.40
 1301.67        2967.75           1460       40004.00    175186.30
 1301.70        2968.00           1464       38874.00    170214.20
 1301.74        2968.25           1467       37559.00    164429.80
 1301.77        2968.50           1470       35640.00    155991.70
 1301.80        2968.75           1474       33647.00    147232.40
 1301.83        2969.00           1477       31699.00    138674.80
 1301.86        2969.25           1480       29907.00    130806.00
 1301.89        2969.50           1484       27658.00    120935.20
 1301.92        2969.75           1487       25523.00    111569.70
 1301.95        2970.00           1490       23537.00    102862.00
 1301.98        2970.25           1494       20918.00     91385.19
 1302.01        2970.50           1497       19138.00     83589.06
 1302.04        2970.75           1500       17354.00     75778.70
 1302.07        2971.00           1504       14929.00     65167.31
 1302.11        2971.25           1507       13255.00     57845.73
 1302.14        2971.50           1510       11454.00     49971.91
 1302.17        2971.75           1514        8882.00     38733.16
 1302.20        2972.00           1517        7150.00     31168.76
 1302.23        2972.25           1520        5349.00     23306.29
 1302.26        2972.50           1524        2972.00     12934.33
 1302.29        2972.75           1527        1637.00      7111.65
 1302.32        2973.00           1530         923.00      3998.25
 1302.36        2973.25           1534         388.00      1665.72
 1302.39        2973.50           1537         261.00      1112.07
 1302.42        2973.75           1540         204.00       863.58
 1302.45        2974.00           1544         161.00       676.12
 1302.48        2974.25           1547         111.00       458.16
 1302.51        2974.50           1550          94.00       384.05
 1302.54        2974.75           1554          59.00       231.47
 1302.57        2975.00           1557          54.00       209.68
 1302.60        2975.25           1561          42.00       157.37
 1302.63        2975.50           1564          46.00       174.80
 1302.66        2975.75           1567          44.00       166.09
 1302.69        2976.00           1571          41.00       153.01
 1302.72        2976.25           1574          43.00       161.73
 1302.75        2976.50           1577          44.00       166.09
 1302.78        2976.75           1581          42.00       157.37
 1302.81        2977.00           1584          34.00       122.49
 1302.84        2977.25           1587          44.00       166.09
 1302.87        2977.50           1591          31.00       109.42
 1302.90        2977.75           1594          30.00       105.06
 1302.93        2978.00           1597          42.00       157.37
 1302.96        2978.25           1601          38.00       139.93
 1303.00        2978.50           1604          32.00       113.78
 1303.03        2978.75           1607          35.00       126.85
 1303.06        2979.00           1611          25.00        83.26
 1303.09        2979.25           1614          31.00       109.42
 1303.12        2979.50           1617          34.00       122.49
 1303.15        2979.75           1621          31.00       109.42
 1303.18        2980.00           1624          34.00       122.49
 1303.21        2980.25           1628          34.00       122.49
 1303.24        2980.50           1631          31.00       109.42
 1303.27        2980.75           1634          33.00       118.13
 1303.30        2981.00           1638          31.00       109.42
 1303.33        2981.25           1641          29.00       100.70
 1303.36        2981.50           1644          28.00        96.34
 1303.40        2981.75           1648          33.00       118.13
 1303.43        2982.00           1651          30.00       105.06
 1303.46        2982.25           1654          30.00       105.06
 1303.49        2982.50           1658          36.00       131.21
 1303.52        2982.75           1661          28.00        96.34
 1303.55        2983.00           1664          31.00       109.42
 1303.58        2983.25           1668          26.00        87.62
 1303.61        2983.50           1671          31.00       109.42
 1303.64        2983.75           1674          36.00       131.21
 1303.67        2984.00           1678          33.00       118.13
HS scan finished at 21:43:53
end
