************************************************************
  HS Scan of (1) Internal mercury lamp
************************************************************
Integration time is 0.2294 seconds per sample
dh180619ElArenosillo 37.1 6.73 2.857833pr1023
************************************************************
Dead Time -------------------------  2.7E-08 
Number of Cycles Used -------------  4 
Starting Wavelength (Angstroms) ---  2950 
Final Wavelength (Angstoms) -------  2984 
Wavelength Increment (Angstroms) --  .25 
Filter Wheel #1 Position ---------- (1) Ground quartz diffuser (ND=2.32)
Filter Wheel #2 Position ---------- (1) Neutral Density 0.494



************************************************************
HS scan start time = 02:23:21
Dark Count =  5.7 


Time (GMT)  Wavelength (Ang)  Step Number  Raw Counts  Counts/Second

  143.67        2950.00           1224          30.00       105.93
  143.73        2950.25           1227          39.00       145.16
  143.76        2950.50           1230          41.00       153.88
  143.79        2950.75           1234          30.00       105.93
  143.83        2951.00           1237          30.00       105.93
  143.86        2951.25           1240          30.00       105.93
  143.89        2951.50           1244          29.00       101.57
  143.92        2951.75           1247          33.00       119.01
  143.95        2952.00           1250          29.00       101.57
  143.98        2952.25           1254          27.00        92.85
  144.01        2952.50           1257          31.00       110.29
  144.04        2952.75           1260          28.00        97.21
  144.07        2953.00           1264          32.00       114.65
  144.10        2953.25           1267          38.00       140.80
  144.13        2953.50           1270          27.00        92.85
  144.16        2953.75           1274          33.00       119.01
  144.19        2954.00           1277          32.00       114.65
  144.22        2954.25           1280          28.00        97.21
  144.25        2954.50           1284          29.00       101.57
  144.28        2954.75           1287          34.00       123.37
  144.32        2955.00           1290          37.00       136.44
  144.35        2955.25           1294          29.00       101.57
  144.38        2955.50           1297          32.00       114.65
  144.41        2955.75           1300          37.00       136.44
  144.44        2956.00           1304          36.00       132.08
  144.47        2956.25           1307          29.00       101.57
  144.50        2956.50           1310          34.00       123.37
  144.53        2956.75           1314          36.00       132.08
  144.56        2957.00           1317          37.00       136.44
  144.59        2957.25           1320          40.00       149.52
  144.62        2957.50           1324          34.00       123.37
  144.65        2957.75           1327          40.00       149.52
  144.68        2958.00           1330          43.00       162.60
  144.71        2958.25           1334          48.00       184.39
  144.74        2958.50           1337          44.00       166.96
  144.77        2958.75           1340          45.00       171.32
  144.81        2959.00           1344          48.00       184.39
  144.84        2959.25           1347          60.00       236.71
  144.87        2959.50           1350          76.00       306.45
  144.90        2959.75           1354          93.00       380.56
  144.93        2960.00           1357         118.00       489.54
  144.96        2960.25           1360         163.00       685.71
  144.99        2960.50           1364         184.00       777.26
  145.02        2960.75           1367         226.00       960.36
  145.05        2961.00           1370         284.00      1213.20
  145.08        2961.25           1373         323.00      1383.23
  145.11        2961.50           1377         550.00      2372.86
  145.14        2961.75           1380        1274.00      5529.60
  145.17        2962.00           1383        2468.00     10736.77
  145.21        2962.25           1387        4691.00     20435.42
  145.24        2962.50           1390        6549.00     28545.53
  145.27        2962.75           1393        8150.00     35536.70
  145.30        2963.00           1397       10493.00     45772.75
  145.33        2963.25           1400       12395.00     54086.34
  145.36        2963.50           1404       15254.00     66589.98
  145.39        2963.75           1407       17142.00     74851.65
  145.42        2964.00           1410       19194.00     83835.16
  145.45        2964.25           1414       21519.00     94019.10
  145.48        2964.50           1417       23345.00    102021.30
  145.51        2964.75           1420       25175.00    110044.50
  145.54        2965.00           1424       27556.00    120488.60
  145.58        2965.25           1427       28960.00    126649.90
  145.61        2965.50           1430       30988.00    135553.20
  145.64        2965.75           1434       33117.00    144904.50
  145.67        2966.00           1437       34894.00    152713.40
  145.70        2966.25           1440       36327.00    159013.00
  145.73        2966.50           1444       38264.00    167531.60
  145.76        2966.75           1447       39124.00    171315.00
  145.79        2967.00           1450       39668.00    173708.60
  145.82        2967.25           1454       39675.00    173739.40
  145.85        2967.50           1457       39780.00    174201.50
  145.88        2967.75           1460       39408.00    172564.60
  145.91        2968.00           1464       38431.00    168266.20
  145.94        2968.25           1467       37048.00    162183.40
  145.97        2968.50           1470       35852.00    156924.60
  146.00        2968.75           1474       33564.00    146868.50
  146.03        2969.00           1477       31933.00    139703.40
  146.07        2969.25           1480       30105.00    131676.10
  146.10        2969.50           1484       27522.00    120339.40
  146.13        2969.75           1487       25673.00    112228.40
  146.16        2970.00           1490       23947.00    104660.20
  146.19        2970.25           1494       21663.00     94650.03
  146.22        2970.50           1497       19774.00     86375.14
  146.25        2970.75           1500       17829.00     77858.80
  146.28        2971.00           1504       15056.00     65723.76
  146.31        2971.25           1507       13245.00     57802.87
  146.34        2971.50           1510       11326.00     49413.31
  146.37        2971.75           1514        8997.00     39236.40
  146.40        2972.00           1517        7443.00     32449.08
  146.43        2972.25           1520        5628.00     24524.96
  146.46        2972.50           1524        3468.00     15099.01
  146.49        2972.75           1527        2109.00      9170.97
  146.53        2973.00           1530        1101.00      4775.25
  146.56        2973.25           1534         419.00      1801.74
  146.59        2973.50           1537         233.00       990.87
  146.62        2973.75           1540         205.00       868.81
  146.65        2974.00           1544         136.00       568.01
  146.68        2974.25           1547         110.00       454.67
  146.71        2974.50           1550          82.00       332.61
  146.74        2974.75           1554          66.00       262.86
  146.77        2975.00           1557          59.00       232.35
  146.80        2975.25           1561          44.00       166.96
  146.83        2975.50           1564          53.00       206.19
  146.86        2975.75           1567          46.00       175.68
  146.89        2976.00           1571          41.00       153.88
  146.92        2976.25           1574          46.00       175.68
  146.95        2976.50           1577          38.00       140.80
  146.98        2976.75           1581          43.00       162.60
  147.02        2977.00           1584          40.00       149.52
  147.05        2977.25           1587          45.00       171.32
  147.08        2977.50           1591          37.00       136.44
  147.11        2977.75           1594          38.00       140.80
  147.14        2978.00           1597          33.00       119.01
  147.17        2978.25           1601          43.00       162.60
  147.20        2978.50           1604          34.00       123.37
  147.23        2978.75           1607          37.00       136.44
  147.26        2979.00           1611          29.00       101.57
  147.29        2979.25           1614          36.00       132.08
  147.32        2979.50           1617          31.00       110.29
  147.35        2979.75           1621          29.00       101.57
  147.38        2980.00           1624          30.00       105.93
  147.41        2980.25           1628          31.00       110.29
  147.44        2980.50           1631          28.00        97.21
  147.47        2980.75           1634          34.00       123.37
  147.50        2981.00           1638          31.00       110.29
  147.54        2981.25           1641          38.00       140.80
  147.57        2981.50           1644          33.00       119.01
  147.60        2981.75           1648          30.00       105.93
  147.63        2982.00           1651          27.00        92.85
  147.66        2982.25           1654          37.00       136.44
  147.70        2982.50           1658          35.00       127.72
  147.73        2982.75           1661          37.00       136.44
  147.76        2983.00           1664          36.00       132.08
  147.79        2983.25           1668          29.00       101.57
  147.82        2983.50           1671          30.00       105.93
  147.85        2983.75           1674          35.00       127.72
  147.88        2984.00           1678          30.00       105.93
HS scan finished at 02:28:06
end
