************************************************************
  HS Scan of (1) Internal mercury lamp
************************************************************
Integration time is 0.2294 seconds per sample
dh170619ElArenosillo 37.1 6.73 2.857833pr1023
************************************************************
Dead Time -------------------------  2.7E-08 
Number of Cycles Used -------------  4 
Starting Wavelength (Angstroms) ---  2950 
Final Wavelength (Angstoms) -------  2984 
Wavelength Increment (Angstroms) --  .25 
Filter Wheel #1 Position ---------- (1) Ground quartz diffuser (ND=2.32)
Filter Wheel #2 Position ---------- (1) Neutral Density 0.494



************************************************************
HS scan start time = 02:12:01
Dark Count =  6.6 


Time (GMT)  Wavelength (Ang)  Step Number  Raw Counts  Counts/Second

  132.34        2950.00           1224          34.00       119.44
  132.41        2950.25           1227          33.00       115.08
  132.44        2950.50           1230          36.00       128.16
  132.47        2950.75           1234          32.00       110.72
  132.50        2951.00           1237          35.00       123.80
  132.53        2951.25           1240          39.00       141.24
  132.56        2951.50           1244          31.00       106.36
  132.60        2951.75           1247          29.00        97.65
  132.63        2952.00           1250          30.00       102.01
  132.66        2952.25           1254          33.00       115.08
  132.69        2952.50           1257          32.00       110.72
  132.72        2952.75           1260          37.00       132.52
  132.75        2953.00           1264          36.00       128.16
  132.78        2953.25           1267          40.00       145.60
  132.81        2953.50           1270          38.00       136.88
  132.84        2953.75           1274          30.00       102.01
  132.87        2954.00           1277          37.00       132.52
  132.90        2954.25           1280          39.00       141.24
  132.93        2954.50           1284          36.00       128.16
  132.96        2954.75           1287          29.00        97.65
  132.99        2955.00           1290          34.00       119.44
  133.03        2955.25           1294          27.00        88.93
  133.06        2955.50           1297          35.00       123.80
  133.09        2955.75           1300          34.00       119.44
  133.12        2956.00           1304          38.00       136.88
  133.15        2956.25           1307          37.00       132.52
  133.18        2956.50           1310          33.00       115.08
  133.21        2956.75           1314          42.00       154.32
  133.24        2957.00           1317          38.00       136.88
  133.27        2957.25           1320          38.00       136.88
  133.30        2957.50           1324          45.00       167.39
  133.33        2957.75           1327          40.00       145.60
  133.36        2958.00           1330          45.00       167.39
  133.39        2958.25           1334          43.00       158.68
  133.42        2958.50           1337          45.00       167.39
  133.45        2958.75           1340          45.00       167.39
  133.48        2959.00           1344          45.00       167.39
  133.51        2959.25           1347          46.00       171.75
  133.54        2959.50           1350          69.00       272.02
  133.58        2959.75           1354          81.00       324.33
  133.61        2960.00           1357         124.00       511.78
  133.64        2960.25           1360         157.00       655.63
  133.67        2960.50           1364         189.00       795.13
  133.70        2960.75           1367         242.00      1026.18
  133.73        2961.00           1370         270.00      1148.25
  133.76        2961.25           1373         347.00      1483.93
  133.79        2961.50           1377         851.00      3681.27
  133.82        2961.75           1380        1825.00      7928.46
  133.85        2962.00           1383        2877.00     12516.87
  133.88        2962.25           1387        4831.00     21042.47
  133.91        2962.50           1390        6495.00     28305.85
  133.94        2962.75           1393        8211.00     35799.19
  133.97        2963.00           1397       10757.00     46922.53
  134.00        2963.25           1400       12809.00     55892.49
  134.04        2963.50           1404       15549.00     67876.68
  134.07        2963.75           1407       17403.00     75990.10
  134.10        2964.00           1410       19247.00     84063.30
  134.13        2964.25           1414       21317.00     93130.14
  134.16        2964.50           1417       23222.00    101478.20
  134.19        2964.75           1420       25023.00    109374.00
  134.22        2965.00           1424       27728.00    121239.30
  134.25        2965.25           1427       29531.00    129152.30
  134.28        2965.50           1430       31500.00    137797.70
  134.31        2965.75           1434       33803.00    147914.80
  134.34        2966.00           1437       35246.00    154256.70
  134.38        2966.25           1440       37008.00    162003.50
  134.41        2966.50           1444       39057.00    171016.30
  134.44        2966.75           1447       39742.00    174030.30
  134.47        2967.00           1450       39947.00    174932.40
  134.50        2967.25           1454       40225.00    176155.80
  134.53        2967.50           1457       40286.00    176424.30
  134.56        2967.75           1460       39995.00    175143.60
  134.59        2968.00           1464       39168.00    171504.60
  134.62        2968.25           1467       37847.00    165693.40
  134.65        2968.50           1470       36418.00    159409.10
  134.68        2968.75           1474       34191.00    149619.80
  134.71        2969.00           1477       32118.00    140512.00
  134.74        2969.25           1480       30250.00    132308.80
  134.77        2969.50           1484       27710.00    121160.30
  134.80        2969.75           1487       25908.00    113255.10
  134.83        2970.00           1490       24292.00    106168.80
  134.86        2970.25           1494       21811.00     95294.56
  134.89        2970.50           1497       20137.00     87961.05
  134.92        2970.75           1500       18040.00     78778.56
  134.96        2971.00           1504       15558.00     67916.06
  134.99        2971.25           1507       13444.00     58669.15
  135.02        2971.50           1510       11730.00     51175.29
  135.05        2971.75           1514        9177.00     40018.81
  135.08        2972.00           1517        7483.00     32619.82
  135.11        2972.25           1520        5643.00     24586.50
  135.14        2972.50           1524        3098.00     13480.93
  135.17        2972.75           1527        1644.00      7139.13
  135.20        2973.00           1530         901.00      3899.28
  135.23        2973.25           1534         397.00      1701.91
  135.26        2973.50           1537         280.00      1191.84
  135.29        2973.75           1540         224.00       947.71
  135.32        2974.00           1544         159.00       664.35
  135.35        2974.25           1547         123.00       507.42
  135.39        2974.50           1550          89.00       359.20
  135.42        2974.75           1554          68.00       267.66
  135.45        2975.00           1557          59.00       228.42
  135.48        2975.25           1561          51.00       193.55
  135.51        2975.50           1564          50.00       189.19
  135.54        2975.75           1567          41.00       149.96
  135.57        2976.00           1571          47.00       176.11
  135.60        2976.25           1574          35.00       123.80
  135.63        2976.50           1577          46.00       171.75
  135.66        2976.75           1581          39.00       141.24
  135.69        2977.00           1584          37.00       132.52
  135.72        2977.25           1587          41.00       149.96
  135.75        2977.50           1591          39.00       141.24
  135.78        2977.75           1594          33.00       115.08
  135.82        2978.00           1597          31.00       106.36
  135.85        2978.25           1601          34.00       119.44
  135.88        2978.50           1604          38.00       136.88
  135.91        2978.75           1607          34.00       119.44
  135.94        2979.00           1611          31.00       106.36
  135.97        2979.25           1614          33.00       115.08
  136.00        2979.50           1617          37.00       132.52
  136.03        2979.75           1621          32.00       110.72
  136.06        2980.00           1624          36.00       128.16
  136.09        2980.25           1628          33.00       115.08
  136.12        2980.50           1631          35.00       123.80
  136.15        2980.75           1634          38.00       136.88
  136.18        2981.00           1638          33.00       115.08
  136.21        2981.25           1641          38.00       136.88
  136.25        2981.50           1644          30.00       102.01
  136.28        2981.75           1648          36.00       128.16
  136.31        2982.00           1651          37.00       132.52
  136.34        2982.25           1654          35.00       123.80
  136.37        2982.50           1658          31.00       106.36
  136.40        2982.75           1661          26.00        84.57
  136.43        2983.00           1664          38.00       136.88
  136.46        2983.25           1668          24.00        75.85
  136.49        2983.50           1671          29.00        97.65
  136.52        2983.75           1674          30.00       102.01
  136.55        2984.00           1678          32.00       110.72
HS scan finished at 02:16:46
end
