************************************************************
  HS Scan of (1) Internal mercury lamp
************************************************************
Integration time is 0.2294 seconds per sample
dh180619ElArenosillo 37.1 6.73 2.857833pr1023
************************************************************
Dead Time -------------------------  2.7E-08 
Number of Cycles Used -------------  4 
Starting Wavelength (Angstroms) ---  2950 
Final Wavelength (Angstoms) -------  2984 
Wavelength Increment (Angstroms) --  .25 
Filter Wheel #1 Position ---------- (1) Ground quartz diffuser (ND=2.32)
Filter Wheel #2 Position ---------- (1) Neutral Density 0.494



************************************************************
HS scan start time = 02:23:21
Dark Count =  5.7 


Time (GMT)  Wavelength (Ang)  Step Number  Raw Counts  Counts/Second

  143.67        2950.00           1224          30.00       105.93
  143.73        2950.25           1227          39.00       145.16
  143.76        2950.50           1230          41.00       153.88
  143.79        2950.75           1234          30.00       105.93
  143.83        2951.00           1237          30.00       105.93
  143.86        2951.25           1240          30.00       105.93
  143.89        2951.50           1244          29.00       101.57
  143.92        2951.75           1247          33.00       119.01
  143.95        2952.00           1250          29.00       101.57
  143.98        2952.25           1254          27.00        92.85
  144.01        2952.50           1257          31.00       110.29
  144.04        2952.75           1260          28.00        97.21
  144.07        2953.00           1264          32.00       114.65
  144.10        2953.25           1267          38.00       140.80
  144.13        2953.50           1270          27.00        92.85
  144.16        2953.75           1274          33.00       119.01
  144.19        2954.00           1277          32.00       114.65
  144.22        2954.25           1280          28.00        97.21
  144.25        2954.50           1284          29.00       101.57
  144.28        2954.75           1287          34.00       123.37
  144.32        2955.00           1290          37.00       136.44
  144.35        2955.25           1294          29.00       101.57
  144.38        2955.50           1297          32.00       114.65
  144.41        2955.75           1300          37.00       136.44
  144.44        2956.00           1304          36.00       132.08
  144.47        2956.25           1307          29.00       101.57
  144.50        2956.50           1310          34.00       123.37
  144.53        2956.75           1314          36.00       132.08
  144.56        2957.00           1317          37.00       136.44
  144.59        2957.25           1320          40.00       149.52
  144.62        2957.50           1324          34.00       123.37
  144.65        2957.75           1327          40.00       149.52
  144.68        2958.00           1330          43.00       162.60
  144.71        2958.25           1334          48.00       184.39
  144.74        2958.50           1337          44.00       166.96
  144.77        2958.75           1340          45.00       171.32
  144.81        2959.00           1344          48.00       184.39
  144.84        2959.25           1347          60.00       236.71
  144.87        2959.50           1350          76.00       306.45
  144.90        2959.75           1354          93.00       380.56
  144.93        2960.00           1357         118.00       489.54
  144.96        2960.25           1360         163.00       685.71
  144.99        2960.50           1364         184.00       777.26
  145.02        2960.75           1367         226.00       960.36
  145.05        2961.00           1370         284.00      1213.20
  145.08        2961.25           1373         323.00      1383.23
  145.11        2961.50           1377         550.00      2372.86
  145.14        2961.75           1380        1274.00      5529.60
  145.17        2962.00           1383        2468.00     10736.77
  145.21        2962.25           1387        4691.00     20435.42
  145.24        2962.50           1390        6549.00     28545.53
  145.27        2962.75           1393        8150.00     35536.70
  145.30        2963.00           1397       10493.00     45772.75
  145.33        2963.25           1400       12395.00     54086.34
  145.36        2963.50           1404       15254.00     66589.98
  145.39        2963.75           1407       17142.00     74851.65
  145.42        2964.00           1410       19194.00     83835.16
  145.45        2964.25           1414       21519.00     94019.10
  145.48        2964.50           1417       23345.00    102021.30
  145.51        2964.75           1420       25175.00    110044.50
  145.54        2965.00           1424       27556.00    120488.60
  145.58        2965.25           1427       28960.00    126649.90
  145.61        2965.50           1430       30988.00    135553.20
  145.64        2965.75           1434       33117.00    144904.50
  145.67        2966.00           1437       34894.00    152713.40
  145.70        2966.25           1440       36327.00    159013.00
  145.73        2966.50           1444       38264.00    167531.60
  145.76        2966.75           1447       39124.00    171315.00
  145.79        2967.00           1450       39668.00    173708.60
  145.82        2967.25           1454       39675.00    173739.40
  145.85        2967.50           1457       39780.00    174201.50
  145.88        2967.75           1460       39408.00    172564.60
  145.91        2968.00           1464       38431.00    168266.20
  145.94        2968.25           1467       37048.00    162183.40
  145.97        2968.50           1470       35852.00    156924.60
  146.00        2968.75           1474       33564.00    146868.50
  146.03        2969.00           1477       31933.00    139703.40
  146.07        2969.25           1480       30105.00    131676.10
  146.10        2969.50           1484       27522.00    120339.40
  146.13        2969.75           1487       25673.00    112228.40
  146.16        2970.00           1490       23947.00    104660.20
  146.19        2970.25           1494       21663.00     94650.03
  146.22        2970.50           1497       19774.00     86375.14
  146.25        2970.75           1500       17829.00     77858.80
  146.28        2971.00           1504       15056.00     65723.76
  146.31        2971.25           1507       13245.00     57802.87
  146.34        2971.50           1510       11326.00     49413.31
  146.37        2971.75           1514        8997.00     39236.40
  146.40        2972.00           1517        7443.00     32449.08
  146.43        2972.25           1520        5628.00     24524.96
  146.46        2972.50           1524        3468.00     15099.01
  146.49        2972.75           1527        2109.00      9170.97
  146.53        2973.00           1530        1101.00      4775.25
  146.56        2973.25           1534         419.00      1801.74
  146.59        2973.50           1537         233.00       990.87
  146.62        2973.75           1540         205.00       868.81
  146.65        2974.00           1544         136.00       568.01
  146.68        2974.25           1547         110.00       454.67
  146.71        2974.50           1550          82.00       332.61
  146.74        2974.75           1554          66.00       262.86
  146.77        2975.00           1557          59.00       232.35
  146.80        2975.25           1561          44.00       166.96
  146.83        2975.50           1564          53.00       206.19
  146.86        2975.75           1567          46.00       175.68
  146.89        2976.00           1571          41.00       153.88
  146.92        2976.25           1574          46.00       175.68
  146.95        2976.50           1577          38.00       140.80
  146.98        2976.75           1581          43.00       162.60
  147.02        2977.00           1584          40.00       149.52
  147.05        2977.25           1587          45.00       171.32
  147.08        2977.50           1591          37.00       136.44
  147.11        2977.75           1594          38.00       140.80
  147.14        2978.00           1597          33.00       119.01
  147.17        2978.25           1601          43.00       162.60
  147.20        2978.50           1604          34.00       123.37
  147.23        2978.75           1607          37.00       136.44
  147.26        2979.00           1611          29.00       101.57
  147.29        2979.25           1614          36.00       132.08
  147.32        2979.50           1617          31.00       110.29
  147.35        2979.75           1621          29.00       101.57
  147.38        2980.00           1624          30.00       105.93
  147.41        2980.25           1628          31.00       110.29
  147.44        2980.50           1631          28.00        97.21
  147.47        2980.75           1634          34.00       123.37
  147.50        2981.00           1638          31.00       110.29
  147.54        2981.25           1641          38.00       140.80
  147.57        2981.50           1644          33.00       119.01
  147.60        2981.75           1648          30.00       105.93
  147.63        2982.00           1651          27.00        92.85
  147.66        2982.25           1654          37.00       136.44
  147.70        2982.50           1658          35.00       127.72
  147.73        2982.75           1661          37.00       136.44
  147.76        2983.00           1664          36.00       132.08
  147.79        2983.25           1668          29.00       101.57
  147.82        2983.50           1671          30.00       105.93
  147.85        2983.75           1674          35.00       127.72
  147.88        2984.00           1678          30.00       105.93
HS scan finished at 02:28:06
end
************************************************************
  HS Scan of (1) Internal mercury lamp
************************************************************
Integration time is 0.2294 seconds per sample
dh180619ElArenosillo 37.1 6.73 3.072425pr1023
************************************************************
Dead Time -------------------------  2.7E-08 
Number of Cycles Used -------------  4 
Starting Wavelength (Angstroms) ---  2950 
Final Wavelength (Angstoms) -------  2984 
Wavelength Increment (Angstroms) --  .25 
Filter Wheel #1 Position ---------- (1) Ground quartz diffuser (ND=2.32)
Filter Wheel #2 Position ---------- (1) Neutral Density 0.494



************************************************************
HS scan start time = 21:40:08
Dark Count =  5.3 


Time (GMT)  Wavelength (Ang)  Step Number  Raw Counts  Counts/Second

 1300.46        2950.00           1224          29.00       103.31
 1300.52        2950.25           1227          29.00       103.31
 1300.55        2950.50           1230          29.00       103.31
 1300.59        2950.75           1234          30.00       107.67
 1300.62        2951.00           1237          31.00       112.03
 1300.65        2951.25           1240          31.00       112.03
 1300.68        2951.50           1244          30.00       107.67
 1300.71        2951.75           1247          35.00       129.47
 1300.74        2952.00           1250          29.00       103.31
 1300.77        2952.25           1254          30.00       107.67
 1300.80        2952.50           1257          28.00        98.95
 1300.83        2952.75           1260          38.00       142.55
 1300.86        2953.00           1264          32.00       116.39
 1300.89        2953.25           1267          29.00       103.31
 1300.92        2953.50           1270          27.00        94.59
 1300.95        2953.75           1274          34.00       125.11
 1300.98        2954.00           1277          33.00       120.75
 1301.01        2954.25           1280          37.00       138.19
 1301.04        2954.50           1284          31.00       112.03
 1301.07        2954.75           1287          32.00       116.39
 1301.11        2955.00           1290          33.00       120.75
 1301.14        2955.25           1294          31.00       112.03
 1301.17        2955.50           1297          31.00       112.03
 1301.20        2955.75           1300          36.00       133.83
 1301.23        2956.00           1304          38.00       142.55
 1301.26        2956.25           1307          27.00        94.59
 1301.29        2956.50           1310          30.00       107.67
 1301.32        2956.75           1314          38.00       142.55
 1301.35        2957.00           1317          39.00       146.91
 1301.38        2957.25           1320          42.00       159.98
 1301.41        2957.50           1324          40.00       151.26
 1301.44        2957.75           1327          39.00       146.91
 1301.47        2958.00           1330          44.00       168.70
 1301.50        2958.25           1334          44.00       168.70
 1301.53        2958.50           1337          46.00       177.42
 1301.56        2958.75           1340          46.00       177.42
 1301.59        2959.00           1344          39.00       146.91
 1301.62        2959.25           1347          53.00       207.93
 1301.66        2959.50           1350          72.00       290.76
 1301.69        2959.75           1354          83.00       338.71
 1301.72        2960.00           1357         121.00       504.37
 1301.75        2960.25           1360         162.00       683.10
 1301.78        2960.50           1364         222.00       944.66
 1301.81        2960.75           1367         270.00      1153.92
 1301.84        2961.00           1370         298.00      1275.98
 1301.87        2961.25           1373         354.00      1520.11
 1301.90        2961.50           1377        1061.00      4602.58
 1301.93        2961.75           1380        2282.00      9927.25
 1301.96        2962.00           1383        3751.00     16335.45
 1301.99        2962.25           1387        5970.00     26019.58
 1302.02        2962.50           1390        8106.00     35346.27
 1302.05        2962.75           1393        9988.00     43567.79
 1302.08        2963.00           1397       12279.00     53580.95
 1302.11        2963.25           1400       14031.00     61241.99
 1302.14        2963.50           1404       16500.00     72043.66
 1302.17        2963.75           1407       18624.00     81341.03
 1302.21        2964.00           1410       20583.00     89920.31
 1302.24        2964.25           1414       23397.00    102250.90
 1302.27        2964.50           1417       25424.00    111138.10
 1302.30        2964.75           1420       27318.00    119446.10
 1302.33        2965.00           1424       29564.00    129302.90
 1302.36        2965.25           1427       31504.00    137821.00
 1302.39        2965.50           1430       33489.00    146540.70
 1302.42        2965.75           1434       36124.00    158122.20
 1302.45        2966.00           1437       38194.00    167225.40
 1302.48        2966.25           1440       40212.00    176104.30
 1302.52        2966.50           1444       42065.00    184261.00
 1302.55        2966.75           1447       42769.00    187360.90
 1302.58        2967.00           1450       43017.00    188453.00
 1302.61        2967.25           1454       43252.00    189487.90
 1302.64        2967.50           1457       43281.00    189615.60
 1302.67        2967.75           1460       43299.00    189694.90
 1302.70        2968.00           1464       41826.00    183208.70
 1302.73        2968.25           1467       40285.00    176425.60
 1302.76        2968.50           1470       38598.00    169002.60
 1302.79        2968.75           1474       35901.00    157141.80
 1302.82        2969.00           1477       34120.00    149313.50
 1302.85        2969.25           1480       32414.00    141817.90
 1302.88        2969.50           1484       29799.00    130334.50
 1302.92        2969.75           1487       27473.00    120126.10
 1302.95        2970.00           1490       25467.00    111326.70
 1302.98        2970.25           1494       22635.00     98911.15
 1303.01        2970.50           1497       20533.00     89701.29
 1303.04        2970.75           1500       18979.00     82895.44
 1303.07        2971.00           1504       16313.00     71225.34
 1303.10        2971.25           1507       14363.00     62694.10
 1303.13        2971.50           1510       12375.00     54000.65
 1303.16        2971.75           1514        9669.00     42173.99
 1303.19        2972.00           1517        7828.00     34132.14
 1303.22        2972.25           1520        5735.00     24993.76
 1303.25        2972.50           1524        3193.00     13901.03
 1303.28        2972.75           1527        1742.00      7572.17
 1303.31        2973.00           1530         928.00      4022.67
 1303.34        2973.25           1534         428.00      1842.72
 1303.37        2973.50           1537         282.00      1206.23
 1303.41        2973.75           1540         218.00       927.22
 1303.44        2974.00           1544         177.00       748.49
 1303.47        2974.25           1547         123.00       513.08
 1303.50        2974.50           1550          99.00       408.46
 1303.53        2974.75           1554          60.00       238.45
 1303.56        2975.00           1557          50.00       194.86
 1303.59        2975.25           1561          50.00       194.86
 1303.62        2975.50           1564          46.00       177.42
 1303.65        2975.75           1567          43.00       164.34
 1303.68        2976.00           1571          42.00       159.98
 1303.71        2976.25           1574          38.00       142.55
 1303.74        2976.50           1577          44.00       168.70
 1303.77        2976.75           1581          40.00       151.26
 1303.80        2977.00           1584          38.00       142.55
 1303.84        2977.25           1587          41.00       155.62
 1303.87        2977.50           1591          38.00       142.55
 1303.90        2977.75           1594          36.00       133.83
 1303.93        2978.00           1597          36.00       133.83
 1303.96        2978.25           1601          31.00       112.03
 1303.99        2978.50           1604          33.00       120.75
 1304.02        2978.75           1607          34.00       125.11
 1304.05        2979.00           1611          44.00       168.70
 1304.08        2979.25           1614          34.00       125.11
 1304.11        2979.50           1617          35.00       129.47
 1304.14        2979.75           1621          37.00       138.19
 1304.17        2980.00           1624          37.00       138.19
 1304.20        2980.25           1628          32.00       116.39
 1304.23        2980.50           1631          31.00       112.03
 1304.26        2980.75           1634          33.00       120.75
 1304.30        2981.00           1638          32.00       116.39
 1304.33        2981.25           1641          34.00       125.11
 1304.36        2981.50           1644          31.00       112.03
 1304.39        2981.75           1648          25.00        85.88
 1304.42        2982.00           1651          30.00       107.67
 1304.45        2982.25           1654          36.00       133.83
 1304.48        2982.50           1658          32.00       116.39
 1304.51        2982.75           1661          26.00        90.24
 1304.54        2983.00           1664          33.00       120.75
 1304.57        2983.25           1668          29.00       103.31
 1304.60        2983.50           1671          33.00       120.75
 1304.63        2983.75           1674          35.00       129.47
 1304.66        2984.00           1678          29.00       103.31
HS scan finished at 21:44:53
end
