************************************************************
  HS Scan of (1) Internal mercury lamp
************************************************************
Integration time is 0.2294 seconds per sample
dh150619ElArenosillo 37.1 6.73 2.804185pr1023
************************************************************
Dead Time -------------------------  2.7E-08 
Number of Cycles Used -------------  4 
Starting Wavelength (Angstroms) ---  2950 
Final Wavelength (Angstoms) -------  2984 
Wavelength Increment (Angstroms) --  .25 
Filter Wheel #1 Position ---------- (1) Ground quartz diffuser (ND=2.32)
Filter Wheel #2 Position ---------- (1) Neutral Density 0.494



************************************************************
HS scan start time = 02:19:06
Dark Count =  4.3 


Time (GMT)  Wavelength (Ang)  Step Number  Raw Counts  Counts/Second

  139.43        2950.00           1224          33.00       125.11
  139.50        2950.25           1227          38.00       146.91
  139.53        2950.50           1230          34.00       129.47
  139.56        2950.75           1234          28.00       103.31
  139.59        2951.00           1237          31.00       116.39
  139.62        2951.25           1240          29.00       107.67
  139.65        2951.50           1244          33.00       125.11
  139.68        2951.75           1247          28.00       103.31
  139.71        2952.00           1250          31.00       116.39
  139.74        2952.25           1254          39.00       151.26
  139.77        2952.50           1257          35.00       133.83
  139.80        2952.75           1260          39.00       151.26
  139.83        2953.00           1264          28.00       103.31
  139.86        2953.25           1267          36.00       138.19
  139.89        2953.50           1270          25.00        90.24
  139.92        2953.75           1274          36.00       138.19
  139.96        2954.00           1277          50.00       199.22
  139.99        2954.25           1280          33.00       125.11
  140.02        2954.50           1284          29.00       107.67
  140.05        2954.75           1287          33.00       125.11
  140.08        2955.00           1290          36.00       138.19
  140.11        2955.25           1294          32.00       120.75
  140.14        2955.50           1297          34.00       129.47
  140.17        2955.75           1300          30.00       112.03
  140.20        2956.00           1304          31.00       116.39
  140.23        2956.25           1307          37.00       142.55
  140.26        2956.50           1310          35.00       133.83
  140.29        2956.75           1314          37.00       142.55
  140.32        2957.00           1317          36.00       138.19
  140.35        2957.25           1320          35.00       133.83
  140.38        2957.50           1324          37.00       142.55
  140.41        2957.75           1327          36.00       138.19
  140.44        2958.00           1330          49.00       194.86
  140.47        2958.25           1334          39.00       151.26
  140.51        2958.50           1337          41.00       159.98
  140.54        2958.75           1340          42.00       164.34
  140.57        2959.00           1344          46.00       181.78
  140.60        2959.25           1347          47.00       186.14
  140.63        2959.50           1350          53.00       212.29
  140.66        2959.75           1354          70.00       286.40
  140.69        2960.00           1357         112.00       469.49
  140.72        2960.25           1360         139.00       587.19
  140.75        2960.50           1364         171.00       726.69
  140.78        2960.75           1367         233.00       996.98
  140.81        2961.00           1370         259.00      1110.32
  140.84        2961.25           1373         324.00      1393.69
  140.87        2961.50           1377         721.00      3124.50
  140.90        2961.75           1380        1441.00      6263.92
  140.94        2962.00           1383        2442.00     10629.47
  140.97        2962.25           1387        4652.00     20271.34
  141.00        2962.50           1390        6574.00     28660.80
  141.03        2962.75           1393        8312.00     36250.37
  141.06        2963.00           1397       10923.00     47658.07
  141.09        2963.25           1400       12762.00     55697.03
  141.12        2963.50           1404       14988.00     65432.42
  141.15        2963.75           1407       16817.00     73435.35
  141.18        2964.00           1410       18767.00     81971.54
  141.21        2964.25           1414       21253.00     92859.81
  141.24        2964.50           1417       23200.00    101391.80
  141.27        2964.75           1420       25142.00    109905.90
  141.30        2965.00           1424       27454.00    120047.20
  141.34        2965.25           1427       29006.00    126857.90
  141.37        2965.50           1430       30716.00    134365.00
  141.40        2965.75           1434       32999.00    144392.30
  141.43        2966.00           1437       34856.00    152552.50
  141.46        2966.25           1440       36353.00    159133.40
  141.49        2966.50           1444       38106.00    166842.80
  141.52        2966.75           1447       39041.00    170956.00
  141.55        2967.00           1450       39384.00    172465.10
  141.58        2967.25           1454       39658.00    173670.80
  141.61        2967.50           1457       39651.00    173640.00
  141.64        2967.75           1460       39474.00    172861.10
  141.67        2968.00           1464       38354.00    167933.70
  141.70        2968.25           1467       37021.00    162070.80
  141.74        2968.50           1470       35388.00    154891.00
  141.77        2968.75           1474       33332.00    145855.30
  141.80        2969.00           1477       31606.00    138273.30
  141.83        2969.25           1480       29835.00    130496.90
  141.86        2969.50           1484       27691.00    121087.00
  141.89        2969.75           1487       25790.00    112747.70
  141.92        2970.00           1490       23774.00    103907.90
  141.95        2970.25           1494       21138.00     92355.99
  141.98        2970.50           1497       19342.00     84489.38
  142.02        2970.75           1500       17585.00     76796.83
  142.05        2971.00           1504       15110.00     65966.13
  142.08        2971.25           1507       13320.00     58136.96
  142.11        2971.50           1510       11381.00     49659.83
  142.14        2971.75           1514        8833.00     38526.10
  142.17        2972.00           1517        6959.00     30341.76
  142.20        2972.25           1520        5218.00     22741.51
  142.23        2972.50           1524        3112.00     13552.04
  142.26        2972.75           1527        1861.00      8095.49
  142.29        2973.00           1530        1059.00      4598.22
  142.32        2973.25           1534         448.00      1934.28
  142.35        2973.50           1537         304.00      1306.50
  142.38        2973.75           1540         224.00       957.74
  142.41        2974.00           1544         170.00       722.33
  142.44        2974.25           1547         118.00       495.65
  142.47        2974.50           1550          99.00       412.82
  142.50        2974.75           1554          67.00       273.32
  142.54        2975.00           1557          56.00       225.37
  142.57        2975.25           1561          51.00       203.58
  142.60        2975.50           1564          51.00       203.58
  142.63        2975.75           1567          45.00       177.42
  142.66        2976.00           1571          44.00       173.06
  142.69        2976.25           1574          40.00       155.62
  142.72        2976.50           1577          42.00       164.34
  142.75        2976.75           1581          39.00       151.26
  142.78        2977.00           1584          34.00       129.47
  142.81        2977.25           1587          37.00       142.55
  142.84        2977.50           1591          37.00       142.55
  142.87        2977.75           1594          42.00       164.34
  142.91        2978.00           1597          39.00       151.26
  142.94        2978.25           1601          33.00       125.11
  142.97        2978.50           1604          30.00       112.03
  143.00        2978.75           1607          32.00       120.75
  143.03        2979.00           1611          34.00       129.47
  143.06        2979.25           1614          31.00       116.39
  143.09        2979.50           1617          31.00       116.39
  143.12        2979.75           1621          29.00       107.67
  143.15        2980.00           1624          29.00       107.67
  143.18        2980.25           1628          37.00       142.55
  143.21        2980.50           1631          34.00       129.47
  143.24        2980.75           1634          30.00       112.03
  143.28        2981.00           1638          31.00       116.39
  143.31        2981.25           1641          28.00       103.31
  143.34        2981.50           1644          28.00       103.31
  143.37        2981.75           1648          34.00       129.47
  143.40        2982.00           1651          34.00       129.47
  143.43        2982.25           1654          28.00       103.31
  143.46        2982.50           1658          33.00       125.11
  143.49        2982.75           1661          31.00       116.39
  143.52        2983.00           1664          32.00       120.75
  143.55        2983.25           1668          28.00       103.31
  143.58        2983.50           1671          30.00       112.03
  143.62        2983.75           1674          34.00       129.47
  143.65        2984.00           1678          31.00       116.39
HS scan finished at 02:23:51
end
************************************************************
  HS Scan of (1) Internal mercury lamp
************************************************************
Integration time is 0.2294 seconds per sample
dh150619ElArenosillo 37.1 6.73 2.965129pr1023
************************************************************
Dead Time -------------------------  2.7E-08 
Number of Cycles Used -------------  4 
Starting Wavelength (Angstroms) ---  2950 
Final Wavelength (Angstoms) -------  2984 
Wavelength Increment (Angstroms) --  .25 
Filter Wheel #1 Position ---------- (1) Ground quartz diffuser (ND=2.32)
Filter Wheel #2 Position ---------- (1) Neutral Density 0.494



************************************************************
HS scan start time = 21:40:02
Dark Count =  5.7 


Time (GMT)  Wavelength (Ang)  Step Number  Raw Counts  Counts/Second

 1300.36        2950.00           1224          30.00       105.93
 1300.43        2950.25           1227          30.00       105.93
 1300.46        2950.50           1230          33.00       119.01
 1300.49        2950.75           1234          26.00        88.49
 1300.52        2951.00           1237          34.00       123.37
 1300.55        2951.25           1240          30.00       105.93
 1300.58        2951.50           1244          30.00       105.93
 1300.61        2951.75           1247          29.00       101.57
 1300.64        2952.00           1250          37.00       136.44
 1300.67        2952.25           1254          28.00        97.21
 1300.70        2952.50           1257          33.00       119.01
 1300.73        2952.75           1260          30.00       105.93
 1300.76        2953.00           1264          32.00       114.65
 1300.79        2953.25           1267          31.00       110.29
 1300.82        2953.50           1270          34.00       123.37
 1300.85        2953.75           1274          28.00        97.21
 1300.88        2954.00           1277          33.00       119.01
 1300.91        2954.25           1280          25.00        84.13
 1300.95        2954.50           1284          32.00       114.65
 1300.98        2954.75           1287          35.00       127.72
 1301.01        2955.00           1290          36.00       132.08
 1301.04        2955.25           1294          40.00       149.52
 1301.07        2955.50           1297          31.00       110.29
 1301.10        2955.75           1300          27.00        92.85
 1301.13        2956.00           1304          33.00       119.01
 1301.16        2956.25           1307          34.00       123.37
 1301.19        2956.50           1310          34.00       123.37
 1301.22        2956.75           1314          36.00       132.08
 1301.25        2957.00           1317          48.00       184.39
 1301.28        2957.25           1320          43.00       162.60
 1301.31        2957.50           1324          39.00       145.16
 1301.34        2957.75           1327          36.00       132.08
 1301.37        2958.00           1330          34.00       123.37
 1301.41        2958.25           1334          41.00       153.88
 1301.44        2958.50           1337          51.00       197.47
 1301.47        2958.75           1340          39.00       145.16
 1301.50        2959.00           1344          49.00       188.75
 1301.53        2959.25           1347          48.00       184.39
 1301.56        2959.50           1350          63.00       249.78
 1301.59        2959.75           1354          79.00       319.53
 1301.62        2960.00           1357         111.00       459.03
 1301.65        2960.25           1360         139.00       581.09
 1301.68        2960.50           1364         173.00       729.31
 1301.71        2960.75           1367         236.00      1003.95
 1301.74        2961.00           1370         271.00      1156.53
 1301.77        2961.25           1373         313.00      1339.63
 1301.81        2961.50           1377         793.00      3432.31
 1301.84        2961.75           1380        1621.00      7042.75
 1301.87        2962.00           1383        2841.00     12363.76
 1301.90        2962.25           1387        4829.00     21037.67
 1301.93        2962.50           1390        6440.00     28069.65
 1301.96        2962.75           1393        7954.00     34680.67
 1301.99        2963.00           1397       10342.00     45112.89
 1302.02        2963.25           1400       12381.00     54025.13
 1302.05        2963.50           1404       15083.00     65841.88
 1302.08        2963.75           1407       17096.00     74650.32
 1302.11        2964.00           1410       18816.00     82179.98
 1302.14        2964.25           1414       21045.00     91942.44
 1302.17        2964.50           1417       22810.00     99676.35
 1302.20        2964.75           1420       24536.00    107242.50
 1302.23        2965.00           1424       27074.00    118373.80
 1302.26        2965.25           1427       29002.00    126834.20
 1302.30        2965.50           1430       31019.00    135689.30
 1302.33        2965.75           1434       33393.00    146117.20
 1302.36        2966.00           1437       35015.00    153245.20
 1302.39        2966.25           1440       36581.00    160129.80
 1302.42        2966.50           1444       38643.00    169198.90
 1302.45        2966.75           1447       39348.00    172300.60
 1302.48        2967.00           1450       39762.00    174122.30
 1302.51        2967.25           1454       39995.00    175147.60
 1302.54        2967.50           1457       40084.00    175539.30
 1302.57        2967.75           1460       39991.00    175130.00
 1302.60        2968.00           1464       38928.00    170452.70
 1302.63        2968.25           1467       37748.00    165261.90
 1302.66        2968.50           1470       36300.00    158894.30
 1302.69        2968.75           1474       34142.00    149408.40
 1302.72        2969.00           1477       32205.00    140898.10
 1302.75        2969.25           1480       30377.00    132870.30
 1302.79        2969.50           1484       28268.00    123612.90
 1302.82        2969.75           1487       26005.00    113684.50
 1302.85        2970.00           1490       24486.00    107023.30
 1302.88        2970.25           1494       22058.00     96380.83
 1302.91        2970.50           1497       20275.00     88569.44
 1302.94        2970.75           1500       18262.00     79754.38
 1302.97        2971.00           1504       15721.00     68633.16
 1303.00        2971.25           1507       13642.00     59538.97
 1303.03        2971.50           1510       11730.00     51179.22
 1303.06        2971.75           1514        9421.00     41088.71
 1303.10        2972.00           1517        7701.00     33575.76
 1303.13        2972.25           1520        6164.00     26864.73
 1303.16        2972.50           1524        3560.00     15500.38
 1303.19        2972.75           1527        1933.00      8403.39
 1303.22        2973.00           1530        1026.00      4448.22
 1303.25        2973.25           1534         433.00      1862.78
 1303.28        2973.50           1537         286.00      1221.92
 1303.31        2973.75           1540         204.00       864.45
 1303.34        2974.00           1544         167.00       703.15
 1303.37        2974.25           1547         121.00       502.62
 1303.40        2974.50           1550          90.00       367.48
 1303.43        2974.75           1554          68.00       271.58
 1303.46        2975.00           1557          52.00       201.83
 1303.49        2975.25           1561          46.00       175.68
 1303.53        2975.50           1564          43.00       162.60
 1303.56        2975.75           1567          38.00       140.80
 1303.59        2976.00           1571          39.00       145.16
 1303.62        2976.25           1574          45.00       171.32
 1303.65        2976.50           1577          39.00       145.16
 1303.68        2976.75           1581          35.00       127.72
 1303.71        2977.00           1584          38.00       140.80
 1303.74        2977.25           1587          32.00       114.65
 1303.77        2977.50           1591          42.00       158.24
 1303.80        2977.75           1594          34.00       123.37
 1303.83        2978.00           1597          39.00       145.16
 1303.86        2978.25           1601          34.00       123.37
 1303.89        2978.50           1604          40.00       149.52
 1303.92        2978.75           1607          36.00       132.08
 1303.95        2979.00           1611          29.00       101.57
 1303.99        2979.25           1614          38.00       140.80
 1304.02        2979.50           1617          37.00       136.44
 1304.05        2979.75           1621          33.00       119.01
 1304.08        2980.00           1624          35.00       127.72
 1304.11        2980.25           1628          30.00       105.93
 1304.14        2980.50           1631          26.00        88.49
 1304.17        2980.75           1634          26.00        88.49
 1304.20        2981.00           1638          33.00       119.01
 1304.23        2981.25           1641          34.00       123.37
 1304.26        2981.50           1644          28.00        97.21
 1304.29        2981.75           1648          28.00        97.21
 1304.32        2982.00           1651          30.00       105.93
 1304.35        2982.25           1654          34.00       123.37
 1304.38        2982.50           1658          31.00       110.29
 1304.41        2982.75           1661          31.00       110.29
 1304.44        2983.00           1664          25.00        84.13
 1304.47        2983.25           1668          31.00       110.29
 1304.50        2983.50           1671          32.00       114.65
 1304.53        2983.75           1674          26.00        88.49
 1304.56        2984.00           1678          28.00        97.21
HS scan finished at 21:44:47
end
