************************************************************
  HS Scan of (1) Internal mercury lamp
************************************************************
Integration time is 0.2294 seconds per sample
dh190619ElArenosillo 37.1 6.73 3.072425pr1023
************************************************************
Dead Time -------------------------  2.7E-08 
Number of Cycles Used -------------  4 
Starting Wavelength (Angstroms) ---  2950 
Final Wavelength (Angstoms) -------  2984 
Wavelength Increment (Angstroms) --  .25 
Filter Wheel #1 Position ---------- (1) Ground quartz diffuser (ND=2.32)
Filter Wheel #2 Position ---------- (1) Neutral Density 0.494



************************************************************
HS scan start time = 02:24:08
Dark Count =  8.3 


Time (GMT)  Wavelength (Ang)  Step Number  Raw Counts  Counts/Second

  144.45        2950.00           1224          38.00       129.47
  144.52        2950.25           1227          28.00        85.88
  144.55        2950.50           1230          40.00       138.19
  144.58        2950.75           1234          33.00       107.67
  144.61        2951.00           1237          30.00        94.59
  144.64        2951.25           1240          29.00        90.24
  144.67        2951.50           1244          39.00       133.83
  144.70        2951.75           1247          35.00       116.39
  144.73        2952.00           1250          29.00        90.24
  144.76        2952.25           1254          32.00       103.31
  144.79        2952.50           1257          32.00       103.31
  144.82        2952.75           1260          31.00        98.95
  144.85        2953.00           1264          32.00       103.31
  144.89        2953.25           1267          33.00       107.67
  144.92        2953.50           1270          28.00        85.88
  144.95        2953.75           1274          32.00       103.31
  144.98        2954.00           1277          28.00        85.88
  145.01        2954.25           1280          42.00       146.91
  145.04        2954.50           1284          35.00       116.39
  145.07        2954.75           1287          35.00       116.39
  145.10        2955.00           1290          30.00        94.59
  145.13        2955.25           1294          35.00       116.39
  145.16        2955.50           1297          28.00        85.88
  145.19        2955.75           1300          34.00       112.03
  145.22        2956.00           1304          33.00       107.67
  145.25        2956.25           1307          35.00       116.39
  145.28        2956.50           1310          36.00       120.75
  145.31        2956.75           1314          38.00       129.47
  145.34        2957.00           1317          28.00        85.88
  145.37        2957.25           1320          36.00       120.75
  145.41        2957.50           1324          43.00       151.26
  145.44        2957.75           1327          39.00       133.83
  145.47        2958.00           1330          51.00       186.14
  145.50        2958.25           1334          48.00       173.06
  145.53        2958.50           1337          45.00       159.98
  145.56        2958.75           1340          36.00       120.75
  145.59        2959.00           1344          48.00       173.06
  145.62        2959.25           1347          49.00       177.42
  145.65        2959.50           1350          65.00       247.17
  145.68        2959.75           1354          91.00       360.51
  145.71        2960.00           1357         119.00       482.57
  145.75        2960.25           1360         155.00       639.51
  145.78        2960.50           1364         195.00       813.88
  145.81        2960.75           1367         266.00      1123.40
  145.84        2961.00           1370         295.00      1249.82
  145.87        2961.25           1373         362.00      1541.91
  145.90        2961.50           1377         953.00      4118.59
  145.93        2961.75           1380        2014.00      8745.31
  145.96        2962.00           1383        3479.00     15135.65
  145.99        2962.25           1387        5589.00     24343.37
  146.02        2962.50           1390        7276.00     31708.48
  146.05        2962.75           1393        9012.00     39290.57
  146.08        2963.00           1397       11861.00     51740.50
  146.11        2963.25           1400       14111.00     61578.76
  146.14        2963.50           1404       17093.00     74625.80
  146.18        2963.75           1407       19324.00     84393.04
  146.21        2964.00           1410       21125.00     92281.52
  146.24        2964.25           1414       23570.00    102996.10
  146.27        2964.50           1417       25513.00    111515.30
  146.30        2964.75           1420       27420.00    119880.40
  146.33        2965.00           1424       30299.00    132516.50
  146.36        2965.25           1427       32352.00    141532.40
  146.39        2965.50           1430       34507.00    151001.00
  146.42        2965.75           1434       36827.00    161200.10
  146.45        2966.00           1437       38617.00    169073.00
  146.48        2966.25           1440       40529.00    177486.30
  146.52        2966.50           1444       42782.00    187404.90
  146.55        2966.75           1447       43388.00    190073.70
  146.58        2967.00           1450       43880.00    192240.70
  146.61        2967.25           1454       44073.00    193090.80
  146.64        2967.50           1457       44110.00    193253.80
  146.67        2967.75           1460       43705.00    191469.90
  146.70        2968.00           1464       42779.00    187391.70
  146.73        2968.25           1467       41370.00    181188.10
  146.76        2968.50           1470       39705.00    173860.00
  146.79        2968.75           1474       37201.00    162844.80
  146.82        2969.00           1477       35124.00    153712.90
  146.85        2969.25           1480       33198.00    145249.00
  146.89        2969.50           1484       30606.00    133864.40
  146.92        2969.75           1487       28399.00    124176.30
  146.95        2970.00           1490       26478.00    115747.80
  146.98        2970.25           1494       23877.00    104341.90
  147.01        2970.50           1497       21920.00     95764.74
  147.04        2970.75           1500       19834.00     86626.52
  147.07        2971.00           1504       16975.00     74109.35
  147.10        2971.25           1507       14839.00     64763.10
  147.13        2971.50           1510       12716.00     55478.42
  147.16        2971.75           1514       10029.00     43733.83
  147.20        2972.00           1517        8133.00     35451.09
  147.23        2972.25           1520        6144.00     26766.07
  147.26        2972.50           1524        3430.00     14921.88
  147.29        2972.75           1527        1829.00      7938.49
  147.32        2973.00           1530         965.00      4170.91
  147.35        2973.25           1534         411.00      1755.53
  147.38        2973.50           1537         294.00      1245.46
  147.41        2973.75           1540         217.00       909.79
  147.44        2974.00           1544         170.00       704.90
  147.47        2974.25           1547         127.00       517.44
  147.50        2974.50           1550          99.00       395.38
  147.53        2974.75           1554          71.00       273.32
  147.56        2975.00           1557          51.00       186.14
  147.59        2975.25           1561          48.00       173.06
  147.62        2975.50           1564          43.00       151.26
  147.65        2975.75           1567          44.00       155.62
  147.69        2976.00           1571          39.00       133.83
  147.72        2976.25           1574          40.00       138.19
  147.75        2976.50           1577          42.00       146.91
  147.78        2976.75           1581          36.00       120.75
  147.81        2977.00           1584          40.00       138.19
  147.84        2977.25           1587          41.00       142.55
  147.87        2977.50           1591          40.00       138.19
  147.90        2977.75           1594          45.00       159.98
  147.93        2978.00           1597          34.00       112.03
  147.96        2978.25           1601          35.00       116.39
  147.99        2978.50           1604          34.00       112.03
  148.02        2978.75           1607          37.00       125.11
  148.05        2979.00           1611          34.00       112.03
  148.09        2979.25           1614          35.00       116.39
  148.12        2979.50           1617          29.00        90.24
  148.15        2979.75           1621          28.00        85.88
  148.18        2980.00           1624          34.00       112.03
  148.21        2980.25           1628          34.00       112.03
  148.24        2980.50           1631          28.00        85.88
  148.27        2980.75           1634          37.00       125.11
  148.30        2981.00           1638          27.00        81.52
  148.33        2981.25           1641          32.00       103.31
  148.36        2981.50           1644          33.00       107.67
  148.39        2981.75           1648          29.00        90.24
  148.42        2982.00           1651          30.00        94.59
  148.45        2982.25           1654          33.00       107.67
  148.49        2982.50           1658          34.00       112.03
  148.52        2982.75           1661          31.00        98.95
  148.55        2983.00           1664          33.00       107.67
  148.58        2983.25           1668          28.00        85.88
  148.61        2983.50           1671          30.00        94.59
  148.64        2983.75           1674          28.00        85.88
  148.67        2984.00           1678          29.00        90.24
HS scan finished at 02:28:53
end
