************************************************************
  HS Scan of (1) Internal mercury lamp
************************************************************
Integration time is 0.2294 seconds per sample
dh220619ElArenosillo 37.1 6.73 3.126073pr1023
************************************************************
Dead Time -------------------------  2.7E-08 
Number of Cycles Used -------------  4 
Starting Wavelength (Angstroms) ---  2950 
Final Wavelength (Angstoms) -------  2984 
Wavelength Increment (Angstroms) --  .25 
Filter Wheel #1 Position ---------- (1) Ground quartz diffuser (ND=2.32)
Filter Wheel #2 Position ---------- (1) Neutral Density 0.494



************************************************************
HS scan start time = 02:20:58
Dark Count =  6.2 


Time (GMT)  Wavelength (Ang)  Step Number  Raw Counts  Counts/Second

  141.29        2950.00           1224          32.00       112.47
  141.36        2950.25           1227          34.00       121.19
  141.39        2950.50           1230          36.00       129.90
  141.42        2950.75           1234          31.00       108.11
  141.45        2951.00           1237          38.00       138.62
  141.48        2951.25           1240          25.00        81.95
  141.51        2951.50           1244          24.00        77.59
  141.54        2951.75           1247          31.00       108.11
  141.57        2952.00           1250          31.00       108.11
  141.60        2952.25           1254          30.00       103.75
  141.63        2952.50           1257          31.00       108.11
  141.67        2952.75           1260          34.00       121.19
  141.70        2953.00           1264          34.00       121.19
  141.73        2953.25           1267          38.00       138.62
  141.76        2953.50           1270          31.00       108.11
  141.79        2953.75           1274          34.00       121.19
  141.82        2954.00           1277          30.00       103.75
  141.85        2954.25           1280          33.00       116.83
  141.88        2954.50           1284          37.00       134.26
  141.91        2954.75           1287          31.00       108.11
  141.94        2955.00           1290          30.00       103.75
  141.97        2955.25           1294          47.00       177.86
  142.00        2955.50           1297          34.00       121.19
  142.03        2955.75           1300          35.00       125.55
  142.06        2956.00           1304          34.00       121.19
  142.09        2956.25           1307          31.00       108.11
  142.13        2956.50           1310          36.00       129.90
  142.16        2956.75           1314          36.00       129.90
  142.19        2957.00           1317          37.00       134.26
  142.22        2957.25           1320          35.00       125.55
  142.25        2957.50           1324          40.00       147.34
  142.28        2957.75           1327          44.00       164.78
  142.31        2958.00           1330          40.00       147.34
  142.34        2958.25           1334          42.00       156.06
  142.37        2958.50           1337          39.00       142.98
  142.40        2958.75           1340          46.00       173.50
  142.43        2959.00           1344          51.00       195.29
  142.46        2959.25           1347          56.00       217.09
  142.49        2959.50           1350          73.00       291.20
  142.52        2959.75           1354          98.00       400.18
  142.55        2960.00           1357         138.00       574.55
  142.58        2960.25           1360         191.00       805.60
  142.62        2960.50           1364         218.00       923.30
  142.65        2960.75           1367         279.00      1189.23
  142.68        2961.00           1370         307.00      1311.29
  142.71        2961.25           1373         371.00      1590.30
  142.74        2961.50           1377         888.00      3844.34
  142.77        2961.75           1380        1961.00      8523.32
  142.80        2962.00           1383        3364.00     14643.10
  142.83        2962.25           1387        5449.00     23741.46
  142.86        2962.50           1390        7233.00     31529.88
  142.89        2962.75           1393        9321.00     40649.65
  142.92        2963.00           1397       12395.00     54084.15
  142.95        2963.25           1400       14845.00     64798.54
  142.99        2963.50           1404       17609.00     76893.57
  143.02        2963.75           1407       19915.00     86990.49
  143.05        2964.00           1410       21991.00     96085.06
  143.08        2964.25           1414       24843.00    108586.40
  143.11        2964.50           1417       26908.00    117643.40
  143.14        2964.75           1420       28839.00    126116.60
  143.17        2965.00           1424       31200.00    136482.00
  143.20        2965.25           1427       33107.00    144858.40
  143.23        2965.50           1430       34986.00    153115.60
  143.27        2965.75           1434       37360.00    163553.30
  143.30        2966.00           1437       39116.00    171277.60
  143.33        2966.25           1440       40858.00    178943.60
  143.36        2966.50           1444       43124.00    188920.20
  143.39        2966.75           1447       44286.00    194038.40
  143.42        2967.00           1450       44697.00    195849.00
  143.45        2967.25           1454       44925.00    196853.50
  143.48        2967.50           1457       44674.00    195747.60
  143.51        2967.75           1460       44539.00    195152.90
  143.54        2968.00           1464       43251.00    189479.60
  143.57        2968.25           1467       41602.00    182218.60
  143.60        2968.50           1470       40077.00    175506.30
  143.63        2968.75           1474       37311.00    163337.80
  143.66        2969.00           1477       35213.00    154113.40
  143.69        2969.25           1480       33434.00    146295.10
  143.73        2969.50           1484       30793.00    134694.70
  143.76        2969.75           1487       29171.00    127573.80
  143.79        2970.00           1490       27125.00    118595.40
  143.82        2970.25           1494       23915.00    104517.70
  143.85        2970.50           1497       21709.00     94849.39
  143.88        2970.75           1500       19630.00     85742.30
  143.91        2971.00           1504       16773.00     73234.47
  143.94        2971.25           1507       14656.00     63971.78
  143.97        2971.50           1510       12590.00     54936.70
  144.00        2971.75           1514        9798.00     42733.67
  144.03        2972.00           1517        8069.00     35180.74
  144.06        2972.25           1520        6249.00     27233.62
  144.09        2972.50           1524        3567.00     15528.74
  144.12        2972.75           1527        1887.00      8200.60
  144.15        2973.00           1530         953.00      4127.75
  144.18        2973.25           1534         417.00      1790.85
  144.22        2973.50           1537         267.00      1136.91
  144.25        2973.75           1540         215.00       910.22
  144.28        2974.00           1544         149.00       622.50
  144.31        2974.25           1547         106.00       435.05
  144.34        2974.50           1550          87.00       352.23
  144.37        2974.75           1554          67.00       265.04
  144.40        2975.00           1557          60.00       234.53
  144.43        2975.25           1561          51.00       195.29
  144.46        2975.50           1564          47.00       177.86
  144.49        2975.75           1567          48.00       182.22
  144.52        2976.00           1571          53.00       204.01
  144.55        2976.25           1574          44.00       164.78
  144.58        2976.50           1577          50.00       190.93
  144.61        2976.75           1581          45.00       169.14
  144.65        2977.00           1584          37.00       134.26
  144.68        2977.25           1587          37.00       134.26
  144.71        2977.50           1591          44.00       164.78
  144.74        2977.75           1594          36.00       129.90
  144.77        2978.00           1597          37.00       134.26
  144.80        2978.25           1601          34.00       121.19
  144.83        2978.50           1604          36.00       129.90
  144.86        2978.75           1607          47.00       177.86
  144.89        2979.00           1611          34.00       121.19
  144.92        2979.25           1614          35.00       125.55
  144.95        2979.50           1617          36.00       129.90
  144.98        2979.75           1621          33.00       116.83
  145.01        2980.00           1624          34.00       121.19
  145.04        2980.25           1628          33.00       116.83
  145.08        2980.50           1631          31.00       108.11
  145.11        2980.75           1634          29.00        99.39
  145.14        2981.00           1638          36.00       129.90
  145.17        2981.25           1641          36.00       129.90
  145.20        2981.50           1644          32.00       112.47
  145.23        2981.75           1648          41.00       151.70
  145.26        2982.00           1651          33.00       116.83
  145.29        2982.25           1654          31.00       108.11
  145.32        2982.50           1658          31.00       108.11
  145.35        2982.75           1661          47.00       177.86
  145.38        2983.00           1664          29.00        99.39
  145.41        2983.25           1668          35.00       125.55
  145.44        2983.50           1671          31.00       108.11
  145.47        2983.75           1674          32.00       112.47
  145.51        2984.00           1678          29.00        99.39
HS scan finished at 02:25:43
end
************************************************************
  HS Scan of (1) Internal mercury lamp
************************************************************
Integration time is 0.2294 seconds per sample
dh220619ElArenosillo 37.1 6.73 3.018777pr1023
************************************************************
Dead Time -------------------------  2.7E-08 
Number of Cycles Used -------------  4 
Starting Wavelength (Angstroms) ---  2950 
Final Wavelength (Angstoms) -------  2984 
Wavelength Increment (Angstroms) --  .25 
Filter Wheel #1 Position ---------- (1) Ground quartz diffuser (ND=2.32)
Filter Wheel #2 Position ---------- (1) Neutral Density 0.494



************************************************************
HS scan start time = 21:35:38
Dark Count =  5.1 


Time (GMT)  Wavelength (Ang)  Step Number  Raw Counts  Counts/Second

 1295.96        2950.00           1224          25.00        86.75
 1296.03        2950.25           1227          30.00       108.54
 1296.06        2950.50           1230          33.00       121.62
 1296.09        2950.75           1234          29.00       104.19
 1296.12        2951.00           1237          32.00       117.26
 1296.15        2951.25           1240          32.00       117.26
 1296.18        2951.50           1244          33.00       121.62
 1296.21        2951.75           1247          31.00       112.90
 1296.24        2952.00           1250          32.00       117.26
 1296.28        2952.25           1254          34.00       125.98
 1296.31        2952.50           1257          34.00       125.98
 1296.34        2952.75           1260          33.00       121.62
 1296.37        2953.00           1264          28.00        99.83
 1296.40        2953.25           1267          29.00       104.19
 1296.43        2953.50           1270          31.00       112.90
 1296.46        2953.75           1274          27.00        95.47
 1296.49        2954.00           1277          36.00       134.70
 1296.52        2954.25           1280          38.00       143.42
 1296.55        2954.50           1284          33.00       121.62
 1296.58        2954.75           1287          33.00       121.62
 1296.61        2955.00           1290          34.00       125.98
 1296.64        2955.25           1294          39.00       147.78
 1296.67        2955.50           1297          39.00       147.78
 1296.70        2955.75           1300          41.00       156.50
 1296.73        2956.00           1304          44.00       169.57
 1296.76        2956.25           1307          37.00       139.06
 1296.79        2956.50           1310          32.00       117.26
 1296.83        2956.75           1314          35.00       130.34
 1296.86        2957.00           1317          35.00       130.34
 1296.89        2957.25           1320          36.00       134.70
 1296.92        2957.50           1324          35.00       130.34
 1296.95        2957.75           1327          37.00       139.06
 1296.98        2958.00           1330          45.00       173.93
 1297.01        2958.25           1334          44.00       169.57
 1297.04        2958.50           1337          46.00       178.29
 1297.07        2958.75           1340          44.00       169.57
 1297.10        2959.00           1344          44.00       169.57
 1297.13        2959.25           1347          56.00       221.88
 1297.16        2959.50           1350          70.00       282.91
 1297.19        2959.75           1354          96.00       396.26
 1297.22        2960.00           1357         117.00       487.80
 1297.25        2960.25           1360         164.00       692.69
 1297.29        2960.50           1364         184.00       779.88
 1297.32        2960.75           1367         243.00      1037.08
 1297.35        2961.00           1370         298.00      1276.85
 1297.38        2961.25           1373         361.00      1551.50
 1297.41        2961.50           1377         919.00      3984.30
 1297.44        2961.75           1380        1841.00      8004.78
 1297.47        2962.00           1383        3199.00     13928.08
 1297.50        2962.25           1387        5210.00     22703.10
 1297.53        2962.50           1390        6930.00     30211.64
 1297.56        2962.75           1393        8600.00     37504.83
 1297.59        2963.00           1397       11236.00     49022.57
 1297.62        2963.25           1400       13437.00     58645.10
 1297.66        2963.50           1404       16325.00     71278.73
 1297.69        2963.75           1407       18397.00     80348.06
 1297.72        2964.00           1410       20252.00     88471.33
 1297.75        2964.25           1414       22592.00     98723.58
 1297.78        2964.50           1417       24337.00    106372.60
 1297.81        2964.75           1420       26282.00    114902.10
 1297.84        2965.00           1424       29112.00    127319.70
 1297.87        2965.25           1427       31031.00    135744.70
 1297.90        2965.50           1430       33238.00    145438.80
 1297.93        2965.75           1434       35481.00    155296.30
 1297.96        2966.00           1437       37335.00    163448.20
 1297.99        2966.25           1440       38919.00    170415.70
 1298.03        2966.50           1444       40946.00    179335.80
 1298.07        2966.75           1447       41867.00    183390.10
 1298.11        2967.00           1450       42358.00    185552.00
 1298.15        2967.25           1454       42540.00    186353.40
 1298.18        2967.50           1457       42504.00    186194.80
 1298.21        2967.75           1460       42413.00    185794.10
 1298.24        2968.00           1464       41262.00    180726.70
 1298.27        2968.25           1467       39932.00    174873.00
 1298.30        2968.50           1470       38605.00    169034.30
 1298.33        2968.75           1474       36255.00    158699.00
 1298.36        2969.00           1477       34109.00    149266.00
 1298.40        2969.25           1480       32274.00    141203.90
 1298.43        2969.50           1484       29611.00    129510.10
 1298.46        2969.75           1487       27539.00    120416.60
 1298.49        2970.00           1490       25907.00    113257.30
 1298.52        2970.25           1494       23358.00    102080.90
 1298.55        2970.50           1497       21249.00     92838.80
 1298.58        2970.75           1500       19354.00     84538.43
 1298.61        2971.00           1504       16469.00     71908.88
 1298.64        2971.25           1507       14443.00     63044.89
 1298.67        2971.50           1510       12412.00     54163.29
 1298.71        2971.75           1514        9774.00     42633.62
 1298.74        2972.00           1517        8118.00     35399.56
 1298.77        2972.25           1520        6165.00     26871.71
 1298.80        2972.50           1524        3513.00     15297.95
 1298.83        2972.75           1527        1892.00      8227.20
 1298.86        2973.00           1530         964.00      4180.51
 1298.89        2973.25           1534         440.00      1895.91
 1298.92        2973.50           1537         291.00      1246.34
 1298.95        2973.75           1540         231.00       984.77
 1298.98        2974.00           1544         166.00       701.41
 1299.01        2974.25           1547         125.00       522.68
 1299.04        2974.50           1550          92.00       378.82
 1299.07        2974.75           1554          60.00       239.32
 1299.10        2975.00           1557          58.00       230.60
 1299.13        2975.25           1561          46.00       178.29
 1299.17        2975.50           1564          47.00       182.65
 1299.20        2975.75           1567          46.00       178.29
 1299.23        2976.00           1571          47.00       182.65
 1299.26        2976.25           1574          42.00       160.86
 1299.29        2976.50           1577          41.00       156.50
 1299.32        2976.75           1581          33.00       121.62
 1299.35        2977.00           1584          36.00       134.70
 1299.38        2977.25           1587          38.00       143.42
 1299.41        2977.50           1591          32.00       117.26
 1299.44        2977.75           1594          40.00       152.14
 1299.47        2978.00           1597          31.00       112.90
 1299.50        2978.25           1601          38.00       143.42
 1299.53        2978.50           1604          29.00       104.19
 1299.56        2978.75           1607          40.00       152.14
 1299.60        2979.00           1611          34.00       125.98
 1299.63        2979.25           1614          34.00       125.98
 1299.66        2979.50           1617          36.00       134.70
 1299.69        2979.75           1621          33.00       121.62
 1299.72        2980.00           1624          35.00       130.34
 1299.75        2980.25           1628          31.00       112.90
 1299.78        2980.50           1631          32.00       117.26
 1299.81        2980.75           1634          32.00       117.26
 1299.84        2981.00           1638          30.00       108.54
 1299.87        2981.25           1641          36.00       134.70
 1299.90        2981.50           1644          27.00        95.47
 1299.93        2981.75           1648          36.00       134.70
 1299.96        2982.00           1651          33.00       121.62
 1299.99        2982.25           1654          29.00       104.19
 1300.03        2982.50           1658          30.00       108.54
 1300.06        2982.75           1661          31.00       112.90
 1300.09        2983.00           1664          32.00       117.26
 1300.12        2983.25           1668          28.00        99.83
 1300.15        2983.50           1671          49.00       191.37
 1300.18        2983.75           1674          30.00       108.54
 1300.21        2984.00           1678          29.00       104.19
HS scan finished at 21:40:25
end
