************************************************************
  HS Scan of (1) Internal mercury lamp
************************************************************
Integration time is 0.2294 seconds per sample
dh260619ElArenosillo 37.1 6.73 3.072425pr1023
************************************************************
Dead Time -------------------------  2.7E-08 
Number of Cycles Used -------------  4 
Starting Wavelength (Angstroms) ---  2950 
Final Wavelength (Angstoms) -------  2984 
Wavelength Increment (Angstroms) --  .25 
Filter Wheel #1 Position ---------- (1) Ground quartz diffuser (ND=2.32)
Filter Wheel #2 Position ---------- (1) Neutral Density 0.494



************************************************************
HS scan start time = 02:34:46
Dark Count =  4.9 


Time (GMT)  Wavelength (Ang)  Step Number  Raw Counts  Counts/Second

  155.10        2950.00           1224          32.00       118.13
  155.17        2950.25           1227          29.00       105.06
  155.20        2950.50           1230          36.00       135.57
  155.23        2950.75           1234          31.00       113.78
  155.26        2951.00           1237          32.00       118.13
  155.29        2951.25           1240          34.00       126.85
  155.32        2951.50           1244          35.00       131.21
  155.35        2951.75           1247          37.00       139.93
  155.38        2952.00           1250          33.00       122.49
  155.41        2952.25           1254          38.00       144.29
  155.44        2952.50           1257          36.00       135.57
  155.47        2952.75           1260          34.00       126.85
  155.50        2953.00           1264          31.00       113.78
  155.53        2953.25           1267          34.00       126.85
  155.56        2953.50           1270          29.00       105.06
  155.59        2953.75           1274          34.00       126.85
  155.63        2954.00           1277          31.00       113.78
  155.66        2954.25           1280          39.00       148.65
  155.69        2954.50           1284          36.00       135.57
  155.72        2954.75           1287          36.00       135.57
  155.75        2955.00           1290          33.00       122.49
  155.78        2955.25           1294          30.00       109.42
  155.81        2955.50           1297          35.00       131.21
  155.84        2955.75           1300          36.00       135.57
  155.87        2956.00           1304          33.00       122.49
  155.90        2956.25           1307          36.00       135.57
  155.93        2956.50           1310          32.00       118.13
  155.96        2956.75           1314          36.00       135.57
  155.99        2957.00           1317          33.00       122.49
  156.02        2957.25           1320          36.00       135.57
  156.05        2957.50           1324          47.00       183.52
  156.08        2957.75           1327          44.00       170.45
  156.11        2958.00           1330          48.00       187.88
  156.14        2958.25           1334          53.00       209.68
  156.18        2958.50           1337          40.00       153.01
  156.21        2958.75           1340          42.00       161.73
  156.24        2959.00           1344          49.00       192.24
  156.27        2959.25           1347          54.00       214.04
  156.30        2959.50           1350          74.00       301.22
  156.33        2959.75           1354          95.00       392.77
  156.36        2960.00           1357         127.00       532.27
  156.39        2960.25           1360         169.00       715.36
  156.42        2960.50           1364         203.00       863.58
  156.45        2960.75           1367         265.00      1133.86
  156.48        2961.00           1370         297.00      1273.37
  156.51        2961.25           1373         363.00      1561.09
  156.54        2961.50           1377         907.00      3932.85
  156.57        2961.75           1380        1875.00      8153.93
  156.60        2962.00           1383        3125.00     13606.13
  156.65        2962.25           1387        5119.00     22306.81
  156.68        2962.50           1390        6840.00     29819.56
  156.71        2962.75           1393        8729.00     38069.19
  156.74        2963.00           1397       11526.00     50290.99
  156.77        2963.25           1400       13750.00     60014.78
  156.80        2963.50           1404       16841.00     73537.75
  156.83        2963.75           1407       18697.00     81662.41
  156.87        2964.00           1410       20672.00     90311.93
  156.90        2964.25           1414       22950.00    100293.40
  156.93        2964.50           1417       24771.00    108276.40
  156.96        2964.75           1420       27057.00    118302.70
  156.99        2965.00           1424       29904.00    130797.20
  157.02        2965.25           1427       31997.00    139988.00
  157.05        2965.50           1430       34110.00    149271.30
  157.08        2965.75           1434       36417.00    159412.20
  157.11        2966.00           1437       37971.00    166246.30
  157.14        2966.25           1440       39995.00    175151.10
  157.18        2966.50           1444       42022.00    184073.40
  157.21        2966.75           1447       42948.00    188150.90
  157.24        2967.00           1450       43404.00    190159.10
  157.27        2967.25           1454       43631.00    191158.90
  157.30        2967.50           1457       43622.00    191119.30
  157.33        2967.75           1460       43374.00    190027.00
  157.36        2968.00           1464       42449.00    185953.50
  157.39        2968.25           1467       41199.00    180450.30
  157.42        2968.50           1470       39556.00    173219.30
  157.45        2968.75           1474       37097.00    162402.40
  157.48        2969.00           1477       35053.00    153415.80
  157.51        2969.25           1480       33011.00    144442.40
  157.55        2969.50           1484       30252.00    132325.00
  157.58        2969.75           1487       28396.00    124178.10
  157.61        2970.00           1490       26406.00    115446.90
  157.64        2970.25           1494       23878.00    104361.20
  157.67        2970.50           1497       21844.00     95446.62
  157.70        2970.75           1500       19631.00     85752.38
  157.73        2971.00           1504       16966.00     74084.83
  157.76        2971.25           1507       14891.00     65005.45
  157.79        2971.50           1510       12911.00     56345.90
  157.82        2971.75           1514       10423.00     45470.35
  157.86        2972.00           1517        8477.00     36968.44
  157.89        2972.25           1520        6223.00     27125.79
  157.92        2972.50           1524        3497.00     15229.02
  157.95        2972.75           1527        1911.00      8310.93
  157.98        2973.00           1530         942.00      4085.45
  158.01        2973.25           1534         452.00      1949.10
  158.04        2973.50           1537         300.00      1286.44
  158.07        2973.75           1540         225.00       959.48
  158.10        2974.00           1544         163.00       689.20
  158.13        2974.25           1547         124.00       519.19
  158.16        2974.50           1550          94.00       388.41
  158.19        2974.75           1554          63.00       253.27
  158.22        2975.00           1557          66.00       266.35
  158.25        2975.25           1561          47.00       183.52
  158.29        2975.50           1564          57.00       227.12
  158.32        2975.75           1567          53.00       209.68
  158.35        2976.00           1571          46.00       179.16
  158.38        2976.25           1574          44.00       170.45
  158.41        2976.50           1577          53.00       209.68
  158.44        2976.75           1581          48.00       187.88
  158.47        2977.00           1584          41.00       157.37
  158.50        2977.25           1587          43.00       166.09
  158.53        2977.50           1591          42.00       161.73
  158.56        2977.75           1594          40.00       153.01
  158.59        2978.00           1597          42.00       161.73
  158.62        2978.25           1601          42.00       161.73
  158.65        2978.50           1604          41.00       157.37
  158.68        2978.75           1607          31.00       113.78
  158.72        2979.00           1611          40.00       153.01
  158.75        2979.25           1614          33.00       122.49
  158.78        2979.50           1617          27.00        96.34
  158.81        2979.75           1621          36.00       135.57
  158.84        2980.00           1624          33.00       122.49
  158.87        2980.25           1628          32.00       118.13
  158.90        2980.50           1631          30.00       109.42
  158.93        2980.75           1634          41.00       157.37
  158.96        2981.00           1638          32.00       118.13
  158.99        2981.25           1641          34.00       126.85
  159.02        2981.50           1644          26.00        91.98
  159.05        2981.75           1648          30.00       109.42
  159.08        2982.00           1651          28.00       100.70
  159.12        2982.25           1654          35.00       131.21
  159.15        2982.50           1658          34.00       126.85
  159.18        2982.75           1661          28.00       100.70
  159.21        2983.00           1664          38.00       144.29
  159.24        2983.25           1668          30.00       109.42
  159.27        2983.50           1671          35.00       131.21
  159.30        2983.75           1674          38.00       144.29
  159.33        2984.00           1678          36.00       135.57
HS scan finished at 02:39:33
end
