************************************************************
  HS Scan of (1) Internal mercury lamp
************************************************************
Integration time is 0.2294 seconds per sample
dh240619ElArenosillo 37.1 6.73 3.018777pr1023
************************************************************
Dead Time -------------------------  2.7E-08 
Number of Cycles Used -------------  4 
Starting Wavelength (Angstroms) ---  2950 
Final Wavelength (Angstoms) -------  2984 
Wavelength Increment (Angstroms) --  .25 
Filter Wheel #1 Position ---------- (1) Ground quartz diffuser (ND=2.32)
Filter Wheel #2 Position ---------- (1) Neutral Density 0.494



************************************************************
HS scan start time = 02:13:58
Dark Count =  6.4 


Time (GMT)  Wavelength (Ang)  Step Number  Raw Counts  Counts/Second

  134.28        2950.00           1224          34.00       120.31
  134.35        2950.25           1227          30.00       102.88
  134.38        2950.50           1230          34.00       120.31
  134.41        2950.75           1234          35.00       124.67
  134.44        2951.00           1237          31.00       107.24
  134.47        2951.25           1240          35.00       124.67
  134.50        2951.50           1244          32.00       111.60
  134.53        2951.75           1247          29.00        98.52
  134.56        2952.00           1250          34.00       120.31
  134.59        2952.25           1254          29.00        98.52
  134.63        2952.50           1257          30.00       102.88
  134.66        2952.75           1260          33.00       115.96
  134.69        2953.00           1264          37.00       133.39
  134.72        2953.25           1267          36.00       129.03
  134.75        2953.50           1270          33.00       115.96
  134.78        2953.75           1274          32.00       111.60
  134.81        2954.00           1277          29.00        98.52
  134.84        2954.25           1280          29.00        98.52
  134.87        2954.50           1284          30.00       102.88
  134.90        2954.75           1287          31.00       107.24
  134.93        2955.00           1290          37.00       133.39
  134.96        2955.25           1294          37.00       133.39
  134.99        2955.50           1297          33.00       115.96
  135.02        2955.75           1300          37.00       133.39
  135.05        2956.00           1304          36.00       129.03
  135.08        2956.25           1307          35.00       124.67
  135.11        2956.50           1310          36.00       129.03
  135.15        2956.75           1314          36.00       129.03
  135.18        2957.00           1317          41.00       150.83
  135.21        2957.25           1320          44.00       163.91
  135.24        2957.50           1324          41.00       150.83
  135.27        2957.75           1327          43.00       159.55
  135.30        2958.00           1330          43.00       159.55
  135.33        2958.25           1334          40.00       146.47
  135.36        2958.50           1337          58.00       224.94
  135.39        2958.75           1340          46.00       172.63
  135.42        2959.00           1344          48.00       181.34
  135.45        2959.25           1347          56.00       216.22
  135.48        2959.50           1350          71.00       281.61
  135.51        2959.75           1354         102.00       416.74
  135.55        2960.00           1357         140.00       582.40
  135.58        2960.25           1360         178.00       748.05
  135.61        2960.50           1364         216.00       913.71
  135.64        2960.75           1367         262.00      1114.24
  135.67        2961.00           1370         296.00      1262.47
  135.70        2961.25           1373         337.00      1441.21
  135.73        2961.50           1377         700.00      3023.79
  135.76        2961.75           1380        1641.00      7126.92
  135.79        2962.00           1383        3010.00     13097.92
  135.82        2962.25           1387        5579.00     24308.01
  135.85        2962.50           1390        7824.00     34109.87
  135.88        2962.75           1393        9458.00     41247.31
  135.92        2963.00           1397       11895.00     51897.44
  135.95        2963.25           1400       13935.00     60817.31
  135.98        2963.50           1404       16716.00     72984.13
  136.01        2963.75           1407       18741.00     81848.51
  136.04        2964.00           1410       21173.00     92500.13
  136.07        2964.25           1414       23628.00    103258.70
  136.10        2964.50           1417       25625.00    112014.80
  136.13        2964.75           1420       27650.00    120897.90
  136.16        2965.00           1424       30079.00    131558.90
  136.19        2965.25           1427       32084.00    140363.60
  136.22        2965.50           1430       34014.00    148842.90
  136.25        2965.75           1434       36305.00    158913.20
  136.28        2966.00           1437       38062.00    166640.00
  136.31        2966.25           1440       39858.00    174541.60
  136.35        2966.50           1444       41618.00    182288.20
  136.38        2966.75           1447       42491.00    186131.90
  136.41        2967.00           1450       43038.00    188540.60
  136.44        2967.25           1454       42942.00    188117.90
  136.47        2967.50           1457       43036.00    188531.80
  136.50        2967.75           1460       42778.00    187395.60
  136.53        2968.00           1464       41470.00    181636.60
  136.56        2968.25           1467       39681.00    173762.80
  136.59        2968.50           1470       38156.00    167053.50
  136.62        2968.75           1474       36237.00    158614.20
  136.65        2969.00           1477       34229.00    149787.60
  136.68        2969.25           1480       32051.00    140218.60
  136.72        2969.50           1484       29442.00    128762.50
  136.75        2969.75           1487       27289.00    119314.00
  136.78        2970.00           1490       25394.00    111001.80
  136.81        2970.25           1494       22761.00     99458.53
  136.84        2970.50           1497       21162.00     92451.94
  136.87        2970.75           1500       19300.00     84296.27
  136.90        2971.00           1504       16243.00     70914.21
  136.93        2971.25           1507       14158.00     61792.64
  136.96        2971.50           1510       12094.00     52767.37
  136.99        2971.75           1514        9471.00     41304.10
  137.02        2972.00           1517        7748.00     33777.96
  137.05        2972.25           1520        5768.00     25133.01
  137.09        2972.50           1524        3421.00     14890.90
  137.12        2972.75           1527        1963.00      8531.17
  137.15        2973.00           1530        1100.00      4767.83
  137.18        2973.25           1534         423.00      1816.13
  137.21        2973.50           1537         255.00      1083.73
  137.24        2973.75           1540         203.00       857.04
  137.27        2974.00           1544         151.00       630.35
  137.30        2974.25           1547         111.00       455.98
  137.33        2974.50           1550          84.00       338.28
  137.36        2974.75           1554          61.00       238.01
  137.39        2975.00           1557          61.00       238.01
  137.42        2975.25           1561          60.00       233.65
  137.45        2975.50           1564          46.00       172.63
  137.48        2975.75           1567          41.00       150.83
  137.51        2976.00           1571          44.00       163.91
  137.54        2976.25           1574          38.00       137.75
  137.57        2976.50           1577          44.00       163.91
  137.61        2976.75           1581          44.00       163.91
  137.64        2977.00           1584          39.00       142.11
  137.67        2977.25           1587          39.00       142.11
  137.70        2977.50           1591          35.00       124.67
  137.73        2977.75           1594          43.00       159.55
  137.76        2978.00           1597          41.00       150.83
  137.79        2978.25           1601          38.00       137.75
  137.82        2978.50           1604          29.00        98.52
  137.85        2978.75           1607          39.00       142.11
  137.88        2979.00           1611          39.00       142.11
  137.91        2979.25           1614          34.00       120.31
  137.94        2979.50           1617          34.00       120.31
  137.97        2979.75           1621          27.00        89.80
  138.00        2980.00           1624          36.00       129.03
  138.03        2980.25           1628          36.00       129.03
  138.06        2980.50           1631          27.00        89.80
  138.10        2980.75           1634          31.00       107.24
  138.13        2981.00           1638          27.00        89.80
  138.16        2981.25           1641          28.00        94.16
  138.19        2981.50           1644          36.00       129.03
  138.22        2981.75           1648          36.00       129.03
  138.25        2982.00           1651          31.00       107.24
  138.28        2982.25           1654          32.00       111.60
  138.31        2982.50           1658          37.00       133.39
  138.34        2982.75           1661          32.00       111.60
  138.37        2983.00           1664          31.00       107.24
  138.40        2983.25           1668          30.00       102.88
  138.43        2983.50           1671          29.00        98.52
  138.46        2983.75           1674          26.00        85.44
  138.49        2984.00           1678          23.00        72.36
HS scan finished at 02:18:42
end
************************************************************
  HS Scan of (1) Internal mercury lamp
************************************************************
Integration time is 0.2294 seconds per sample
dh240619ElArenosillo 37.1 6.73 3.126073pr1023
************************************************************
Dead Time -------------------------  2.7E-08 
Number of Cycles Used -------------  4 
Starting Wavelength (Angstroms) ---  2950 
Final Wavelength (Angstoms) -------  2984 
Wavelength Increment (Angstroms) --  .25 
Filter Wheel #1 Position ---------- (1) Ground quartz diffuser (ND=2.32)
Filter Wheel #2 Position ---------- (1) Neutral Density 0.494



************************************************************
HS scan start time = 20:52:53
Dark Count =  7.9 


Time (GMT)  Wavelength (Ang)  Step Number  Raw Counts  Counts/Second

 1253.22        2950.00           1224          32.00       105.06
 1253.29        2950.25           1227          27.00        83.26
 1253.32        2950.50           1230          24.00        70.18
 1253.35        2950.75           1234          34.00       113.78
 1253.38        2951.00           1237          30.00        96.34
 1253.42        2951.25           1240          30.00        96.34
 1253.45        2951.50           1244          35.00       118.13
 1253.48        2951.75           1247          29.00        91.98
 1253.51        2952.00           1250          30.00        96.34
 1253.54        2952.25           1254          29.00        91.98
 1253.57        2952.50           1257          32.00       105.06
 1253.60        2952.75           1260          25.00        74.54
 1253.63        2953.00           1264          33.00       109.42
 1253.66        2953.25           1267          35.00       118.13
 1253.69        2953.50           1270          35.00       118.13
 1253.72        2953.75           1274          40.00       139.93
 1253.75        2954.00           1277          30.00        96.34
 1253.79        2954.25           1280          36.00       122.49
 1253.82        2954.50           1284          33.00       109.42
 1253.85        2954.75           1287          37.00       126.85
 1253.88        2955.00           1290          33.00       109.42
 1253.91        2955.25           1294          30.00        96.34
 1253.94        2955.50           1297          37.00       126.85
 1253.97        2955.75           1300          34.00       113.78
 1254.00        2956.00           1304          30.00        96.34
 1254.03        2956.25           1307          36.00       122.49
 1254.06        2956.50           1310          42.00       148.65
 1254.09        2956.75           1314          35.00       118.13
 1254.12        2957.00           1317          37.00       126.85
 1254.15        2957.25           1320          46.00       166.09
 1254.18        2957.50           1324          41.00       144.29
 1254.21        2957.75           1327          39.00       135.57
 1254.25        2958.00           1330          38.00       131.21
 1254.28        2958.25           1334          44.00       157.37
 1254.31        2958.50           1337          37.00       126.85
 1254.34        2958.75           1340          49.00       179.16
 1254.37        2959.00           1344          50.00       183.52
 1254.40        2959.25           1347          57.00       214.04
 1254.43        2959.50           1350          71.00       275.07
 1254.46        2959.75           1354          87.00       344.82
 1254.49        2960.00           1357         136.00       558.42
 1254.52        2960.25           1360         167.00       693.56
 1254.55        2960.50           1364         202.00       846.14
 1254.58        2960.75           1367         277.00      1173.10
 1254.61        2961.00           1370         300.00      1273.37
 1254.65        2961.25           1373         366.00      1561.09
 1254.68        2961.50           1377        1084.00      4691.53
 1254.71        2961.75           1380        2251.00      9780.70
 1254.74        2962.00           1383        3692.00     16066.69
 1254.77        2962.25           1387        6000.00     26139.19
 1254.80        2962.50           1390        7911.00     34483.27
 1254.83        2962.75           1393        9719.00     42381.07
 1254.86        2963.00           1397       12106.00     52813.27
 1254.89        2963.25           1400       14004.00     61112.53
 1254.92        2963.50           1404       16468.00     71892.25
 1254.96        2963.75           1407       18475.00     80677.29
 1254.99        2964.00           1410       20737.00     90583.53
 1255.02        2964.25           1414       23421.00    102344.80
 1255.05        2964.50           1417       25442.00    111205.70
 1255.08        2964.75           1420       27453.00    120027.00
 1255.11        2965.00           1424       29665.00    129734.80
 1255.14        2965.25           1427       31389.00    137304.50
 1255.17        2965.50           1430       33490.00    146533.70
 1255.20        2965.75           1434       36393.00    159293.50
 1255.23        2966.00           1437       38298.00    167671.50
 1255.26        2966.25           1440       40427.00    177039.10
 1255.29        2966.50           1444       42126.00    184518.10
 1255.33        2966.75           1447       42776.00    187380.30
 1255.36        2967.00           1450       43266.00    189538.10
 1255.39        2967.25           1454       43295.00    189665.90
 1255.42        2967.50           1457       43234.00    189397.20
 1255.45        2967.75           1460       43130.00    188939.20
 1255.48        2968.00           1464       41616.00    182272.80
 1255.51        2968.25           1467       40229.00    176167.70
 1255.54        2968.50           1470       38740.00    169615.90
 1255.57        2968.75           1474       36361.00    159152.80
 1255.60        2969.00           1477       34419.00    150616.10
 1255.63        2969.25           1480       32503.00    142197.50
 1255.66        2969.50           1484       29989.00    131157.20
 1255.69        2969.75           1487       27763.00    121387.20
 1255.72        2970.00           1490       25675.00    112227.50
 1255.75        2970.25           1494       22625.00     98855.92
 1255.78        2970.50           1497       20804.00     90877.02
 1255.82        2970.75           1500       18991.00     82936.61
 1255.85        2971.00           1504       16418.00     71673.44
 1255.88        2971.25           1507       14386.00     62783.32
 1255.91        2971.50           1510       12401.00     54102.96
 1255.94        2971.75           1514        9749.00     42512.15
 1255.97        2972.00           1517        7866.00     34286.74
 1256.00        2972.25           1520        5751.00     25052.25
 1256.03        2972.50           1524        3385.00     14727.30
 1256.06        2972.75           1527        1914.00      8310.93
 1256.09        2973.00           1530         954.00      4124.70
 1256.13        2973.25           1534         387.00      1652.65
 1256.16        2973.50           1537         269.00      1138.22
 1256.19        2973.75           1540         221.00       928.97
 1256.22        2974.00           1544         153.00       632.53
 1256.25        2974.25           1547         116.00       471.24
 1256.28        2974.50           1550          89.00       353.53
 1256.31        2974.75           1554          65.00       248.91
 1256.34        2975.00           1557          53.00       196.60
 1256.37        2975.25           1561          55.00       205.32
 1256.40        2975.50           1564          45.00       161.73
 1256.43        2975.75           1567          37.00       126.85
 1256.46        2976.00           1571          37.00       126.85
 1256.49        2976.25           1574          47.00       170.45
 1256.52        2976.50           1577          38.00       131.21
 1256.56        2976.75           1581          40.00       139.93
 1256.59        2977.00           1584          41.00       144.29
 1256.62        2977.25           1587          40.00       139.93
 1256.65        2977.50           1591          34.00       113.78
 1256.68        2977.75           1594          33.00       109.42
 1256.71        2978.00           1597          37.00       126.85
 1256.74        2978.25           1601          35.00       118.13
 1256.77        2978.50           1604          28.00        87.62
 1256.80        2978.75           1607          36.00       122.49
 1256.83        2979.00           1611          34.00       113.78
 1256.86        2979.25           1614          43.00       153.01
 1256.89        2979.50           1617          36.00       122.49
 1256.92        2979.75           1621          33.00       109.42
 1256.95        2980.00           1624          29.00        91.98
 1256.98        2980.25           1628          31.00       100.70
 1257.02        2980.50           1631          36.00       122.49
 1257.05        2980.75           1634          28.00        87.62
 1257.08        2981.00           1638          30.00        96.34
 1257.11        2981.25           1641          30.00        96.34
 1257.14        2981.50           1644          30.00        96.34
 1257.17        2981.75           1648          33.00       109.42
 1257.20        2982.00           1651          29.00        91.98
 1257.23        2982.25           1654          32.00       105.06
 1257.26        2982.50           1658          28.00        87.62
 1257.29        2982.75           1661          34.00       113.78
 1257.32        2983.00           1664          28.00        87.62
 1257.35        2983.25           1668          30.00        96.34
 1257.39        2983.50           1671          28.00        87.62
 1257.42        2983.75           1674          34.00       113.78
 1257.45        2984.00           1678          28.00        87.62
HS scan finished at 20:57:39
end
