************************************************************
  HS Scan of (1) Internal mercury lamp
************************************************************
Integration time is 0.2294 seconds per sample
dh240619ElArenosillo 37.1 6.73 3.018777pr1023
************************************************************
Dead Time -------------------------  2.7E-08 
Number of Cycles Used -------------  4 
Starting Wavelength (Angstroms) ---  2950 
Final Wavelength (Angstoms) -------  2984 
Wavelength Increment (Angstroms) --  .25 
Filter Wheel #1 Position ---------- (1) Ground quartz diffuser (ND=2.32)
Filter Wheel #2 Position ---------- (1) Neutral Density 0.494



************************************************************
HS scan start time = 02:13:58
Dark Count =  6.4 


Time (GMT)  Wavelength (Ang)  Step Number  Raw Counts  Counts/Second

  134.28        2950.00           1224          34.00       120.31
  134.35        2950.25           1227          30.00       102.88
  134.38        2950.50           1230          34.00       120.31
  134.41        2950.75           1234          35.00       124.67
  134.44        2951.00           1237          31.00       107.24
  134.47        2951.25           1240          35.00       124.67
  134.50        2951.50           1244          32.00       111.60
  134.53        2951.75           1247          29.00        98.52
  134.56        2952.00           1250          34.00       120.31
  134.59        2952.25           1254          29.00        98.52
  134.63        2952.50           1257          30.00       102.88
  134.66        2952.75           1260          33.00       115.96
  134.69        2953.00           1264          37.00       133.39
  134.72        2953.25           1267          36.00       129.03
  134.75        2953.50           1270          33.00       115.96
  134.78        2953.75           1274          32.00       111.60
  134.81        2954.00           1277          29.00        98.52
  134.84        2954.25           1280          29.00        98.52
  134.87        2954.50           1284          30.00       102.88
  134.90        2954.75           1287          31.00       107.24
  134.93        2955.00           1290          37.00       133.39
  134.96        2955.25           1294          37.00       133.39
  134.99        2955.50           1297          33.00       115.96
  135.02        2955.75           1300          37.00       133.39
  135.05        2956.00           1304          36.00       129.03
  135.08        2956.25           1307          35.00       124.67
  135.11        2956.50           1310          36.00       129.03
  135.15        2956.75           1314          36.00       129.03
  135.18        2957.00           1317          41.00       150.83
  135.21        2957.25           1320          44.00       163.91
  135.24        2957.50           1324          41.00       150.83
  135.27        2957.75           1327          43.00       159.55
  135.30        2958.00           1330          43.00       159.55
  135.33        2958.25           1334          40.00       146.47
  135.36        2958.50           1337          58.00       224.94
  135.39        2958.75           1340          46.00       172.63
  135.42        2959.00           1344          48.00       181.34
  135.45        2959.25           1347          56.00       216.22
  135.48        2959.50           1350          71.00       281.61
  135.51        2959.75           1354         102.00       416.74
  135.55        2960.00           1357         140.00       582.40
  135.58        2960.25           1360         178.00       748.05
  135.61        2960.50           1364         216.00       913.71
  135.64        2960.75           1367         262.00      1114.24
  135.67        2961.00           1370         296.00      1262.47
  135.70        2961.25           1373         337.00      1441.21
  135.73        2961.50           1377         700.00      3023.79
  135.76        2961.75           1380        1641.00      7126.92
  135.79        2962.00           1383        3010.00     13097.92
  135.82        2962.25           1387        5579.00     24308.01
  135.85        2962.50           1390        7824.00     34109.87
  135.88        2962.75           1393        9458.00     41247.31
  135.92        2963.00           1397       11895.00     51897.44
  135.95        2963.25           1400       13935.00     60817.31
  135.98        2963.50           1404       16716.00     72984.13
  136.01        2963.75           1407       18741.00     81848.51
  136.04        2964.00           1410       21173.00     92500.13
  136.07        2964.25           1414       23628.00    103258.70
  136.10        2964.50           1417       25625.00    112014.80
  136.13        2964.75           1420       27650.00    120897.90
  136.16        2965.00           1424       30079.00    131558.90
  136.19        2965.25           1427       32084.00    140363.60
  136.22        2965.50           1430       34014.00    148842.90
  136.25        2965.75           1434       36305.00    158913.20
  136.28        2966.00           1437       38062.00    166640.00
  136.31        2966.25           1440       39858.00    174541.60
  136.35        2966.50           1444       41618.00    182288.20
  136.38        2966.75           1447       42491.00    186131.90
  136.41        2967.00           1450       43038.00    188540.60
  136.44        2967.25           1454       42942.00    188117.90
  136.47        2967.50           1457       43036.00    188531.80
  136.50        2967.75           1460       42778.00    187395.60
  136.53        2968.00           1464       41470.00    181636.60
  136.56        2968.25           1467       39681.00    173762.80
  136.59        2968.50           1470       38156.00    167053.50
  136.62        2968.75           1474       36237.00    158614.20
  136.65        2969.00           1477       34229.00    149787.60
  136.68        2969.25           1480       32051.00    140218.60
  136.72        2969.50           1484       29442.00    128762.50
  136.75        2969.75           1487       27289.00    119314.00
  136.78        2970.00           1490       25394.00    111001.80
  136.81        2970.25           1494       22761.00     99458.53
  136.84        2970.50           1497       21162.00     92451.94
  136.87        2970.75           1500       19300.00     84296.27
  136.90        2971.00           1504       16243.00     70914.21
  136.93        2971.25           1507       14158.00     61792.64
  136.96        2971.50           1510       12094.00     52767.37
  136.99        2971.75           1514        9471.00     41304.10
  137.02        2972.00           1517        7748.00     33777.96
  137.05        2972.25           1520        5768.00     25133.01
  137.09        2972.50           1524        3421.00     14890.90
  137.12        2972.75           1527        1963.00      8531.17
  137.15        2973.00           1530        1100.00      4767.83
  137.18        2973.25           1534         423.00      1816.13
  137.21        2973.50           1537         255.00      1083.73
  137.24        2973.75           1540         203.00       857.04
  137.27        2974.00           1544         151.00       630.35
  137.30        2974.25           1547         111.00       455.98
  137.33        2974.50           1550          84.00       338.28
  137.36        2974.75           1554          61.00       238.01
  137.39        2975.00           1557          61.00       238.01
  137.42        2975.25           1561          60.00       233.65
  137.45        2975.50           1564          46.00       172.63
  137.48        2975.75           1567          41.00       150.83
  137.51        2976.00           1571          44.00       163.91
  137.54        2976.25           1574          38.00       137.75
  137.57        2976.50           1577          44.00       163.91
  137.61        2976.75           1581          44.00       163.91
  137.64        2977.00           1584          39.00       142.11
  137.67        2977.25           1587          39.00       142.11
  137.70        2977.50           1591          35.00       124.67
  137.73        2977.75           1594          43.00       159.55
  137.76        2978.00           1597          41.00       150.83
  137.79        2978.25           1601          38.00       137.75
  137.82        2978.50           1604          29.00        98.52
  137.85        2978.75           1607          39.00       142.11
  137.88        2979.00           1611          39.00       142.11
  137.91        2979.25           1614          34.00       120.31
  137.94        2979.50           1617          34.00       120.31
  137.97        2979.75           1621          27.00        89.80
  138.00        2980.00           1624          36.00       129.03
  138.03        2980.25           1628          36.00       129.03
  138.06        2980.50           1631          27.00        89.80
  138.10        2980.75           1634          31.00       107.24
  138.13        2981.00           1638          27.00        89.80
  138.16        2981.25           1641          28.00        94.16
  138.19        2981.50           1644          36.00       129.03
  138.22        2981.75           1648          36.00       129.03
  138.25        2982.00           1651          31.00       107.24
  138.28        2982.25           1654          32.00       111.60
  138.31        2982.50           1658          37.00       133.39
  138.34        2982.75           1661          32.00       111.60
  138.37        2983.00           1664          31.00       107.24
  138.40        2983.25           1668          30.00       102.88
  138.43        2983.50           1671          29.00        98.52
  138.46        2983.75           1674          26.00        85.44
  138.49        2984.00           1678          23.00        72.36
HS scan finished at 02:18:42
end
