************************************************************
  HS Scan of (1) Internal mercury lamp
************************************************************
Integration time is 0.2294 seconds per sample
dh270619ElArenosillo 37.1 6.73 3.018777pr1023
************************************************************
Dead Time -------------------------  2.7E-08 
Number of Cycles Used -------------  4 
Starting Wavelength (Angstroms) ---  2950 
Final Wavelength (Angstoms) -------  2984 
Wavelength Increment (Angstroms) --  .25 
Filter Wheel #1 Position ---------- (1) Ground quartz diffuser (ND=2.32)
Filter Wheel #2 Position ---------- (1) Neutral Density 0.494



************************************************************
HS scan start time = 02:37:35
Dark Count =  6.7 


Time (GMT)  Wavelength (Ang)  Step Number  Raw Counts  Counts/Second

  157.91        2950.00           1224          29.00        97.21
  157.97        2950.25           1227          38.00       136.44
  158.00        2950.50           1230          32.00       110.29
  158.03        2950.75           1234          30.00       101.57
  158.06        2951.00           1237          25.00        79.77
  158.10        2951.25           1240          35.00       123.37
  158.13        2951.50           1244          36.00       127.72
  158.16        2951.75           1247          38.00       136.44
  158.19        2952.00           1250          37.00       132.08
  158.22        2952.25           1254          28.00        92.85
  158.25        2952.50           1257          27.00        88.49
  158.28        2952.75           1260          33.00       114.65
  158.31        2953.00           1264          35.00       123.37
  158.34        2953.25           1267          34.00       119.01
  158.37        2953.50           1270          39.00       140.80
  158.40        2953.75           1274          32.00       110.29
  158.43        2954.00           1277          33.00       114.65
  158.46        2954.25           1280          30.00       101.57
  158.49        2954.50           1284          33.00       114.65
  158.52        2954.75           1287          36.00       127.72
  158.55        2955.00           1290          28.00        92.85
  158.58        2955.25           1294          38.00       136.44
  158.62        2955.50           1297          33.00       114.65
  158.65        2955.75           1300          40.00       145.16
  158.68        2956.00           1304          43.00       158.24
  158.71        2956.25           1307          27.00        88.49
  158.74        2956.50           1310          40.00       145.16
  158.77        2956.75           1314          39.00       140.80
  158.80        2957.00           1317          42.00       153.88
  158.83        2957.25           1320          40.00       145.16
  158.86        2957.50           1324          40.00       145.16
  158.89        2957.75           1327          47.00       175.68
  158.92        2958.00           1330          40.00       145.16
  158.95        2958.25           1334          39.00       140.80
  158.98        2958.50           1337          48.00       180.04
  159.01        2958.75           1340          50.00       188.75
  159.04        2959.00           1344          45.00       166.96
  159.07        2959.25           1347          59.00       227.99
  159.10        2959.50           1350          63.00       245.42
  159.14        2959.75           1354          85.00       341.33
  159.17        2960.00           1357         124.00       511.34
  159.20        2960.25           1360         161.00       672.64
  159.23        2960.50           1364         210.00       886.25
  159.26        2960.75           1367         267.00      1134.73
  159.29        2961.00           1370         295.00      1256.80
  159.32        2961.25           1373         377.00      1614.28
  159.35        2961.50           1377         986.00      4269.45
  159.38        2961.75           1380        1914.00      8316.17
  159.41        2962.00           1383        3152.00     13716.06
  159.44        2962.25           1387        5231.00     22787.77
  159.47        2962.50           1390        7220.00     31470.93
  159.50        2962.75           1393        9370.00     40861.53
  159.54        2963.00           1397       12282.00     53587.94
  159.57        2963.25           1400       14452.00     63077.26
  159.60        2963.50           1404       17034.00     74374.58
  159.63        2963.75           1407       18776.00     82000.46
  159.66        2964.00           1410       20637.00     90150.72
  159.69        2964.25           1414       23312.00    101872.20
  159.72        2964.50           1417       25319.00    110671.50
  159.75        2964.75           1420       27334.00    119510.10
  159.78        2965.00           1424       30300.00    132527.90
  159.82        2965.25           1427       32158.00    140687.30
  159.85        2965.50           1430       33810.00    147945.10
  159.88        2965.75           1434       36313.00    158947.00
  159.91        2966.00           1437       38087.00    166748.60
  159.94        2966.25           1440       40093.00    175574.50
  159.97        2966.50           1444       42023.00    184069.90
  160.00        2966.75           1447       42713.00    187108.10
  160.03        2967.00           1450       43090.00    188768.30
  160.06        2967.25           1454       43117.00    188887.20
  160.09        2967.50           1457       43434.00    190283.30
  160.12        2967.75           1460       43159.00    189072.20
  160.15        2968.00           1464       41888.00    183475.60
  160.18        2968.25           1467       40312.00    176538.30
  160.21        2968.50           1470       38696.00    169427.60
  160.24        2968.75           1474       36064.00    157852.30
  160.28        2969.00           1477       34208.00    149694.10
  160.31        2969.25           1480       32192.00    140836.60
  160.34        2969.50           1484       29821.00    130424.90
  160.37        2969.75           1487       27868.00    121853.20
  160.40        2970.00           1490       26000.00    113658.20
  160.43        2970.25           1494       23107.00    100973.70
  160.46        2970.50           1497       20951.00     91526.26
  160.49        2970.75           1500       19042.00     83165.18
  160.52        2971.00           1504       16366.00     71451.15
  160.55        2971.25           1507       14249.00     62189.34
  160.58        2971.50           1510       12383.00     54029.50
  160.61        2971.75           1514        9619.00     41949.41
  160.64        2972.00           1517        7466.00     32545.15
  160.67        2972.25           1520        5614.00     24459.48
  160.70        2972.50           1524        3076.00     13384.52
  160.73        2972.75           1527        1681.00      7300.04
  160.77        2973.00           1530         950.00      4112.49
  160.80        2973.25           1534         412.00      1766.87
  160.83        2973.50           1537         289.00      1230.64
  160.86        2973.75           1540         210.00       886.25
  160.89        2974.00           1544         163.00       681.36
  160.92        2974.25           1547         116.00       476.47
  160.95        2974.50           1550          96.00       389.28
  160.98        2974.75           1554          70.00       275.94
  161.01        2975.00           1557          57.00       219.27
  161.04        2975.25           1561          61.00       236.71
  161.07        2975.50           1564          50.00       188.75
  161.10        2975.75           1567          48.00       180.04
  161.13        2976.00           1571          44.00       162.60
  161.16        2976.25           1574          44.00       162.60
  161.19        2976.50           1577          45.00       166.96
  161.22        2976.75           1581          37.00       132.08
  161.26        2977.00           1584          34.00       119.01
  161.29        2977.25           1587          42.00       153.88
  161.32        2977.50           1591          40.00       145.16
  161.35        2977.75           1594          39.00       140.80
  161.38        2978.00           1597          39.00       140.80
  161.41        2978.25           1601          32.00       110.29
  161.44        2978.50           1604          37.00       132.08
  161.47        2978.75           1607          35.00       123.37
  161.50        2979.00           1611          33.00       114.65
  161.53        2979.25           1614          34.00       119.01
  161.56        2979.50           1617          37.00       132.08
  161.59        2979.75           1621          42.00       153.88
  161.62        2980.00           1624          28.00        92.85
  161.66        2980.25           1628          38.00       136.44
  161.69        2980.50           1631          36.00       127.72
  161.72        2980.75           1634          27.00        88.49
  161.75        2981.00           1638          36.00       127.72
  161.78        2981.25           1641          33.00       114.65
  161.81        2981.50           1644          26.00        84.13
  161.84        2981.75           1648          32.00       110.29
  161.87        2982.00           1651          25.00        79.77
  161.90        2982.25           1654          24.00        75.41
  161.93        2982.50           1658          32.00       110.29
  161.96        2982.75           1661          29.00        97.21
  161.99        2983.00           1664          28.00        92.85
  162.02        2983.25           1668          31.00       105.93
  162.05        2983.50           1671          36.00       127.72
  162.08        2983.75           1674          29.00        97.21
  162.12        2984.00           1678          30.00       101.57
HS scan finished at 02:42:19
end
************************************************************
  HS Scan of (1) Internal mercury lamp
************************************************************
Integration time is 0.2294 seconds per sample
dh270619ElArenosillo 37.1 6.73 3.179721pr1023
************************************************************
Dead Time -------------------------  2.7E-08 
Number of Cycles Used -------------  4 
Starting Wavelength (Angstroms) ---  2950 
Final Wavelength (Angstoms) -------  2984 
Wavelength Increment (Angstroms) --  .25 
Filter Wheel #1 Position ---------- (1) Ground quartz diffuser (ND=2.32)
Filter Wheel #2 Position ---------- (1) Neutral Density 0.494



************************************************************
HS scan start time = 20:52:46
Dark Count =  7.2 


Time (GMT)  Wavelength (Ang)  Step Number  Raw Counts  Counts/Second

 1253.09        2950.00           1224          32.00       108.11
 1253.16        2950.25           1227          33.00       112.47
 1253.19        2950.50           1230          32.00       108.11
 1253.22        2950.75           1234          30.00        99.39
 1253.25        2951.00           1237          33.00       112.47
 1253.28        2951.25           1240          32.00       108.11
 1253.31        2951.50           1244          29.00        95.03
 1253.34        2951.75           1247          30.00        99.39
 1253.37        2952.00           1250          26.00        81.95
 1253.40        2952.25           1254          36.00       125.55
 1253.43        2952.50           1257          38.00       134.26
 1253.47        2952.75           1260          29.00        95.03
 1253.50        2953.00           1264          29.00        95.03
 1253.53        2953.25           1267          31.00       103.75
 1253.56        2953.50           1270          34.00       116.83
 1253.59        2953.75           1274          32.00       108.11
 1253.62        2954.00           1277          32.00       108.11
 1253.65        2954.25           1280          32.00       108.11
 1253.68        2954.50           1284          30.00        99.39
 1253.71        2954.75           1287          34.00       116.83
 1253.74        2955.00           1290          29.00        95.03
 1253.77        2955.25           1294          33.00       112.47
 1253.80        2955.50           1297          31.00       103.75
 1253.83        2955.75           1300          31.00       103.75
 1253.87        2956.00           1304          40.00       142.98
 1253.90        2956.25           1307          43.00       156.06
 1253.93        2956.50           1310          37.00       129.90
 1253.96        2956.75           1314          31.00       103.75
 1253.99        2957.00           1317          38.00       134.26
 1254.02        2957.25           1320          40.00       142.98
 1254.05        2957.50           1324          38.00       134.26
 1254.08        2957.75           1327          35.00       121.19
 1254.11        2958.00           1330          46.00       169.14
 1254.14        2958.25           1334          43.00       156.06
 1254.17        2958.50           1337          43.00       156.06
 1254.20        2958.75           1340          41.00       147.34
 1254.23        2959.00           1344          47.00       173.50
 1254.27        2959.25           1347          57.00       217.09
 1254.30        2959.50           1350          65.00       251.96
 1254.33        2959.75           1354          85.00       339.15
 1254.36        2960.00           1357         126.00       517.88
 1254.39        2960.25           1360         166.00       692.25
 1254.42        2960.50           1364         200.00       840.47
 1254.45        2960.75           1367         265.00      1123.84
 1254.48        2961.00           1370         313.00      1333.09
 1254.51        2961.25           1373         379.00      1620.82
 1254.54        2961.50           1377        1192.00      5165.50
 1254.57        2961.75           1380        2237.00      9722.69
 1254.60        2962.00           1383        3756.00     16348.98
 1254.63        2962.25           1387        6239.00     27185.60
 1254.66        2962.50           1390        8220.00     35835.88
 1254.70        2962.75           1393       10044.00     43804.18
 1254.73        2963.00           1397       12474.00     54425.17
 1254.76        2963.25           1400       14236.00     62130.30
 1254.79        2963.50           1404       17026.00     74337.38
 1254.82        2963.75           1407       19399.00     84726.31
 1254.85        2964.00           1410       21820.00     95331.39
 1254.88        2964.25           1414       24601.00    107520.90
 1254.91        2964.50           1417       26719.00    116809.90
 1254.94        2964.75           1420       28507.00    124655.10
 1254.97        2965.00           1424       30833.00    134866.00
 1255.00        2965.25           1427       32805.00    143527.20
 1255.03        2965.50           1430       34773.00    152175.00
 1255.06        2965.75           1434       37772.00    165360.90
 1255.09        2966.00           1437       39833.00    174428.10
 1255.12        2966.25           1440       42002.00    183975.30
 1255.15        2966.50           1444       43720.00    191540.80
 1255.18        2966.75           1447       44450.00    194756.40
 1255.21        2967.00           1450       45030.00    197311.70
 1255.24        2967.25           1454       45064.00    197461.50
 1255.27        2967.50           1457       44889.00    196690.40
 1255.31        2967.75           1460       44660.00    195681.60
 1255.34        2968.00           1464       43261.00    189519.20
 1255.37        2968.25           1467       41824.00    183191.60
 1255.40        2968.50           1470       40213.00    176100.40
 1255.43        2968.75           1474       37573.00    164485.70
 1255.46        2969.00           1477       35863.00    156966.40
 1255.49        2969.25           1480       33814.00    147960.50
 1255.52        2969.50           1484       30803.00    134734.30
 1255.55        2969.75           1487       28693.00    125471.40
 1255.58        2970.00           1490       26538.00    116015.90
 1255.61        2970.25           1494       23484.00    102624.00
 1255.64        2970.50           1497       21558.00     94183.41
 1255.67        2970.75           1500       19732.00     86184.63
 1255.70        2971.00           1504       17199.00     75094.57
 1255.74        2971.25           1507       14994.00     65445.98
 1255.77        2971.50           1510       12731.00     55548.82
 1255.80        2971.75           1514        9955.00     43415.30
 1255.83        2972.00           1517        7982.00     34796.41
 1255.86        2972.25           1520        6086.00     26517.67
 1255.89        2972.50           1524        3557.00     15480.75
 1255.92        2972.75           1527        1977.00      8588.74
 1255.95        2973.00           1530         960.00      4153.91
 1255.98        2973.25           1534         421.00      1803.92
 1256.01        2973.50           1537         289.00      1228.46
 1256.04        2973.75           1540         234.00       988.69
 1256.07        2974.00           1544         162.00       674.82
 1256.11        2974.25           1547         130.00       535.32
 1256.14        2974.50           1550          98.00       395.82
 1256.17        2974.75           1554          71.00       278.12
 1256.20        2975.00           1557          60.00       230.17
 1256.23        2975.25           1561          50.00       186.57
 1256.26        2975.50           1564          47.00       173.50
 1256.29        2975.75           1567          50.00       186.57
 1256.32        2976.00           1571          47.00       173.50
 1256.35        2976.25           1574          36.00       125.55
 1256.38        2976.50           1577          47.00       173.50
 1256.41        2976.75           1581          38.00       134.26
 1256.44        2977.00           1584          42.00       151.70
 1256.47        2977.25           1587          40.00       142.98
 1256.50        2977.50           1591          36.00       125.55
 1256.53        2977.75           1594          38.00       134.26
 1256.56        2978.00           1597          41.00       147.34
 1256.59        2978.25           1601          33.00       112.47
 1256.62        2978.50           1604          39.00       138.62
 1256.66        2978.75           1607          31.00       103.75
 1256.69        2979.00           1611          35.00       121.19
 1256.72        2979.25           1614          29.00        95.03
 1256.75        2979.50           1617          29.00        95.03
 1256.78        2979.75           1621          32.00       108.11
 1256.81        2980.00           1624          32.00       108.11
 1256.84        2980.25           1628          28.00        90.67
 1256.87        2980.50           1631          25.00        77.59
 1256.90        2980.75           1634          31.00       103.75
 1256.93        2981.00           1638          30.00        99.39
 1256.96        2981.25           1641          30.00        99.39
 1256.99        2981.50           1644          30.00        99.39
 1257.02        2981.75           1648          30.00        99.39
 1257.06        2982.00           1651          34.00       116.83
 1257.09        2982.25           1654          37.00       129.90
 1257.12        2982.50           1658          28.00        90.67
 1257.15        2982.75           1661          31.00       103.75
 1257.18        2983.00           1664          28.00        90.67
 1257.21        2983.25           1668          33.00       112.47
 1257.24        2983.50           1671          31.00       103.75
 1257.27        2983.75           1674          34.00       116.83
 1257.30        2984.00           1678          32.00       108.11
HS scan finished at 20:57:31
end
