************************************************************
  HS Scan of (1) Internal mercury lamp
************************************************************
Integration time is 0.2294 seconds per sample
dh230619ElArenosillo 37.1 6.73 2.911481pr1023
************************************************************
Dead Time -------------------------  2.7E-08 
Number of Cycles Used -------------  4 
Starting Wavelength (Angstroms) ---  2950 
Final Wavelength (Angstoms) -------  2984 
Wavelength Increment (Angstroms) --  .25 
Filter Wheel #1 Position ---------- (1) Ground quartz diffuser (ND=2.32)
Filter Wheel #2 Position ---------- (1) Neutral Density 0.494



************************************************************
HS scan start time = 01:27:31
Dark Count =  5.2 


Time (GMT)  Wavelength (Ang)  Step Number  Raw Counts  Counts/Second

   87.84        2950.00           1224          35.00       129.90
   87.91        2950.25           1227          32.00       116.83
   87.94        2950.50           1230          35.00       129.90
   87.97        2950.75           1234          31.00       112.47
   88.00        2951.00           1237          30.00       108.11
   88.03        2951.25           1240          37.00       138.62
   88.06        2951.50           1244          36.00       134.26
   88.09        2951.75           1247          33.00       121.19
   88.12        2952.00           1250          35.00       129.90
   88.15        2952.25           1254          29.00       103.75
   88.18        2952.50           1257          28.00        99.39
   88.21        2952.75           1260          32.00       116.83
   88.25        2953.00           1264          29.00       103.75
   88.28        2953.25           1267          32.00       116.83
   88.31        2953.50           1270          38.00       142.98
   88.34        2953.75           1274          31.00       112.47
   88.37        2954.00           1277          40.00       151.70
   88.40        2954.25           1280          30.00       108.11
   88.43        2954.50           1284          32.00       116.83
   88.46        2954.75           1287          42.00       160.42
   88.49        2955.00           1290          34.00       125.55
   88.52        2955.25           1294          33.00       121.19
   88.55        2955.50           1297          31.00       112.47
   88.58        2955.75           1300          34.00       125.55
   88.61        2956.00           1304          32.00       116.83
   88.65        2956.25           1307          35.00       129.90
   88.68        2956.50           1310          29.00       103.75
   88.71        2956.75           1314          42.00       160.42
   88.74        2957.00           1317          42.00       160.42
   88.77        2957.25           1320          36.00       134.26
   88.80        2957.50           1324          47.00       182.22
   88.83        2957.75           1327          39.00       147.34
   88.86        2958.00           1330          38.00       142.98
   88.89        2958.25           1334          39.00       147.34
   88.92        2958.50           1337          49.00       190.93
   88.95        2958.75           1340          46.00       177.86
   88.98        2959.00           1344          48.00       186.57
   89.02        2959.25           1347          50.00       195.29
   89.05        2959.50           1350          64.00       256.32
   89.08        2959.75           1354          82.00       334.79
   89.11        2960.00           1357         127.00       530.96
   89.14        2960.25           1360         173.00       731.49
   89.17        2960.50           1364         199.00       844.83
   89.20        2960.75           1367         262.00      1119.48
   89.23        2961.00           1370         277.00      1184.87
   89.26        2961.25           1373         311.00      1333.09
   89.29        2961.50           1377         566.00      2444.80
   89.32        2961.75           1380        1233.00      5353.00
   89.35        2962.00           1383        2386.00     10381.29
   89.38        2962.25           1387        4796.00     20895.83
   89.41        2962.50           1390        7022.00     30612.91
   89.44        2962.75           1393        8996.00     39234.22
   89.47        2963.00           1397       11370.00     49607.82
   89.51        2963.25           1400       13398.00     58474.11
   89.54        2963.50           1404       16122.00     70389.97
   89.57        2963.75           1407       18227.00     79603.35
   89.60        2964.00           1410       20514.00     89618.50
   89.63        2964.25           1414       23308.00    101861.30
   89.66        2964.50           1417       25283.00    110520.20
   89.69        2964.75           1420       27028.00    118174.20
   89.72        2965.00           1424       29890.00    130734.40
   89.75        2965.25           1427       31585.00    138177.20
   89.78        2965.50           1430       33589.00    146980.60
   89.81        2965.75           1434       35736.00    156416.80
   89.84        2966.00           1437       37560.00    164437.30
   89.88        2966.25           1440       39431.00    172668.00
   89.91        2966.50           1444       41322.00    180990.40
   89.94        2966.75           1447       42179.00    184763.40
   89.97        2967.00           1450       42792.00    187462.60
   90.00        2967.25           1454       43070.00    188686.80
   90.03        2967.50           1457       43066.00    188669.20
   90.06        2967.75           1460       42730.00    187189.60
   90.09        2968.00           1464       41593.00    182183.40
   90.12        2968.25           1467       40527.00    177491.10
   90.15        2968.50           1470       38816.00    169962.10
   90.18        2968.75           1474       36704.00    160672.90
   90.21        2969.00           1477       34711.00    151911.30
   90.25        2969.25           1480       32844.00    143707.40
   90.28        2969.50           1484       30114.00    131717.80
   90.31        2969.75           1487       27939.00    122171.30
   90.34        2970.00           1490       25868.00    113085.80
   90.37        2970.25           1494       23412.00    102317.20
   90.40        2970.50           1497       21696.00     94796.81
   90.43        2970.75           1500       19706.00     86079.52
   90.46        2971.00           1504       16616.00     72551.76
   90.49        2971.25           1507       14441.00     63035.71
   90.52        2971.50           1510       12567.00     54840.51
   90.56        2971.75           1514        9739.00     42480.26
   90.60        2972.00           1517        8094.00     35294.30
   90.63        2972.25           1520        6201.00     27028.44
   90.66        2972.50           1524        3875.00     16876.91
   90.69        2972.75           1527        2307.00     10036.72
   90.72        2973.00           1530        1227.00      5326.83
   90.75        2973.25           1534         485.00      2091.66
   90.78        2973.50           1537         286.00      1224.10
   90.81        2973.75           1540         218.00       927.66
   90.84        2974.00           1544         175.00       740.21
   90.87        2974.25           1547         122.00       509.16
   90.91        2974.50           1550          85.00       347.87
   90.94        2974.75           1554          69.00       278.12
   90.97        2975.00           1557          62.00       247.60
   91.00        2975.25           1561          50.00       195.29
   91.03        2975.50           1564          47.00       182.22
   91.06        2975.75           1567          46.00       177.86
   91.09        2976.00           1571          44.00       169.14
   91.12        2976.25           1574          40.00       151.70
   91.15        2976.50           1577          43.00       164.78
   91.18        2976.75           1581          43.00       164.78
   91.21        2977.00           1584          39.00       147.34
   91.24        2977.25           1587          36.00       134.26
   91.27        2977.50           1591          38.00       142.98
   91.30        2977.75           1594          34.00       125.55
   91.34        2978.00           1597          36.00       134.26
   91.37        2978.25           1601          33.00       121.19
   91.40        2978.50           1604          44.00       169.14
   91.43        2978.75           1607          35.00       129.90
   91.46        2979.00           1611          32.00       116.83
   91.49        2979.25           1614          36.00       134.26
   91.52        2979.50           1617          27.00        95.03
   91.55        2979.75           1621          30.00       108.11
   91.58        2980.00           1624          32.00       116.83
   91.61        2980.25           1628          37.00       138.62
   91.64        2980.50           1631          37.00       138.62
   91.67        2980.75           1634          33.00       121.19
   91.70        2981.00           1638          35.00       129.90
   91.73        2981.25           1641          33.00       121.19
   91.76        2981.50           1644          29.00       103.75
   91.80        2981.75           1648          31.00       112.47
   91.83        2982.00           1651          27.00        95.03
   91.86        2982.25           1654          36.00       134.26
   91.89        2982.50           1658          35.00       129.90
   91.92        2982.75           1661          32.00       116.83
   91.95        2983.00           1664          23.00        77.59
   91.98        2983.25           1668          29.00       103.75
   92.01        2983.50           1671          29.00       103.75
   92.04        2983.75           1674          37.00       138.62
   92.07        2984.00           1678          28.00        99.39
HS scan finished at 01:32:17
end
************************************************************
  HS Scan of (1) Internal mercury lamp
************************************************************
Integration time is 0.2294 seconds per sample
dh230619ElArenosillo 37.1 6.73 2.965129pr1023
************************************************************
Dead Time -------------------------  2.7E-08 
Number of Cycles Used -------------  4 
Starting Wavelength (Angstroms) ---  2950 
Final Wavelength (Angstoms) -------  2984 
Wavelength Increment (Angstroms) --  .25 
Filter Wheel #1 Position ---------- (1) Ground quartz diffuser (ND=2.32)
Filter Wheel #2 Position ---------- (1) Neutral Density 0.494



************************************************************
HS scan start time = 02:21:28
Dark Count =  7.4 


Time (GMT)  Wavelength (Ang)  Step Number  Raw Counts  Counts/Second

  141.79        2950.00           1224          34.00       115.96
  141.85        2950.25           1227          34.00       115.96
  141.88        2950.50           1230          33.00       111.60
  141.91        2950.75           1234          42.00       150.83
  141.94        2951.00           1237          33.00       111.60
  141.98        2951.25           1240          27.00        85.44
  142.01        2951.50           1244          31.00       102.88
  142.04        2951.75           1247          32.00       107.24
  142.07        2952.00           1250          29.00        94.16
  142.10        2952.25           1254          35.00       120.31
  142.13        2952.50           1257          33.00       111.60
  142.16        2952.75           1260          42.00       150.83
  142.19        2953.00           1264          36.00       124.67
  142.22        2953.25           1267          34.00       115.96
  142.25        2953.50           1270          26.00        81.08
  142.28        2953.75           1274          38.00       133.39
  142.31        2954.00           1277          43.00       155.19
  142.34        2954.25           1280          34.00       115.96
  142.38        2954.50           1284          33.00       111.60
  142.41        2954.75           1287          29.00        94.16
  142.44        2955.00           1290          31.00       102.88
  142.47        2955.25           1294          27.00        85.44
  142.50        2955.50           1297          29.00        94.16
  142.53        2955.75           1300          31.00       102.88
  142.56        2956.00           1304          30.00        98.52
  142.59        2956.25           1307          33.00       111.60
  142.62        2956.50           1310          37.00       129.03
  142.65        2956.75           1314          42.00       150.83
  142.68        2957.00           1317          38.00       133.39
  142.71        2957.25           1320          37.00       129.03
  142.74        2957.50           1324          40.00       142.11
  142.77        2957.75           1327          40.00       142.11
  142.80        2958.00           1330          42.00       150.83
  142.83        2958.25           1334          44.00       159.55
  142.86        2958.50           1337          40.00       142.11
  142.90        2958.75           1340          42.00       150.83
  142.93        2959.00           1344          49.00       181.34
  142.96        2959.25           1347          58.00       220.58
  142.99        2959.50           1350          69.00       268.53
  143.02        2959.75           1354         111.00       451.62
  143.05        2960.00           1357         138.00       569.32
  143.08        2960.25           1360         180.00       752.41
  143.11        2960.50           1364         206.00       865.76
  143.14        2960.75           1367         264.00      1118.60
  143.17        2961.00           1370         303.00      1288.62
  143.20        2961.25           1373         359.00      1532.76
  143.23        2961.50           1377         861.00      3721.39
  143.26        2961.75           1380        1798.00      7807.23
  143.29        2962.00           1383        2892.00     12578.81
  143.33        2962.25           1387        4940.00     21514.67
  143.36        2962.50           1390        6984.00     30437.39
  143.39        2962.75           1393        8988.00     39189.66
  143.42        2963.00           1397       12098.00     52780.48
  143.45        2963.25           1400       14284.00     62339.36
  143.48        2963.50           1404       16797.00     73334.25
  143.51        2963.75           1407       18904.00     82557.85
  143.54        2964.00           1410       20965.00     91584.52
  143.57        2964.25           1414       23399.00    102250.50
  143.60        2964.50           1417       25142.00    109892.30
  143.64        2964.75           1420       27151.00    118704.20
  143.67        2965.00           1424       29546.00    129214.60
  143.70        2965.25           1427       31111.00    136085.90
  143.73        2965.50           1430       33038.00    144550.00
  143.76        2965.75           1434       35266.00    154341.10
  143.79        2966.00           1437       36932.00    161665.80
  143.82        2966.25           1440       38624.00    169107.80
  143.85        2966.50           1444       40861.00    178951.50
  143.88        2966.75           1447       41887.00    183468.10
  143.91        2967.00           1450       42113.00    184463.10
  143.94        2967.25           1454       42390.00    185682.70
  143.97        2967.50           1457       42163.00    184683.20
  144.00        2967.75           1460       41995.00    183943.60
  144.03        2968.00           1464       40655.00    178044.80
  144.06        2968.25           1467       39478.00    172865.10
  144.09        2968.50           1470       37470.00    164031.80
  144.12        2968.75           1474       35063.00    153448.80
  144.15        2969.00           1477       33207.00    145292.50
  144.18        2969.25           1480       31498.00    137785.40
  144.22        2969.50           1484       29259.00    127954.80
  144.25        2969.75           1487       27611.00    120722.40
  144.28        2970.00           1490       25266.00    110436.00
  144.31        2970.25           1494       22473.00     98191.98
  144.34        2970.50           1497       20449.00     89324.16
  144.37        2970.75           1500       18362.00     80184.75
  144.40        2971.00           1504       15831.00     69107.03
  144.43        2971.25           1507       13854.00     60458.69
  144.46        2971.50           1510       11882.00     51836.23
  144.49        2971.75           1514        9376.00     40884.69
  144.52        2972.00           1517        7741.00     33743.02
  144.55        2972.25           1520        5805.00     25290.15
  144.58        2972.50           1524        3306.00     14384.84
  144.62        2972.75           1527        1761.00      7645.87
  144.65        2973.00           1530         911.00      3939.39
  144.68        2973.25           1534         390.00      1667.90
  144.71        2973.50           1537         269.00      1140.40
  144.74        2973.75           1540         214.00       900.63
  144.77        2974.00           1544         149.00       617.27
  144.80        2974.25           1547         107.00       434.18
  144.83        2974.50           1550          86.00       342.64
  144.86        2974.75           1554          64.00       246.73
  144.89        2975.00           1557          53.00       198.78
  144.92        2975.25           1561          44.00       159.55
  144.95        2975.50           1564          51.00       190.06
  144.98        2975.75           1567          46.00       168.27
  145.02        2976.00           1571          41.00       146.47
  145.05        2976.25           1574          35.00       120.31
  145.08        2976.50           1577          45.00       163.91
  145.11        2976.75           1581          48.00       176.98
  145.14        2977.00           1584          38.00       133.39
  145.17        2977.25           1587          45.00       163.91
  145.20        2977.50           1591          40.00       142.11
  145.23        2977.75           1594          41.00       146.47
  145.26        2978.00           1597          39.00       137.75
  145.29        2978.25           1601          37.00       129.03
  145.32        2978.50           1604          34.00       115.96
  145.35        2978.75           1607          34.00       115.96
  145.38        2979.00           1611          32.00       107.24
  145.41        2979.25           1614          28.00        89.80
  145.44        2979.50           1617          34.00       115.96
  145.48        2979.75           1621          29.00        94.16
  145.51        2980.00           1624          48.00       176.98
  145.54        2980.25           1628          35.00       120.31
  145.57        2980.50           1631          31.00       102.88
  145.60        2980.75           1634          31.00       102.88
  145.63        2981.00           1638          29.00        94.16
  145.66        2981.25           1641          31.00       102.88
  145.69        2981.50           1644          31.00       102.88
  145.72        2981.75           1648          39.00       137.75
  145.75        2982.00           1651          28.00        89.80
  145.78        2982.25           1654          36.00       124.67
  145.81        2982.50           1658          32.00       107.24
  145.84        2982.75           1661          32.00       107.24
  145.87        2983.00           1664          30.00        98.52
  145.90        2983.25           1668          29.00        94.16
  145.94        2983.50           1671          32.00       107.24
  145.97        2983.75           1674          23.00        68.00
  146.00        2984.00           1678          28.00        89.80
HS scan finished at 02:26:12
end
************************************************************
  HS Scan of (1) Internal mercury lamp
************************************************************
Integration time is 0.2294 seconds per sample
dh230619ElArenosillo 37.1 6.73 3.018777pr1023
************************************************************
Dead Time -------------------------  2.7E-08 
Number of Cycles Used -------------  4 
Starting Wavelength (Angstroms) ---  2950 
Final Wavelength (Angstoms) -------  2984 
Wavelength Increment (Angstroms) --  .25 
Filter Wheel #1 Position ---------- (1) Ground quartz diffuser (ND=2.32)
Filter Wheel #2 Position ---------- (1) Neutral Density 0.494



************************************************************
HS scan start time = 21:35:42
Dark Count =  7.7 


Time (GMT)  Wavelength (Ang)  Step Number  Raw Counts  Counts/Second

 1296.03        2950.00           1224          33.00       110.29
 1296.10        2950.25           1227          36.00       123.37
 1296.13        2950.50           1230          29.00        92.85
 1296.16        2950.75           1234          35.00       119.01
 1296.19        2951.00           1237          31.00       101.57
 1296.22        2951.25           1240          29.00        92.85
 1296.25        2951.50           1244          43.00       153.88
 1296.28        2951.75           1247          31.00       101.57
 1296.31        2952.00           1250          35.00       119.01
 1296.34        2952.25           1254          31.00       101.57
 1296.37        2952.50           1257          35.00       119.01
 1296.40        2952.75           1260          30.00        97.21
 1296.43        2953.00           1264          32.00       105.93
 1296.46        2953.25           1267          34.00       114.65
 1296.49        2953.50           1270          28.00        88.49
 1296.52        2953.75           1274          28.00        88.49
 1296.55        2954.00           1277          29.00        92.85
 1296.59        2954.25           1280          31.00       101.57
 1296.62        2954.50           1284          31.00       101.57
 1296.65        2954.75           1287          27.00        84.13
 1296.68        2955.00           1290          30.00        97.21
 1296.71        2955.25           1294          41.00       145.16
 1296.74        2955.50           1297          39.00       136.44
 1296.77        2955.75           1300          36.00       123.37
 1296.80        2956.00           1304          33.00       110.29
 1296.83        2956.25           1307          38.00       132.08
 1296.86        2956.50           1310          30.00        97.21
 1296.89        2956.75           1314          28.00        88.49
 1296.92        2957.00           1317          33.00       110.29
 1296.95        2957.25           1320          38.00       132.08
 1296.98        2957.50           1324          43.00       153.88
 1297.01        2957.75           1327          44.00       158.24
 1297.04        2958.00           1330          41.00       145.16
 1297.07        2958.25           1334          46.00       166.96
 1297.12        2958.50           1337          47.00       171.32
 1297.15        2958.75           1340          44.00       158.24
 1297.18        2959.00           1344          42.00       149.52
 1297.21        2959.25           1347          61.00       232.35
 1297.24        2959.50           1350          71.00       275.94
 1297.27        2959.75           1354          89.00       354.41
 1297.30        2960.00           1357         138.00       568.01
 1297.33        2960.25           1360         164.00       681.36
 1297.37        2960.50           1364         193.00       807.78
 1297.40        2960.75           1367         265.00      1121.66
 1297.43        2961.00           1370         295.00      1252.44
 1297.46        2961.25           1373         391.00      1670.96
 1297.49        2961.50           1377        1003.00      4339.22
 1297.52        2961.75           1380        1867.00      8106.83
 1297.55        2962.00           1383        3379.00     14702.00
 1297.58        2962.25           1387        5612.00     24446.38
 1297.61        2962.50           1390        7410.00     32296.24
 1297.64        2962.75           1393        9194.00     40088.27
 1297.67        2963.00           1397       11456.00     49972.79
 1297.70        2963.25           1400       13265.00     57881.58
 1297.73        2963.50           1404       16050.00     70063.98
 1297.76        2963.75           1407       18212.00     79526.74
 1297.80        2964.00           1410       20377.00     89007.46
 1297.83        2964.25           1414       23045.00    100697.60
 1297.86        2964.50           1417       24848.00    108601.80
 1297.89        2964.75           1420       26733.00    116869.10
 1297.92        2965.00           1424       29081.00    127172.20
 1297.95        2965.25           1427       30804.00    134736.40
 1297.98        2965.50           1430       33004.00    144399.30
 1298.01        2965.75           1434       35635.00    155961.80
 1298.05        2966.00           1437       37706.00    165068.40
 1298.08        2966.25           1440       39483.00    172885.80
 1298.12        2966.50           1444       41302.00    180891.40
 1298.16        2966.75           1447       42114.00    184466.20
 1298.19        2967.00           1450       42461.00    185994.00
 1298.22        2967.25           1454       42605.00    186628.10
 1298.25        2967.50           1457       42661.00    186874.70
 1298.28        2967.75           1460       42451.00    185950.00
 1298.31        2968.00           1464       41398.00    181314.00
 1298.34        2968.25           1467       39922.00    174817.60
 1298.38        2968.50           1470       38347.00    167887.90
 1298.41        2968.75           1474       35794.00    156660.90
 1298.44        2969.00           1477       34252.00    149883.00
 1298.47        2969.25           1480       32300.00    141306.60
 1298.50        2969.50           1484       29536.00    129169.40
 1298.53        2969.75           1487       27486.00    120172.60
 1298.56        2970.00           1490       25597.00    111886.30
 1298.59        2970.25           1494       22815.00     99689.50
 1298.62        2970.50           1497       20928.00     91421.12
 1298.65        2970.75           1500       19028.00     83099.50
 1298.69        2971.00           1504       16565.00     72317.62
 1298.72        2971.25           1507       14482.00     63204.10
 1298.75        2971.50           1510       12502.00     54545.40
 1298.78        2971.75           1514        9612.00     41914.45
 1298.81        2972.00           1517        7829.00     34126.02
 1298.84        2972.25           1520        6014.00     26201.18
 1298.87        2972.50           1524        3559.00     15487.29
 1298.90        2972.75           1527        1965.00      8534.22
 1298.93        2973.00           1530        1027.00      4443.86
 1298.96        2973.25           1534         431.00      1845.34
 1298.99        2973.50           1537         275.00      1165.25
 1299.02        2973.75           1540         226.00       951.64
 1299.05        2974.00           1544         157.00       650.84
 1299.08        2974.25           1547         130.00       533.14
 1299.11        2974.50           1550          88.00       350.05
 1299.14        2974.75           1554          63.00       241.07
 1299.18        2975.00           1557          55.00       206.19
 1299.21        2975.25           1561          53.00       197.47
 1299.24        2975.50           1564          43.00       153.88
 1299.27        2975.75           1567          43.00       153.88
 1299.30        2976.00           1571          43.00       153.88
 1299.33        2976.25           1574          46.00       166.96
 1299.36        2976.50           1577          46.00       166.96
 1299.39        2976.75           1581          43.00       153.88
 1299.42        2977.00           1584          41.00       145.16
 1299.45        2977.25           1587          38.00       132.08
 1299.48        2977.50           1591          38.00       132.08
 1299.51        2977.75           1594          39.00       136.44
 1299.54        2978.00           1597          29.00        92.85
 1299.57        2978.25           1601          34.00       114.65
 1299.60        2978.50           1604          35.00       119.01
 1299.64        2978.75           1607          31.00       101.57
 1299.67        2979.00           1611          35.00       119.01
 1299.70        2979.25           1614          32.00       105.93
 1299.73        2979.50           1617          31.00       101.57
 1299.76        2979.75           1621          30.00        97.21
 1299.79        2980.00           1624          34.00       114.65
 1299.82        2980.25           1628          35.00       119.01
 1299.85        2980.50           1631          30.00        97.21
 1299.88        2980.75           1634          30.00        97.21
 1299.91        2981.00           1638          37.00       127.72
 1299.94        2981.25           1641          28.00        88.49
 1299.97        2981.50           1644          32.00       105.93
 1300.00        2981.75           1648          30.00        97.21
 1300.03        2982.00           1651          30.00        97.21
 1300.07        2982.25           1654          34.00       114.65
 1300.10        2982.50           1658          32.00       105.93
 1300.13        2982.75           1661          25.00        75.41
 1300.16        2983.00           1664          35.00       119.01
 1300.19        2983.25           1668          27.00        84.13
 1300.22        2983.50           1671          32.00       105.93
 1300.25        2983.75           1674          28.00        88.49
 1300.28        2984.00           1678          34.00       114.65
HS scan finished at 21:40:30
end
