************************************************************
  HS Scan of (1) Internal mercury lamp
************************************************************
Integration time is 0.2294 seconds per sample
dh220619ElArenosillo 37.1 6.73 3.126073pr1023
************************************************************
Dead Time -------------------------  2.7E-08 
Number of Cycles Used -------------  4 
Starting Wavelength (Angstroms) ---  2950 
Final Wavelength (Angstoms) -------  2984 
Wavelength Increment (Angstroms) --  .25 
Filter Wheel #1 Position ---------- (1) Ground quartz diffuser (ND=2.32)
Filter Wheel #2 Position ---------- (1) Neutral Density 0.494



************************************************************
HS scan start time = 02:20:58
Dark Count =  6.2 


Time (GMT)  Wavelength (Ang)  Step Number  Raw Counts  Counts/Second

  141.29        2950.00           1224          32.00       112.47
  141.36        2950.25           1227          34.00       121.19
  141.39        2950.50           1230          36.00       129.90
  141.42        2950.75           1234          31.00       108.11
  141.45        2951.00           1237          38.00       138.62
  141.48        2951.25           1240          25.00        81.95
  141.51        2951.50           1244          24.00        77.59
  141.54        2951.75           1247          31.00       108.11
  141.57        2952.00           1250          31.00       108.11
  141.60        2952.25           1254          30.00       103.75
  141.63        2952.50           1257          31.00       108.11
  141.67        2952.75           1260          34.00       121.19
  141.70        2953.00           1264          34.00       121.19
  141.73        2953.25           1267          38.00       138.62
  141.76        2953.50           1270          31.00       108.11
  141.79        2953.75           1274          34.00       121.19
  141.82        2954.00           1277          30.00       103.75
  141.85        2954.25           1280          33.00       116.83
  141.88        2954.50           1284          37.00       134.26
  141.91        2954.75           1287          31.00       108.11
  141.94        2955.00           1290          30.00       103.75
  141.97        2955.25           1294          47.00       177.86
  142.00        2955.50           1297          34.00       121.19
  142.03        2955.75           1300          35.00       125.55
  142.06        2956.00           1304          34.00       121.19
  142.09        2956.25           1307          31.00       108.11
  142.13        2956.50           1310          36.00       129.90
  142.16        2956.75           1314          36.00       129.90
  142.19        2957.00           1317          37.00       134.26
  142.22        2957.25           1320          35.00       125.55
  142.25        2957.50           1324          40.00       147.34
  142.28        2957.75           1327          44.00       164.78
  142.31        2958.00           1330          40.00       147.34
  142.34        2958.25           1334          42.00       156.06
  142.37        2958.50           1337          39.00       142.98
  142.40        2958.75           1340          46.00       173.50
  142.43        2959.00           1344          51.00       195.29
  142.46        2959.25           1347          56.00       217.09
  142.49        2959.50           1350          73.00       291.20
  142.52        2959.75           1354          98.00       400.18
  142.55        2960.00           1357         138.00       574.55
  142.58        2960.25           1360         191.00       805.60
  142.62        2960.50           1364         218.00       923.30
  142.65        2960.75           1367         279.00      1189.23
  142.68        2961.00           1370         307.00      1311.29
  142.71        2961.25           1373         371.00      1590.30
  142.74        2961.50           1377         888.00      3844.34
  142.77        2961.75           1380        1961.00      8523.32
  142.80        2962.00           1383        3364.00     14643.10
  142.83        2962.25           1387        5449.00     23741.46
  142.86        2962.50           1390        7233.00     31529.88
  142.89        2962.75           1393        9321.00     40649.65
  142.92        2963.00           1397       12395.00     54084.15
  142.95        2963.25           1400       14845.00     64798.54
  142.99        2963.50           1404       17609.00     76893.57
  143.02        2963.75           1407       19915.00     86990.49
  143.05        2964.00           1410       21991.00     96085.06
  143.08        2964.25           1414       24843.00    108586.40
  143.11        2964.50           1417       26908.00    117643.40
  143.14        2964.75           1420       28839.00    126116.60
  143.17        2965.00           1424       31200.00    136482.00
  143.20        2965.25           1427       33107.00    144858.40
  143.23        2965.50           1430       34986.00    153115.60
  143.27        2965.75           1434       37360.00    163553.30
  143.30        2966.00           1437       39116.00    171277.60
  143.33        2966.25           1440       40858.00    178943.60
  143.36        2966.50           1444       43124.00    188920.20
  143.39        2966.75           1447       44286.00    194038.40
  143.42        2967.00           1450       44697.00    195849.00
  143.45        2967.25           1454       44925.00    196853.50
  143.48        2967.50           1457       44674.00    195747.60
  143.51        2967.75           1460       44539.00    195152.90
  143.54        2968.00           1464       43251.00    189479.60
  143.57        2968.25           1467       41602.00    182218.60
  143.60        2968.50           1470       40077.00    175506.30
  143.63        2968.75           1474       37311.00    163337.80
  143.66        2969.00           1477       35213.00    154113.40
  143.69        2969.25           1480       33434.00    146295.10
  143.73        2969.50           1484       30793.00    134694.70
  143.76        2969.75           1487       29171.00    127573.80
  143.79        2970.00           1490       27125.00    118595.40
  143.82        2970.25           1494       23915.00    104517.70
  143.85        2970.50           1497       21709.00     94849.39
  143.88        2970.75           1500       19630.00     85742.30
  143.91        2971.00           1504       16773.00     73234.47
  143.94        2971.25           1507       14656.00     63971.78
  143.97        2971.50           1510       12590.00     54936.70
  144.00        2971.75           1514        9798.00     42733.67
  144.03        2972.00           1517        8069.00     35180.74
  144.06        2972.25           1520        6249.00     27233.62
  144.09        2972.50           1524        3567.00     15528.74
  144.12        2972.75           1527        1887.00      8200.60
  144.15        2973.00           1530         953.00      4127.75
  144.18        2973.25           1534         417.00      1790.85
  144.22        2973.50           1537         267.00      1136.91
  144.25        2973.75           1540         215.00       910.22
  144.28        2974.00           1544         149.00       622.50
  144.31        2974.25           1547         106.00       435.05
  144.34        2974.50           1550          87.00       352.23
  144.37        2974.75           1554          67.00       265.04
  144.40        2975.00           1557          60.00       234.53
  144.43        2975.25           1561          51.00       195.29
  144.46        2975.50           1564          47.00       177.86
  144.49        2975.75           1567          48.00       182.22
  144.52        2976.00           1571          53.00       204.01
  144.55        2976.25           1574          44.00       164.78
  144.58        2976.50           1577          50.00       190.93
  144.61        2976.75           1581          45.00       169.14
  144.65        2977.00           1584          37.00       134.26
  144.68        2977.25           1587          37.00       134.26
  144.71        2977.50           1591          44.00       164.78
  144.74        2977.75           1594          36.00       129.90
  144.77        2978.00           1597          37.00       134.26
  144.80        2978.25           1601          34.00       121.19
  144.83        2978.50           1604          36.00       129.90
  144.86        2978.75           1607          47.00       177.86
  144.89        2979.00           1611          34.00       121.19
  144.92        2979.25           1614          35.00       125.55
  144.95        2979.50           1617          36.00       129.90
  144.98        2979.75           1621          33.00       116.83
  145.01        2980.00           1624          34.00       121.19
  145.04        2980.25           1628          33.00       116.83
  145.08        2980.50           1631          31.00       108.11
  145.11        2980.75           1634          29.00        99.39
  145.14        2981.00           1638          36.00       129.90
  145.17        2981.25           1641          36.00       129.90
  145.20        2981.50           1644          32.00       112.47
  145.23        2981.75           1648          41.00       151.70
  145.26        2982.00           1651          33.00       116.83
  145.29        2982.25           1654          31.00       108.11
  145.32        2982.50           1658          31.00       108.11
  145.35        2982.75           1661          47.00       177.86
  145.38        2983.00           1664          29.00        99.39
  145.41        2983.25           1668          35.00       125.55
  145.44        2983.50           1671          31.00       108.11
  145.47        2983.75           1674          32.00       112.47
  145.51        2984.00           1678          29.00        99.39
HS scan finished at 02:25:43
end
