************************************************************
  HS Scan of (1) Internal mercury lamp
************************************************************
Integration time is 0.2294 seconds per sample
dh260619ElArenosillo 37.1 6.73 3.072425pr1023
************************************************************
Dead Time -------------------------  2.7E-08 
Number of Cycles Used -------------  4 
Starting Wavelength (Angstroms) ---  2950 
Final Wavelength (Angstoms) -------  2984 
Wavelength Increment (Angstroms) --  .25 
Filter Wheel #1 Position ---------- (1) Ground quartz diffuser (ND=2.32)
Filter Wheel #2 Position ---------- (1) Neutral Density 0.494



************************************************************
HS scan start time = 02:34:46
Dark Count =  4.9 


Time (GMT)  Wavelength (Ang)  Step Number  Raw Counts  Counts/Second

  155.10        2950.00           1224          32.00       118.13
  155.17        2950.25           1227          29.00       105.06
  155.20        2950.50           1230          36.00       135.57
  155.23        2950.75           1234          31.00       113.78
  155.26        2951.00           1237          32.00       118.13
  155.29        2951.25           1240          34.00       126.85
  155.32        2951.50           1244          35.00       131.21
  155.35        2951.75           1247          37.00       139.93
  155.38        2952.00           1250          33.00       122.49
  155.41        2952.25           1254          38.00       144.29
  155.44        2952.50           1257          36.00       135.57
  155.47        2952.75           1260          34.00       126.85
  155.50        2953.00           1264          31.00       113.78
  155.53        2953.25           1267          34.00       126.85
  155.56        2953.50           1270          29.00       105.06
  155.59        2953.75           1274          34.00       126.85
  155.63        2954.00           1277          31.00       113.78
  155.66        2954.25           1280          39.00       148.65
  155.69        2954.50           1284          36.00       135.57
  155.72        2954.75           1287          36.00       135.57
  155.75        2955.00           1290          33.00       122.49
  155.78        2955.25           1294          30.00       109.42
  155.81        2955.50           1297          35.00       131.21
  155.84        2955.75           1300          36.00       135.57
  155.87        2956.00           1304          33.00       122.49
  155.90        2956.25           1307          36.00       135.57
  155.93        2956.50           1310          32.00       118.13
  155.96        2956.75           1314          36.00       135.57
  155.99        2957.00           1317          33.00       122.49
  156.02        2957.25           1320          36.00       135.57
  156.05        2957.50           1324          47.00       183.52
  156.08        2957.75           1327          44.00       170.45
  156.11        2958.00           1330          48.00       187.88
  156.14        2958.25           1334          53.00       209.68
  156.18        2958.50           1337          40.00       153.01
  156.21        2958.75           1340          42.00       161.73
  156.24        2959.00           1344          49.00       192.24
  156.27        2959.25           1347          54.00       214.04
  156.30        2959.50           1350          74.00       301.22
  156.33        2959.75           1354          95.00       392.77
  156.36        2960.00           1357         127.00       532.27
  156.39        2960.25           1360         169.00       715.36
  156.42        2960.50           1364         203.00       863.58
  156.45        2960.75           1367         265.00      1133.86
  156.48        2961.00           1370         297.00      1273.37
  156.51        2961.25           1373         363.00      1561.09
  156.54        2961.50           1377         907.00      3932.85
  156.57        2961.75           1380        1875.00      8153.93
  156.60        2962.00           1383        3125.00     13606.13
  156.65        2962.25           1387        5119.00     22306.81
  156.68        2962.50           1390        6840.00     29819.56
  156.71        2962.75           1393        8729.00     38069.19
  156.74        2963.00           1397       11526.00     50290.99
  156.77        2963.25           1400       13750.00     60014.78
  156.80        2963.50           1404       16841.00     73537.75
  156.83        2963.75           1407       18697.00     81662.41
  156.87        2964.00           1410       20672.00     90311.93
  156.90        2964.25           1414       22950.00    100293.40
  156.93        2964.50           1417       24771.00    108276.40
  156.96        2964.75           1420       27057.00    118302.70
  156.99        2965.00           1424       29904.00    130797.20
  157.02        2965.25           1427       31997.00    139988.00
  157.05        2965.50           1430       34110.00    149271.30
  157.08        2965.75           1434       36417.00    159412.20
  157.11        2966.00           1437       37971.00    166246.30
  157.14        2966.25           1440       39995.00    175151.10
  157.18        2966.50           1444       42022.00    184073.40
  157.21        2966.75           1447       42948.00    188150.90
  157.24        2967.00           1450       43404.00    190159.10
  157.27        2967.25           1454       43631.00    191158.90
  157.30        2967.50           1457       43622.00    191119.30
  157.33        2967.75           1460       43374.00    190027.00
  157.36        2968.00           1464       42449.00    185953.50
  157.39        2968.25           1467       41199.00    180450.30
  157.42        2968.50           1470       39556.00    173219.30
  157.45        2968.75           1474       37097.00    162402.40
  157.48        2969.00           1477       35053.00    153415.80
  157.51        2969.25           1480       33011.00    144442.40
  157.55        2969.50           1484       30252.00    132325.00
  157.58        2969.75           1487       28396.00    124178.10
  157.61        2970.00           1490       26406.00    115446.90
  157.64        2970.25           1494       23878.00    104361.20
  157.67        2970.50           1497       21844.00     95446.62
  157.70        2970.75           1500       19631.00     85752.38
  157.73        2971.00           1504       16966.00     74084.83
  157.76        2971.25           1507       14891.00     65005.45
  157.79        2971.50           1510       12911.00     56345.90
  157.82        2971.75           1514       10423.00     45470.35
  157.86        2972.00           1517        8477.00     36968.44
  157.89        2972.25           1520        6223.00     27125.79
  157.92        2972.50           1524        3497.00     15229.02
  157.95        2972.75           1527        1911.00      8310.93
  157.98        2973.00           1530         942.00      4085.45
  158.01        2973.25           1534         452.00      1949.10
  158.04        2973.50           1537         300.00      1286.44
  158.07        2973.75           1540         225.00       959.48
  158.10        2974.00           1544         163.00       689.20
  158.13        2974.25           1547         124.00       519.19
  158.16        2974.50           1550          94.00       388.41
  158.19        2974.75           1554          63.00       253.27
  158.22        2975.00           1557          66.00       266.35
  158.25        2975.25           1561          47.00       183.52
  158.29        2975.50           1564          57.00       227.12
  158.32        2975.75           1567          53.00       209.68
  158.35        2976.00           1571          46.00       179.16
  158.38        2976.25           1574          44.00       170.45
  158.41        2976.50           1577          53.00       209.68
  158.44        2976.75           1581          48.00       187.88
  158.47        2977.00           1584          41.00       157.37
  158.50        2977.25           1587          43.00       166.09
  158.53        2977.50           1591          42.00       161.73
  158.56        2977.75           1594          40.00       153.01
  158.59        2978.00           1597          42.00       161.73
  158.62        2978.25           1601          42.00       161.73
  158.65        2978.50           1604          41.00       157.37
  158.68        2978.75           1607          31.00       113.78
  158.72        2979.00           1611          40.00       153.01
  158.75        2979.25           1614          33.00       122.49
  158.78        2979.50           1617          27.00        96.34
  158.81        2979.75           1621          36.00       135.57
  158.84        2980.00           1624          33.00       122.49
  158.87        2980.25           1628          32.00       118.13
  158.90        2980.50           1631          30.00       109.42
  158.93        2980.75           1634          41.00       157.37
  158.96        2981.00           1638          32.00       118.13
  158.99        2981.25           1641          34.00       126.85
  159.02        2981.50           1644          26.00        91.98
  159.05        2981.75           1648          30.00       109.42
  159.08        2982.00           1651          28.00       100.70
  159.12        2982.25           1654          35.00       131.21
  159.15        2982.50           1658          34.00       126.85
  159.18        2982.75           1661          28.00       100.70
  159.21        2983.00           1664          38.00       144.29
  159.24        2983.25           1668          30.00       109.42
  159.27        2983.50           1671          35.00       131.21
  159.30        2983.75           1674          38.00       144.29
  159.33        2984.00           1678          36.00       135.57
HS scan finished at 02:39:33
end
************************************************************
  HS Scan of (1) Internal mercury lamp
************************************************************
Integration time is 0.2294 seconds per sample
dh260619ElArenosillo 37.1 6.73 3.126073pr1023
************************************************************
Dead Time -------------------------  2.7E-08 
Number of Cycles Used -------------  4 
Starting Wavelength (Angstroms) ---  2950 
Final Wavelength (Angstoms) -------  2984 
Wavelength Increment (Angstroms) --  .25 
Filter Wheel #1 Position ---------- (1) Ground quartz diffuser (ND=2.32)
Filter Wheel #2 Position ---------- (1) Neutral Density 0.494



************************************************************
HS scan start time = 20:52:46
Dark Count =  5 


Time (GMT)  Wavelength (Ang)  Step Number  Raw Counts  Counts/Second

 1253.10        2950.00           1224          42.00       161.29
 1253.17        2950.25           1227          33.00       122.06
 1253.20        2950.50           1230          28.00       100.26
 1253.23        2950.75           1234          28.00       100.26
 1253.26        2951.00           1237          32.00       117.70
 1253.29        2951.25           1240          32.00       117.70
 1253.33        2951.50           1244          31.00       113.34
 1253.36        2951.75           1247          31.00       113.34
 1253.39        2952.00           1250          33.00       122.06
 1253.42        2952.25           1254          26.00        91.54
 1253.45        2952.50           1257          38.00       143.85
 1253.48        2952.75           1260          29.00       104.62
 1253.51        2953.00           1264          31.00       113.34
 1253.54        2953.25           1267          33.00       122.06
 1253.58        2953.50           1270          26.00        91.54
 1253.61        2953.75           1274          32.00       117.70
 1253.64        2954.00           1277          27.00        95.90
 1253.67        2954.25           1280          34.00       126.42
 1253.70        2954.50           1284          28.00       100.26
 1253.73        2954.75           1287          37.00       139.49
 1253.76        2955.00           1290          33.00       122.06
 1253.79        2955.25           1294          36.00       135.14
 1253.82        2955.50           1297          29.00       104.62
 1253.85        2955.75           1300          32.00       117.70
 1253.88        2956.00           1304          31.00       113.34
 1253.91        2956.25           1307          38.00       143.85
 1253.94        2956.50           1310          33.00       122.06
 1253.97        2956.75           1314          39.00       148.21
 1254.00        2957.00           1317          34.00       126.42
 1254.03        2957.25           1320          41.00       156.93
 1254.06        2957.50           1324          38.00       143.85
 1254.09        2957.75           1327          36.00       135.14
 1254.12        2958.00           1330          47.00       183.09
 1254.16        2958.25           1334          40.00       152.57
 1254.19        2958.50           1337          44.00       170.01
 1254.22        2958.75           1340          44.00       170.01
 1254.25        2959.00           1344          49.00       191.81
 1254.28        2959.25           1347          58.00       231.04
 1254.31        2959.50           1350          63.00       252.84
 1254.34        2959.75           1354          83.00       340.02
 1254.37        2960.00           1357         123.00       514.39
 1254.40        2960.25           1360         150.00       632.09
 1254.43        2960.50           1364         202.00       858.78
 1254.46        2960.75           1367         250.00      1068.03
 1254.49        2961.00           1370         288.00      1233.69
 1254.52        2961.25           1373         352.00      1512.70
 1254.55        2961.50           1377        1055.00      4577.72
 1254.58        2961.75           1380        2068.00      8995.21
 1254.61        2962.00           1383        3477.00     15141.32
 1254.64        2962.25           1387        5817.00     25353.01
 1254.68        2962.50           1390        7732.00     33714.20
 1254.71        2962.75           1393        9536.00     41594.20
 1254.74        2963.00           1397       11847.00     51693.72
 1254.77        2963.25           1400       13629.00     59485.18
 1254.80        2963.50           1404       16265.00     71016.60
 1254.83        2963.75           1407       18383.00     80287.20
 1254.86        2964.00           1410       20767.00     90727.65
 1254.89        2964.25           1414       23833.00    104163.50
 1254.92        2964.50           1417       25444.00    111227.20
 1254.95        2964.75           1420       27253.00    119162.20
 1254.99        2965.00           1424       29501.00    129027.60
 1255.02        2965.25           1427       31422.00    137462.20
 1255.05        2965.50           1430       33442.00    146335.50
 1255.08        2965.75           1434       36409.00    159376.60
 1255.11        2966.00           1437       38355.00    167935.00
 1255.14        2966.25           1440       40500.00    177373.10
 1255.17        2966.50           1444       42131.00    184552.90
 1255.20        2966.75           1447       42839.00    187670.40
 1255.23        2967.00           1450       43381.00    190057.40
 1255.26        2967.25           1454       43380.00    190053.00
 1255.29        2967.50           1457       43347.00    189907.60
 1255.32        2967.75           1460       43006.00    188405.90
 1255.35        2968.00           1464       41979.00    183883.70
 1255.38        2968.25           1467       40368.00    176792.20
 1255.41        2968.50           1470       39065.00    171058.50
 1255.45        2968.75           1474       36502.00    159785.50
 1255.48        2969.00           1477       34810.00    152347.30
 1255.51        2969.25           1480       32953.00    144187.10
 1255.54        2969.50           1484       30329.00    132662.70
 1255.57        2969.75           1487       27920.00    122088.80
 1255.60        2970.00           1490       25903.00    113240.20
 1255.63        2970.25           1494       23018.00    100591.10
 1255.66        2970.50           1497       20996.00     91730.83
 1255.69        2970.75           1500       19342.00     84486.31
 1255.72        2971.00           1504       16710.00     72964.01
 1255.75        2971.25           1507       14817.00     64681.31
 1255.78        2971.50           1510       12519.00     54631.53
 1255.81        2971.75           1514        9930.00     43315.67
 1255.85        2972.00           1517        7928.00     34570.18
 1255.88        2972.25           1520        6038.00     26317.74
 1255.91        2972.50           1524        3586.00     15616.87
 1255.94        2972.75           1527        2009.00      8737.89
 1255.97        2973.00           1530         986.00      4276.87
 1256.00        2973.25           1534         428.00      1844.03
 1256.03        2973.50           1537         271.00      1159.58
 1256.06        2973.75           1540         238.00      1015.72
 1256.09        2974.00           1544         161.00       680.05
 1256.12        2974.25           1547         139.00       584.14
 1256.15        2974.50           1550         101.00       418.49
 1256.18        2974.75           1554          72.00       292.07
 1256.21        2975.00           1557          51.00       200.52
 1256.25        2975.25           1561          50.00       196.16
 1256.28        2975.50           1564          45.00       174.37
 1256.31        2975.75           1567          45.00       174.37
 1256.34        2976.00           1571          44.00       170.01
 1256.37        2976.25           1574          46.00       178.73
 1256.40        2976.50           1577          43.00       165.65
 1256.43        2976.75           1581          47.00       183.09
 1256.46        2977.00           1584          42.00       161.29
 1256.49        2977.25           1587          38.00       143.85
 1256.52        2977.50           1591          36.00       135.14
 1256.55        2977.75           1594          37.00       139.49
 1256.58        2978.00           1597          37.00       139.49
 1256.61        2978.25           1601          36.00       135.14
 1256.65        2978.50           1604          37.00       139.49
 1256.68        2978.75           1607          32.00       117.70
 1256.71        2979.00           1611          33.00       122.06
 1256.74        2979.25           1614          31.00       113.34
 1256.77        2979.50           1617          35.00       130.78
 1256.80        2979.75           1621          36.00       135.14
 1256.83        2980.00           1624          33.00       122.06
 1256.86        2980.25           1628          31.00       113.34
 1256.89        2980.50           1631          31.00       113.34
 1256.92        2980.75           1634          30.00       108.98
 1256.95        2981.00           1638          26.00        91.54
 1256.98        2981.25           1641          36.00       135.14
 1257.01        2981.50           1644          25.00        87.18
 1257.04        2981.75           1648          30.00       108.98
 1257.07        2982.00           1651          28.00       100.26
 1257.10        2982.25           1654          28.00       100.26
 1257.13        2982.50           1658          29.00       104.62
 1257.17        2982.75           1661          29.00       104.62
 1257.20        2983.00           1664          23.00        78.47
 1257.23        2983.25           1668          28.00       100.26
 1257.26        2983.50           1671          29.00       104.62
 1257.29        2983.75           1674          28.00       100.26
 1257.32        2984.00           1678          28.00       100.26
HS scan finished at 20:57:32
end
