************************************************************
  HS Scan of (1) Internal mercury lamp
************************************************************
Integration time is 0.2294 seconds per sample
dh250619ElArenosillo 37.1 6.73 3.072425pr1023
************************************************************
Dead Time -------------------------  2.7E-08 
Number of Cycles Used -------------  4 
Starting Wavelength (Angstroms) ---  2950 
Final Wavelength (Angstoms) -------  2984 
Wavelength Increment (Angstroms) --  .25 
Filter Wheel #1 Position ---------- (1) Ground quartz diffuser (ND=2.32)
Filter Wheel #2 Position ---------- (1) Neutral Density 0.494



************************************************************
HS scan start time = 02:35:01
Dark Count =  5.1 


Time (GMT)  Wavelength (Ang)  Step Number  Raw Counts  Counts/Second

  155.34        2950.00           1224          27.00        95.47
  155.41        2950.25           1227          36.00       134.70
  155.44        2950.50           1230          39.00       147.78
  155.47        2950.75           1234          32.00       117.26
  155.50        2951.00           1237          29.00       104.19
  155.53        2951.25           1240          29.00       104.19
  155.56        2951.50           1244          28.00        99.83
  155.59        2951.75           1247          31.00       112.90
  155.62        2952.00           1250          31.00       112.90
  155.65        2952.25           1254          30.00       108.54
  155.68        2952.50           1257          32.00       117.26
  155.71        2952.75           1260          41.00       156.50
  155.74        2953.00           1264          37.00       139.06
  155.77        2953.25           1267          30.00       108.54
  155.80        2953.50           1270          26.00        91.11
  155.83        2953.75           1274          31.00       112.90
  155.87        2954.00           1277          31.00       112.90
  155.90        2954.25           1280          30.00       108.54
  155.93        2954.50           1284          32.00       117.26
  155.96        2954.75           1287          31.00       112.90
  155.99        2955.00           1290          35.00       130.34
  156.02        2955.25           1294          34.00       125.98
  156.05        2955.50           1297          35.00       130.34
  156.08        2955.75           1300          36.00       134.70
  156.11        2956.00           1304          36.00       134.70
  156.14        2956.25           1307          35.00       130.34
  156.17        2956.50           1310          31.00       112.90
  156.20        2956.75           1314          43.00       165.21
  156.23        2957.00           1317          39.00       147.78
  156.26        2957.25           1320          47.00       182.65
  156.29        2957.50           1324          40.00       152.14
  156.32        2957.75           1327          43.00       165.21
  156.36        2958.00           1330          43.00       165.21
  156.39        2958.25           1334          45.00       173.93
  156.42        2958.50           1337          43.00       165.21
  156.45        2958.75           1340          43.00       165.21
  156.48        2959.00           1344          42.00       160.86
  156.51        2959.25           1347          56.00       221.88
  156.54        2959.50           1350          65.00       261.12
  156.57        2959.75           1354          89.00       365.74
  156.60        2960.00           1357         132.00       553.19
  156.63        2960.25           1360         173.00       731.92
  156.66        2960.50           1364         196.00       832.19
  156.69        2960.75           1367         264.00      1128.63
  156.72        2961.00           1370         288.00      1233.26
  156.75        2961.25           1373         391.00      1682.29
  156.78        2961.50           1377        1075.00      4664.49
  156.82        2961.75           1380        2154.00      9369.85
  156.85        2962.00           1383        3612.00     15729.87
  156.88        2962.25           1387        5712.00     24894.23
  156.91        2962.50           1390        7325.00     31936.42
  156.94        2962.75           1393        9156.00     39933.62
  156.97        2963.00           1397       11639.00     50784.07
  157.00        2963.25           1400       14013.00     61164.14
  157.03        2963.50           1404       16974.00     74118.98
  157.06        2963.75           1407       18994.00     82962.00
  157.09        2964.00           1410       20756.00     90679.02
  157.12        2964.25           1414       23156.00    101195.50
  157.15        2964.50           1417       24902.00    108850.00
  157.18        2964.75           1420       26917.00    117687.70
  157.22        2965.00           1424       29635.00    129615.40
  157.25        2965.25           1427       32075.00    140329.70
  157.28        2965.50           1430       33982.00    148707.90
  157.31        2965.75           1434       36245.00    158655.10
  157.34        2966.00           1437       38019.00    166456.50
  157.37        2966.25           1440       39739.00    174023.70
  157.40        2966.50           1444       41668.00    182514.00
  157.43        2966.75           1447       42360.00    185560.80
  157.46        2967.00           1450       42668.00    186917.00
  157.49        2967.25           1454       42643.00    186806.90
  157.52        2967.50           1457       42875.00    187828.50
  157.55        2967.75           1460       42440.00    185913.00
  157.58        2968.00           1464       41391.00    181294.60
  157.61        2968.25           1467       39950.00    174952.20
  157.64        2968.50           1470       38256.00    167499.00
  157.67        2968.75           1474       36023.00    157679.00
  157.70        2969.00           1477       33614.00    147090.90
  157.73        2969.25           1480       31891.00    139521.60
  157.77        2969.50           1484       29262.00    127978.10
  157.80        2969.75           1487       27210.00    118973.10
  157.83        2970.00           1490       25487.00    111415.30
  157.86        2970.25           1494       22939.00    100244.40
  157.89        2970.50           1497       20833.00     91016.34
  157.92        2970.75           1500       18877.00     82449.69
  157.95        2971.00           1504       16130.00     70425.43
  157.98        2971.25           1507       14044.00     61299.72
  158.01        2971.50           1510       12024.00     52467.04
  158.04        2971.75           1514        9447.00     41204.93
  158.07        2972.00           1517        7564.00     32980.10
  158.10        2972.25           1520        5538.00     24134.73
  158.13        2972.50           1524        2951.00     12846.22
  158.17        2972.75           1527        1558.00      6770.64
  158.20        2973.00           1530         800.00      3465.45
  158.23        2973.25           1534         367.00      1577.66
  158.26        2973.50           1537         266.00      1137.35
  158.29        2973.75           1540         201.00       853.99
  158.32        2974.00           1544         152.00       640.38
  158.35        2974.25           1547         114.00       474.72
  158.38        2974.50           1550          87.00       357.02
  158.41        2974.75           1554          73.00       295.99
  158.44        2975.00           1557          64.00       256.76
  158.47        2975.25           1561          47.00       182.65
  158.50        2975.50           1564          50.00       195.73
  158.53        2975.75           1567          42.00       160.86
  158.56        2976.00           1571          51.00       200.09
  158.59        2976.25           1574          45.00       173.93
  158.62        2976.50           1577          40.00       152.14
  158.66        2976.75           1581          35.00       130.34
  158.69        2977.00           1584          42.00       160.86
  158.72        2977.25           1587          38.00       143.42
  158.75        2977.50           1591          29.00       104.19
  158.78        2977.75           1594          39.00       147.78
  158.81        2978.00           1597          33.00       121.62
  158.84        2978.25           1601          40.00       152.14
  158.87        2978.50           1604          33.00       121.62
  158.90        2978.75           1607          32.00       117.26
  158.93        2979.00           1611          33.00       121.62
  158.96        2979.25           1614          28.00        99.83
  158.99        2979.50           1617          39.00       147.78
  159.02        2979.75           1621          42.00       160.86
  159.05        2980.00           1624          33.00       121.62
  159.08        2980.25           1628          37.00       139.06
  159.11        2980.50           1631          31.00       112.90
  159.14        2980.75           1634          37.00       139.06
  159.17        2981.00           1638          32.00       117.26
  159.21        2981.25           1641          28.00        99.83
  159.24        2981.50           1644          34.00       125.98
  159.27        2981.75           1648          33.00       121.62
  159.30        2982.00           1651          30.00       108.54
  159.33        2982.25           1654          28.00        99.83
  159.36        2982.50           1658          27.00        95.47
  159.39        2982.75           1661          30.00       108.54
  159.42        2983.00           1664          25.00        86.75
  159.45        2983.25           1668          30.00       108.54
  159.48        2983.50           1671          31.00       112.90
  159.51        2983.75           1674          31.00       112.90
  159.54        2984.00           1678          28.00        99.83
HS scan finished at 02:39:45
end
