************************************************************
  HS Scan of (1) Internal mercury lamp
************************************************************
Integration time is 0.2294 seconds per sample
dh200619ElArenosillo 37.1 6.73 2.965129pr1023
************************************************************
Dead Time -------------------------  2.7E-08 
Number of Cycles Used -------------  4 
Starting Wavelength (Angstroms) ---  2950 
Final Wavelength (Angstoms) -------  2984 
Wavelength Increment (Angstroms) --  .25 
Filter Wheel #1 Position ---------- (1) Ground quartz diffuser (ND=2.32)
Filter Wheel #2 Position ---------- (1) Neutral Density 0.494



************************************************************
HS scan start time = 02:26:46
Dark Count =  6.5 


Time (GMT)  Wavelength (Ang)  Step Number  Raw Counts  Counts/Second

  147.10        2950.00           1224          24.00        76.29
  147.17        2950.25           1227          33.00       115.52
  147.20        2950.50           1230          31.00       106.80
  147.23        2950.75           1234          32.00       111.16
  147.26        2951.00           1237          28.00        93.72
  147.29        2951.25           1240          29.00        98.08
  147.32        2951.50           1244          38.00       137.32
  147.35        2951.75           1247          27.00        89.36
  147.38        2952.00           1250          33.00       115.52
  147.41        2952.25           1254          39.00       141.67
  147.44        2952.50           1257          42.00       154.75
  147.47        2952.75           1260          36.00       128.60
  147.50        2953.00           1264          33.00       115.52
  147.53        2953.25           1267          30.00       102.44
  147.57        2953.50           1270          29.00        98.08
  147.60        2953.75           1274          37.00       132.96
  147.63        2954.00           1277          43.00       159.11
  147.66        2954.25           1280          33.00       115.52
  147.69        2954.50           1284          33.00       115.52
  147.72        2954.75           1287          33.00       115.52
  147.75        2955.00           1290          31.00       106.80
  147.78        2955.25           1294          29.00        98.08
  147.81        2955.50           1297          30.00       102.44
  147.84        2955.75           1300          35.00       124.24
  147.87        2956.00           1304          34.00       119.88
  147.90        2956.25           1307          43.00       159.11
  147.93        2956.50           1310          30.00       102.44
  147.96        2956.75           1314          41.00       150.39
  147.99        2957.00           1317          29.00        98.08
  148.02        2957.25           1320          37.00       132.96
  148.05        2957.50           1324          40.00       146.03
  148.09        2957.75           1327          43.00       159.11
  148.12        2958.00           1330          42.00       154.75
  148.15        2958.25           1334          38.00       137.32
  148.18        2958.50           1337          43.00       159.11
  148.21        2958.75           1340          46.00       172.19
  148.24        2959.00           1344          50.00       189.63
  148.27        2959.25           1347          69.00       272.45
  148.30        2959.50           1350          69.00       272.45
  148.33        2959.75           1354          85.00       342.20
  148.36        2960.00           1357         132.00       547.09
  148.39        2960.25           1360         164.00       686.59
  148.42        2960.50           1364         217.00       917.63
  148.46        2960.75           1367         260.00      1105.09
  148.49        2961.00           1370         307.00      1309.99
  148.52        2961.25           1373         392.00      1680.55
  148.55        2961.50           1377        1081.00      4684.55
  148.58        2961.75           1380        2239.00      9734.47
  148.61        2962.00           1383        3463.00     15073.70
  148.64        2962.25           1387        5551.00     24185.36
  148.67        2962.50           1390        7210.00     31428.14
  148.70        2962.75           1393        9016.00     39315.91
  148.73        2963.00           1397       11895.00     51897.00
  148.76        2963.25           1400       14011.00     61149.27
  148.79        2963.50           1404       16833.00     73495.75
  148.82        2963.75           1407       18784.00     82036.35
  148.85        2964.00           1410       20650.00     90208.55
  148.89        2964.25           1414       22813.00     99686.00
  148.92        2964.50           1417       24866.00    108686.00
  148.95        2964.75           1420       26795.00    117146.30
  148.98        2965.00           1424       29633.00    129600.50
  149.01        2965.25           1427       31773.00    138997.10
  149.04        2965.50           1430       33784.00    147831.70
  149.07        2965.75           1434       36179.00    158358.80
  149.10        2966.00           1437       37959.00    166186.50
  149.13        2966.25           1440       39563.00    173243.10
  149.16        2966.50           1444       41476.00    181662.60
  149.19        2966.75           1447       42265.00    185136.30
  149.22        2967.00           1450       42376.00    185625.10
  149.25        2967.25           1454       42726.00    187166.20
  149.29        2967.50           1457       42680.00    186963.70
  149.32        2967.75           1460       42279.00    185197.90
  149.35        2968.00           1464       41175.00    180337.60
  149.38        2968.25           1467       39844.00    174479.60
  149.41        2968.50           1470       38237.00    167409.30
  149.44        2968.75           1474       35749.00    156468.30
  149.47        2969.00           1477       33660.00    147286.80
  149.50        2969.25           1480       31762.00    138948.80
  149.53        2969.50           1484       28992.00    126786.80
  149.56        2969.75           1487       27118.00    118563.40
  149.60        2970.00           1490       25218.00    110229.50
  149.63        2970.25           1494       22839.00     99799.94
  149.66        2970.50           1497       20778.00     90769.27
  149.69        2970.75           1500       18692.00     81633.53
  149.72        2971.00           1504       15836.00     69132.85
  149.76        2971.25           1507       13854.00     60462.63
  149.80        2971.50           1510       11992.00     52321.03
  149.83        2971.75           1514        9310.00     40600.28
  149.86        2972.00           1517        7427.00     32375.72
  149.89        2972.25           1520        5444.00     23718.33
  149.92        2972.50           1524        2921.00     12709.24
  149.95        2972.75           1527        1515.00      6577.02
  149.98        2973.00           1530         805.00      3481.15
  150.01        2973.25           1534         396.00      1697.99
  150.04        2973.50           1537         262.00      1113.81
  150.08        2973.75           1540         211.00       891.48
  150.11        2974.00           1544         146.00       608.12
  150.14        2974.25           1547         111.00       455.54
  150.17        2974.50           1550          88.00       355.28
  150.20        2974.75           1554          63.00       246.30
  150.23        2975.00           1557          50.00       189.63
  150.26        2975.25           1561          50.00       189.63
  150.29        2975.50           1564          39.00       141.67
  150.32        2975.75           1567          47.00       176.55
  150.35        2976.00           1571          35.00       124.24
  150.38        2976.25           1574          40.00       146.03
  150.41        2976.50           1577          46.00       172.19
  150.44        2976.75           1581          43.00       159.11
  150.47        2977.00           1584          41.00       150.39
  150.50        2977.25           1587          36.00       128.60
  150.53        2977.50           1591          39.00       141.67
  150.57        2977.75           1594          42.00       154.75
  150.60        2978.00           1597          35.00       124.24
  150.63        2978.25           1601          40.00       146.03
  150.66        2978.50           1604          37.00       132.96
  150.69        2978.75           1607          36.00       128.60
  150.72        2979.00           1611          42.00       154.75
  150.75        2979.25           1614          33.00       115.52
  150.78        2979.50           1617          33.00       115.52
  150.81        2979.75           1621          35.00       124.24
  150.84        2980.00           1624          42.00       154.75
  150.87        2980.25           1628          34.00       119.88
  150.90        2980.50           1631          30.00       102.44
  150.93        2980.75           1634          30.00       102.44
  150.97        2981.00           1638          38.00       137.32
  151.00        2981.25           1641          36.00       128.60
  151.03        2981.50           1644          32.00       111.16
  151.06        2981.75           1648          31.00       106.80
  151.09        2982.00           1651          28.00        93.72
  151.12        2982.25           1654          29.00        98.08
  151.16        2982.50           1658          35.00       124.24
  151.19        2982.75           1661          33.00       115.52
  151.22        2983.00           1664          31.00       106.80
  151.25        2983.25           1668          32.00       111.16
  151.28        2983.50           1671          35.00       124.24
  151.31        2983.75           1674          28.00        93.72
  151.35        2984.00           1678          31.00       106.80
HS scan finished at 02:31:33
end
************************************************************
  HS Scan of (1) Internal mercury lamp
************************************************************
Integration time is 0.2294 seconds per sample
dh200619ElArenosillo 37.1 6.73 3.072425pr1023
************************************************************
Dead Time -------------------------  2.7E-08 
Number of Cycles Used -------------  4 
Starting Wavelength (Angstroms) ---  2950 
Final Wavelength (Angstoms) -------  2984 
Wavelength Increment (Angstroms) --  .25 
Filter Wheel #1 Position ---------- (1) Ground quartz diffuser (ND=2.32)
Filter Wheel #2 Position ---------- (1) Neutral Density 0.494



************************************************************
HS scan start time = 21:35:02
Dark Count =  4.7 


Time (GMT)  Wavelength (Ang)  Step Number  Raw Counts  Counts/Second

 1295.37        2950.00           1224          37.00       140.80
 1295.43        2950.25           1227          25.00        88.49
 1295.46        2950.50           1230          31.00       114.65
 1295.50        2950.75           1234          48.00       188.75
 1295.53        2951.00           1237          33.00       123.37
 1295.56        2951.25           1240          30.00       110.29
 1295.59        2951.50           1244          31.00       114.65
 1295.62        2951.75           1247          29.00       105.93
 1295.65        2952.00           1250          33.00       123.37
 1295.68        2952.25           1254          30.00       110.29
 1295.71        2952.50           1257          31.00       114.65
 1295.74        2952.75           1260          29.00       105.93
 1295.77        2953.00           1264          34.00       127.72
 1295.80        2953.25           1267          32.00       119.01
 1295.83        2953.50           1270          33.00       123.37
 1295.86        2953.75           1274          52.00       206.19
 1295.89        2954.00           1277          35.00       132.08
 1295.92        2954.25           1280          31.00       114.65
 1295.95        2954.50           1284          28.00       101.57
 1295.98        2954.75           1287          29.00       105.93
 1296.02        2955.00           1290          37.00       140.80
 1296.05        2955.25           1294          28.00       101.57
 1296.08        2955.50           1297          38.00       145.16
 1296.11        2955.75           1300          35.00       132.08
 1296.14        2956.00           1304          34.00       127.72
 1296.17        2956.25           1307          36.00       136.44
 1296.20        2956.50           1310          33.00       123.37
 1296.23        2956.75           1314          36.00       136.44
 1296.26        2957.00           1317          33.00       123.37
 1296.29        2957.25           1320          38.00       145.16
 1296.32        2957.50           1324          41.00       158.24
 1296.35        2957.75           1327          47.00       184.39
 1296.38        2958.00           1330          42.00       162.60
 1296.41        2958.25           1334          50.00       197.47
 1296.44        2958.50           1337          50.00       197.47
 1296.47        2958.75           1340          42.00       162.60
 1296.50        2959.00           1344          46.00       180.04
 1296.54        2959.25           1347          58.00       232.35
 1296.57        2959.50           1350          58.00       232.35
 1296.60        2959.75           1354          81.00       332.61
 1296.63        2960.00           1357         123.00       515.70
 1296.66        2960.25           1360         157.00       663.92
 1296.69        2960.50           1364         189.00       803.42
 1296.72        2960.75           1367         245.00      1047.54
 1296.75        2961.00           1370         264.00      1130.37
 1296.78        2961.25           1373         367.00      1579.40
 1296.81        2961.50           1377         958.00      4156.09
 1296.84        2961.75           1380        1928.00      8385.95
 1296.87        2962.00           1383        3368.00     14667.10
 1296.90        2962.25           1387        5577.00     24306.70
 1296.93        2962.50           1390        7207.00     31422.90
 1296.96        2962.75           1393        8929.00     38943.72
 1296.99        2963.00           1397       11385.00     49675.57
 1297.03        2963.25           1400       13536.00     59079.79
 1297.06        2963.50           1404       16482.00     71967.53
 1297.09        2963.75           1407       18698.00     81667.68
 1297.12        2964.00           1410       20706.00     90461.75
 1297.15        2964.25           1414       23262.00    101661.80
 1297.18        2964.50           1417       24902.00    108851.70
 1297.21        2964.75           1420       26738.00    116904.20
 1297.24        2965.00           1424       29428.00    128708.50
 1297.27        2965.25           1427       31438.00    137533.80
 1297.31        2965.50           1430       33664.00    147312.30
 1297.34        2965.75           1434       35965.00    157425.80
 1297.37        2966.00           1437       38090.00    166770.60
 1297.40        2966.25           1440       39806.00    174320.30
 1297.43        2966.50           1444       41825.00    183207.00
 1297.46        2966.75           1447       42504.00    186196.60
 1297.49        2967.00           1450       42991.00    188341.10
 1297.52        2967.25           1454       43155.00    189063.40
 1297.55        2967.50           1457       43190.00    189217.50
 1297.58        2967.75           1460       42818.00    187579.30
 1297.61        2968.00           1464       41744.00    182850.40
 1297.65        2968.25           1467       40367.00    176789.10
 1297.68        2968.50           1470       38931.00    170470.30
 1297.71        2968.75           1474       36698.00    160648.70
 1297.74        2969.00           1477       34680.00    151777.20
 1297.77        2969.25           1480       32410.00    141803.00
 1297.80        2969.50           1484       29900.00    130780.50
 1297.83        2969.75           1487       27724.00    121230.10
 1297.86        2970.00           1490       25744.00    112544.20
 1297.89        2970.25           1494       23164.00    101232.30
 1297.94        2970.50           1497       21385.00     93436.39
 1297.97        2970.75           1500       19472.00     85056.94
 1298.02        2971.00           1504       16679.00     72829.66
 1298.05        2971.25           1507       14471.00     63169.12
 1298.08        2971.50           1510       12345.00     53872.12
 1298.11        2971.75           1514        9755.00     42552.35
 1298.14        2972.00           1517        7980.00     34798.59
 1298.18        2972.25           1520        6091.00     26550.42
 1298.21        2972.50           1524        3514.00     15304.06
 1298.24        2972.75           1527        1886.00      8202.78
 1298.27        2973.00           1530         934.00      4051.45
 1298.30        2973.25           1534         425.00      1832.26
 1298.33        2973.50           1537         285.00      1221.92
 1298.36        2973.75           1540         224.00       956.00
 1298.39        2974.00           1544         151.00       637.76
 1298.42        2974.25           1547         135.00       568.01
 1298.45        2974.50           1550          99.00       411.08
 1298.48        2974.75           1554          61.00       245.42
 1298.51        2975.00           1557          55.00       219.27
 1298.54        2975.25           1561          50.00       197.47
 1298.57        2975.50           1564          52.00       206.19
 1298.60        2975.75           1567          46.00       180.04
 1298.63        2976.00           1571          35.00       132.08
 1298.67        2976.25           1574          51.00       201.83
 1298.70        2976.50           1577          46.00       180.04
 1298.73        2976.75           1581          42.00       162.60
 1298.76        2977.00           1584          40.00       153.88
 1298.79        2977.25           1587          45.00       175.68
 1298.82        2977.50           1591          41.00       158.24
 1298.85        2977.75           1594          36.00       136.44
 1298.88        2978.00           1597          34.00       127.72
 1298.91        2978.25           1601          31.00       114.65
 1298.94        2978.50           1604          27.00        97.21
 1298.97        2978.75           1607          33.00       123.37
 1299.00        2979.00           1611          31.00       114.65
 1299.03        2979.25           1614          34.00       127.72
 1299.06        2979.50           1617          28.00       101.57
 1299.10        2979.75           1621          34.00       127.72
 1299.13        2980.00           1624          36.00       136.44
 1299.16        2980.25           1628          33.00       123.37
 1299.19        2980.50           1631          34.00       127.72
 1299.22        2980.75           1634          34.00       127.72
 1299.25        2981.00           1638          30.00       110.29
 1299.28        2981.25           1641          33.00       123.37
 1299.31        2981.50           1644          25.00        88.49
 1299.34        2981.75           1648          29.00       105.93
 1299.37        2982.00           1651          28.00       101.57
 1299.40        2982.25           1654          38.00       145.16
 1299.43        2982.50           1658          32.00       119.01
 1299.46        2982.75           1661          28.00       101.57
 1299.49        2983.00           1664          32.00       119.01
 1299.52        2983.25           1668          33.00       123.37
 1299.55        2983.50           1671          27.00        97.21
 1299.58        2983.75           1674          29.00       105.93
 1299.61        2984.00           1678          29.00       105.93
HS scan finished at 21:39:50
end
