************************************************************
  HL Scan of (1) Internal mercury lamp
************************************************************
Integration time is 0.2294 seconds per sample
dh050118Manchester 53.47 2.23 2.750537pr1000
************************************************************
Dead Time -------------------------  3E-08 
Number of Cycles Used -------------  4 
Starting Wavelength (Angstroms) ---  3331 
Final Wavelength (Angstoms) -------  3351 
Wavelength Increment (Angstroms) --  .25 
Filter Wheel #1 Position ---------- (1) Ground quartz diffuser (ND=2.32)
Filter Wheel #2 Position ---------- 



************************************************************
HL scan start time = 01:00:02
Dark Count =  7.7 


Time (GMT)  Wavelength (Ang)  Step Number  Raw Counts  Counts/Second

   60.55        3331.00           6610          50.00       184.40
   60.77        3331.25           6614          57.00       214.91
   60.80        3331.50           6618          52.00       193.11
   60.83        3331.75           6622          52.00       193.11
   60.86        3332.00           6626          50.00       184.40
   60.90        3332.25           6629          60.00       227.99
   60.93        3332.50           6633          58.00       219.27
   60.96        3332.75           6637          59.00       223.63
   60.99        3333.00           6641          51.00       188.75
   61.02        3333.25           6644          58.00       219.27
   61.05        3333.50           6648          54.00       201.83
   61.08        3333.75           6652          57.00       214.91
   61.11        3334.00           6656          55.00       206.19
   61.14        3334.25           6659          71.00       275.94
   61.17        3334.50           6663          91.00       363.13
   61.20        3334.75           6667         106.00       428.51
   61.24        3335.00           6671         139.00       572.37
   61.27        3335.25           6674         161.00       668.28
   61.30        3335.50           6678         177.00       738.03
   61.33        3335.75           6682         205.00       860.09
   61.36        3336.00           6686         241.00      1017.03
   61.39        3336.25           6689         287.00      1217.57
   61.42        3336.50           6693         475.00      2037.18
   61.45        3336.75           6697        1511.00      6554.47
   61.48        3337.00           6701        2921.00     12704.49
   61.51        3337.25           6704        4027.00     17530.14
   61.54        3337.50           6708        5495.00     23937.41
   61.58        3337.75           6712        7066.00     30796.97
   61.61        3338.00           6716        8759.00     38192.38
   61.64        3338.25           6719        9820.00     42828.75
   61.67        3338.50           6723       11254.00     49097.11
   61.70        3338.75           6727       12836.00     56015.15
   61.73        3339.00           6731       14520.00     63382.40
   61.76        3339.25           6734       15654.00     68345.31
   61.79        3339.50           6738       17150.00     74894.78
   61.82        3339.75           6742       18843.00     82309.81
   61.86        3340.00           6746       20274.00     88579.91
   61.89        3340.25           6750       21653.00     94624.38
   61.92        3340.50           6753       22686.00     99153.71
   61.95        3340.75           6757       24016.00    104987.10
   61.98        3341.00           6761       25587.00    111880.10
   62.01        3341.25           6765       26839.00    117375.50
   62.04        3341.50           6768       27067.00    118376.50
   62.07        3341.75           6772       27041.00    118262.40
   62.10        3342.00           6776       27089.00    118473.10
   62.13        3342.25           6780       26051.00    113916.60
   62.17        3342.50           6783       24882.00    108786.50
   62.20        3342.75           6787       23464.00    102565.80
   62.23        3343.00           6791       21904.00     95724.82
   62.26        3343.25           6795       20462.00     89403.81
   62.29        3343.50           6798       19436.00     84907.82
   62.32        3343.75           6802       17792.00     77706.23
   62.35        3344.00           6806       16335.00     71326.40
   62.38        3344.25           6810       14851.00     64830.85
   62.41        3344.50           6814       13327.00     58162.87
   62.44        3344.75           6817       12014.00     52420.21
   62.47        3345.00           6821       10631.00     46373.54
   62.50        3345.25           6825        9045.00     39442.02
   62.54        3345.50           6829        7556.00     32937.06
   62.57        3345.75           6832        6479.00     28233.58
   62.60        3346.00           6836        4850.00     21121.92
   62.63        3346.25           6840        3432.00     14933.89
   62.66        3346.50           6844        1961.00      8517.00
   62.69        3346.75           6847        1022.00      4422.12
   62.72        3347.00           6851         319.00      1357.07
   62.75        3347.25           6855         162.00       672.64
   62.78        3347.50           6859         125.00       511.34
   62.82        3347.75           6863         105.00       424.16
   62.85        3348.00           6866          74.00       289.02
   62.88        3348.25           6870          56.00       210.55
   62.91        3348.50           6874          63.00       241.07
   62.94        3348.75           6878          56.00       210.55
   62.97        3349.00           6881          60.00       227.99
   63.00        3349.25           6885          56.00       210.55
   63.03        3349.50           6889          59.00       223.63
   63.06        3349.75           6893          48.00       175.68
   63.09        3350.00           6896          55.00       206.19
   63.12        3350.25           6900          60.00       227.99
   63.15        3350.50           6904          67.00       258.50
   63.19        3350.75           6908          54.00       201.83
   63.22        3351.00           6912          54.00       201.83
HL scan finished at 01:03:53
end
