************************************************************
  HL Scan of (1) Internal mercury lamp
************************************************************
Integration time is 0.2294 seconds per sample
dh050119Manchester 53.47 2.23 2.804185pr1000
************************************************************
Dead Time -------------------------  3E-08 
Number of Cycles Used -------------  4 
Starting Wavelength (Angstroms) ---  3331 
Final Wavelength (Angstoms) -------  3351 
Wavelength Increment (Angstroms) --  .25 
Filter Wheel #1 Position ---------- (1) Ground quartz diffuser (ND=2.32)
Filter Wheel #2 Position ---------- 



************************************************************
HL scan start time = 01:00:03
Dark Count =  5.3 


Time (GMT)  Wavelength (Ang)  Step Number  Raw Counts  Counts/Second

   60.57        3331.00           6610          43.00       164.34
   60.79        3331.25           6614          43.00       164.34
   60.82        3331.50           6618          47.00       181.78
   60.85        3331.75           6622          38.00       142.55
   60.88        3332.00           6626          47.00       181.78
   60.91        3332.25           6629          46.00       177.42
   60.94        3332.50           6633          47.00       181.78
   60.98        3332.75           6637          42.00       159.98
   61.01        3333.00           6641          49.00       190.50
   61.04        3333.25           6644          41.00       155.62
   61.07        3333.50           6648          49.00       190.50
   61.10        3333.75           6652          45.00       173.06
   61.13        3334.00           6656          44.00       168.70
   61.16        3334.25           6659          46.00       177.42
   61.19        3334.50           6663          56.00       221.01
   61.22        3334.75           6667          69.00       277.68
   61.26        3335.00           6671          90.00       369.23
   61.29        3335.25           6674         103.00       425.90
   61.32        3335.50           6678         124.00       517.44
   61.35        3335.75           6682         119.00       495.65
   61.38        3336.00           6686         150.00       630.79
   61.41        3336.25           6689         177.00       748.49
   61.44        3336.50           6693         314.00      1345.74
   61.47        3336.75           6697         981.00      4253.81
   61.50        3337.00           6701        1987.00      8640.86
   61.53        3337.25           6704        2835.00     12339.79
   61.57        3337.50           6708        3908.00     17021.33
   61.60        3337.75           6712        5034.00     21935.53
   61.63        3338.00           6716        6063.00     26427.66
   61.66        3338.25           6719        6774.00     29532.26
   61.69        3338.50           6723        7930.00     34581.19
   61.72        3338.75           6727        8922.00     38915.07
   61.75        3339.00           6731        9907.00     43219.48
   61.78        3339.25           6734       10757.00     46934.83
   61.81        3339.50           6738       11801.00     51499.30
   61.85        3339.75           6742       13019.00     56826.09
   61.88        3340.00           6746       14020.00     61205.14
   61.91        3340.25           6750       15192.00     66333.71
   61.94        3340.50           6753       15924.00     69537.68
   61.97        3340.75           6757       16901.00     73814.98
   62.00        3341.00           6761       18072.00     78943.06
   62.03        3341.25           6765       18690.00     81650.06
   62.06        3341.50           6768       18967.00     82863.54
   62.09        3341.75           6772       18911.00     82618.21
   62.12        3342.00           6776       18824.00     82237.07
   62.16        3342.25           6780       18080.00     78978.10
   62.19        3342.50           6783       17396.00     75982.50
   62.22        3342.75           6787       16455.00     71862.26
   62.25        3343.00           6791       15349.00     67020.85
   62.28        3343.25           6795       14291.00     62390.87
   62.31        3343.50           6798       13498.00     58921.41
   62.34        3343.75           6802       12400.00     54118.74
   62.37        3344.00           6806       11169.00     48735.99
   62.40        3344.25           6810       10197.00     44486.98
   62.43        3344.50           6814        9197.00     40116.70
   62.47        3344.75           6817        8430.00     36765.47
   62.50        3345.00           6821        7275.00     31720.23
   62.53        3345.25           6825        6365.00     27746.28
   62.56        3345.50           6829        5321.00     23188.32
   62.59        3345.75           6832        4438.00     19334.23
   62.62        3346.00           6836        3271.00     14241.92
   62.65        3346.25           6840        2197.00      9556.79
   62.68        3346.50           6844        1142.00      4955.84
   62.71        3346.75           6847         529.00      2283.07
   62.74        3347.00           6851         189.00       800.80
   62.77        3347.25           6855         126.00       526.16
   62.80        3347.50           6859         101.00       417.18
   62.84        3347.75           6863          88.00       360.51
   62.87        3348.00           6866          72.00       290.76
   62.90        3348.25           6870          50.00       194.86
   62.93        3348.50           6874          47.00       181.78
   62.96        3348.75           6878          48.00       186.14
   62.99        3349.00           6881          44.00       168.70
   63.02        3349.25           6885          40.00       151.26
   63.05        3349.50           6889          43.00       164.34
   63.08        3349.75           6893          40.00       151.26
   63.11        3350.00           6896          45.00       173.06
   63.14        3350.25           6900          46.00       177.42
   63.17        3350.50           6904          39.00       146.91
   63.21        3350.75           6908          44.00       168.70
   63.24        3351.00           6912          42.00       159.98
HL scan finished at 01:03:54
end
