************************************************************
  HL Scan of (1) Internal mercury lamp
************************************************************
Integration time is 0.2294 seconds per sample
dh190117Manchester 53.47 2.23 2.804185pr1000
************************************************************
Dead Time -------------------------  3E-08 
Number of Cycles Used -------------  4 
Starting Wavelength (Angstroms) ---  3331 
Final Wavelength (Angstoms) -------  3351 
Wavelength Increment (Angstroms) --  .25 
Filter Wheel #1 Position ---------- (1) Ground quartz diffuser (ND=2.32)
Filter Wheel #2 Position ---------- 



************************************************************
HL scan start time = 01:05:21
Dark Count =  9.600001 


Time (GMT)  Wavelength (Ang)  Step Number  Raw Counts  Counts/Second

   65.88        3331.00           6610          53.00       189.19
   66.10        3331.25           6614          56.00       202.27
   66.13        3331.50           6618          57.00       206.63
   66.17        3331.75           6622          54.00       193.55
   66.20        3332.00           6626          79.00       302.53
   66.23        3332.25           6629          59.00       215.35
   66.26        3332.50           6633          66.00       245.86
   66.29        3332.75           6637          61.00       224.06
   66.32        3333.00           6641          56.00       202.27
   66.35        3333.25           6644          56.00       202.27
   66.38        3333.50           6648          49.00       171.75
   66.41        3333.75           6652          52.00       184.83
   66.44        3334.00           6656          63.00       232.78
   66.47        3334.25           6659          67.00       250.22
   66.50        3334.50           6663          71.00       267.66
   66.53        3334.75           6667          96.00       376.64
   66.56        3335.00           6671         117.00       468.18
   66.59        3335.25           6674         134.00       542.29
   66.63        3335.50           6678         157.00       642.56
   66.66        3335.75           6682         174.00       716.67
   66.69        3336.00           6686         199.00       825.65
   66.72        3336.25           6689         253.00      1061.06
   66.75        3336.50           6693         451.00      1924.26
   66.78        3336.75           6697        1384.00      5992.36
   66.81        3337.00           6701        2668.00     11592.52
   66.84        3337.25           6704        3700.00     16094.95
   66.87        3337.50           6708        5071.00     22078.26
   66.90        3337.75           6712        6465.00     28164.16
   66.93        3338.00           6716        7824.00     34099.38
   66.96        3338.25           6719        8990.00     39193.40
   67.00        3338.50           6723       10499.00     45788.23
   67.03        3338.75           6727       11936.00     52070.82
   67.06        3339.00           6731       13099.00     57157.21
   67.09        3339.25           6734       14356.00     62656.47
   67.12        3339.50           6738       15696.00     68520.84
   67.15        3339.75           6742       17205.00     75127.29
   67.18        3340.00           6746       18534.00     80947.87
   67.21        3340.25           6750       20033.00     87515.44
   67.24        3340.50           6753       21118.00     92270.76
   67.27        3340.75           6757       22309.00     97492.22
   67.30        3341.00           6761       23828.00    104154.10
   67.33        3341.25           6765       24890.00    108813.20
   67.37        3341.50           6768       25162.00    110006.70
   67.40        3341.75           6772       25308.00    110647.40
   67.43        3342.00           6776       25153.00    109967.30
   67.46        3342.25           6780       24557.00    107352.20
   67.49        3342.50           6783       23613.00    103211.00
   67.52        3342.75           6787       22057.00     96387.30
   67.55        3343.00           6791       20566.00     89851.29
   67.58        3343.25           6795       19134.00     83576.34
   67.61        3343.50           6798       18272.00     79800.24
   67.64        3343.75           6802       16830.00     73485.28
   67.68        3344.00           6806       15392.00     67190.23
   67.71        3344.25           6810       14146.00     61737.61
   67.74        3344.50           6814       12596.00     54957.15
   67.77        3344.75           6817       11476.00     50059.43
   67.80        3345.00           6821       10040.00     43781.97
   67.83        3345.25           6825        8607.00     37519.98
   67.86        3345.50           6829        7176.00     31269.08
   67.89        3345.75           6832        6158.00     26823.67
   67.92        3346.00           6836        4676.00     20354.19
   67.96        3346.25           6840        3200.00     13913.39
   67.99        3346.50           6844        1852.00      8033.32
   68.02        3346.75           6847        1030.00      4448.72
   68.05        3347.00           6851         320.00      1353.15
   68.08        3347.25           6855         173.00       712.31
   68.11        3347.50           6859         130.00       524.86
   68.14        3347.75           6863         102.00       402.79
   68.17        3348.00           6866          96.00       376.64
   68.20        3348.25           6870          79.00       302.53
   68.23        3348.50           6874          60.00       219.71
   68.27        3348.75           6878          49.00       171.75
   68.30        3349.00           6881          58.00       210.99
   68.33        3349.25           6885          51.00       180.47
   68.36        3349.50           6889          66.00       245.86
   68.39        3349.75           6893          57.00       206.63
   68.42        3350.00           6896          51.00       180.47
   68.45        3350.25           6900          54.00       193.55
   68.48        3350.50           6904          47.00       163.03
   68.51        3350.75           6908          51.00       180.47
   68.54        3351.00           6912          49.00       171.75
HL scan finished at 01:09:12
end
