************************************************************
  HL Scan of (1) Internal mercury lamp
************************************************************
Integration time is 0.2294 seconds per sample
dh190119Manchester 53.47 2.23 2.750537pr1000
************************************************************
Dead Time -------------------------  3E-08 
Number of Cycles Used -------------  4 
Starting Wavelength (Angstroms) ---  3331 
Final Wavelength (Angstoms) -------  3351 
Wavelength Increment (Angstroms) --  .25 
Filter Wheel #1 Position ---------- (1) Ground quartz diffuser (ND=2.32)
Filter Wheel #2 Position ---------- 



************************************************************
HL scan start time = 01:05:30
Dark Count =  7.5 


Time (GMT)  Wavelength (Ang)  Step Number  Raw Counts  Counts/Second

   66.02        3331.00           6610          46.00       167.83
   66.24        3331.25           6614          41.00       146.03
   66.27        3331.50           6618          50.00       185.27
   66.30        3331.75           6622          38.00       132.96
   66.33        3332.00           6626          50.00       185.27
   66.36        3332.25           6629          41.00       146.03
   66.39        3332.50           6633          44.00       159.11
   66.43        3332.75           6637          39.00       137.32
   66.46        3333.00           6641          40.00       141.67
   66.49        3333.25           6644          40.00       141.67
   66.52        3333.50           6648          41.00       146.03
   66.55        3333.75           6652          40.00       141.67
   66.58        3334.00           6656          44.00       159.11
   66.61        3334.25           6659          54.00       202.70
   66.64        3334.50           6663          63.00       241.94
   66.67        3334.75           6667          61.00       233.22
   66.70        3335.00           6671          87.00       346.56
   66.73        3335.25           6674         103.00       416.31
   66.77        3335.50           6678         121.00       494.78
   66.80        3335.75           6682         142.00       586.32
   66.83        3336.00           6686         164.00       682.23
   66.86        3336.25           6689         184.00       769.42
   66.89        3336.50           6693         284.00      1205.36
   66.92        3336.75           6697         910.00      3934.64
   66.95        3337.00           6701        1932.00      8391.39
   66.98        3337.25           6704        2670.00     11610.41
   67.01        3337.50           6708        3640.00     15842.32
   67.04        3337.75           6712        4692.00     20433.19
   67.07        3338.00           6716        5800.00     25269.81
   67.10        3338.25           6719        6561.00     28592.52
   67.13        3338.50           6723        7651.00     33352.89
   67.16        3338.75           6727        8776.00     38267.54
   67.19        3339.00           6731        9814.00     42803.41
   67.23        3339.25           6734       10639.00     46409.38
   67.26        3339.50           6738       11610.00     50654.51
   67.29        3339.75           6742       12794.00     55832.33
   67.32        3340.00           6746       13855.00     60473.61
   67.35        3340.25           6750       14823.00     64709.19
   67.38        3340.50           6753       15669.00     68411.84
   67.41        3340.75           6757       16589.00     72439.30
   67.44        3341.00           6761       17646.00     77067.69
   67.47        3341.25           6765       18376.00     80264.98
   67.50        3341.50           6768       18649.00     81460.82
   67.53        3341.75           6772       18857.00     82372.00
   67.57        3342.00           6776       18640.00     81421.40
   67.60        3342.25           6780       17975.00     78508.59
   67.63        3342.50           6783       17191.00     75075.18
   67.66        3342.75           6787       16021.00     69952.66
   67.69        3343.00           6791       15075.00     65812.03
   67.72        3343.25           6795       14079.00     61453.65
   67.75        3343.50           6798       13283.00     57971.27
   67.78        3343.75           6802       12218.00     53313.19
   67.81        3344.00           6806       11104.00     48442.19
   67.84        3344.25           6810       10151.00     44276.30
   67.87        3344.50           6814        9107.00     39713.81
   67.91        3344.75           6817        8333.00     36332.08
   67.94        3345.00           6821        7282.00     31741.20
   67.97        3345.25           6825        6347.00     27658.08
   68.00        3345.50           6829        5287.00     23030.29
   68.03        3345.75           6832        4510.00     19638.86
   68.06        3346.00           6836        3349.00     14572.63
   68.09        3346.25           6840        2388.00     10380.30
   68.12        3346.50           6844        1386.00      6010.24
   68.15        3346.75           6847         683.00      2944.90
   68.18        3347.00           6851         233.00       983.03
   68.22        3347.25           6855         122.00       499.14
   68.25        3347.50           6859          89.00       355.28
   68.28        3347.75           6863          66.00       255.02
   68.31        3348.00           6866          56.00       211.42
   68.34        3348.25           6870          51.00       189.63
   68.37        3348.50           6874          47.00       172.19
   68.40        3348.75           6878          42.00       150.39
   68.43        3349.00           6881          44.00       159.11
   68.46        3349.25           6885          43.00       154.75
   68.49        3349.50           6889          46.00       167.83
   68.52        3349.75           6893          42.00       150.39
   68.56        3350.00           6896          44.00       159.11
   68.59        3350.25           6900          39.00       137.32
   68.62        3350.50           6904          51.00       189.63
   68.65        3350.75           6908          47.00       172.19
   68.68        3351.00           6912          48.00       176.55
HL scan finished at 01:09:20
end
