************************************************************
  HL Scan of (1) Internal mercury lamp
************************************************************
Integration time is 0.2294 seconds per sample
dh120117Manchester 53.47 2.23 2.750537pr1000
************************************************************
Dead Time -------------------------  3E-08 
Number of Cycles Used -------------  4 
Starting Wavelength (Angstroms) ---  3331 
Final Wavelength (Angstoms) -------  3351 
Wavelength Increment (Angstroms) --  .25 
Filter Wheel #1 Position ---------- (1) Ground quartz diffuser (ND=2.32)
Filter Wheel #2 Position ---------- 



************************************************************
HL scan start time = 01:03:08
Dark Count =  5 


Time (GMT)  Wavelength (Ang)  Step Number  Raw Counts  Counts/Second

   63.65        3331.00           6610          52.00       204.88
   63.87        3331.25           6614          55.00       217.96
   63.91        3331.50           6618          59.00       235.40
   63.94        3331.75           6622          49.00       191.81
   63.97        3332.00           6626          56.00       222.32
   64.00        3332.25           6629          66.00       265.91
   64.03        3332.50           6633          49.00       191.81
   64.06        3332.75           6637          52.00       204.88
   64.09        3333.00           6641          57.00       226.68
   64.12        3333.25           6644          58.00       231.04
   64.15        3333.50           6648          50.00       196.17
   64.18        3333.75           6652          57.00       226.68
   64.22        3334.00           6656          53.00       209.24
   64.25        3334.25           6659          67.00       270.27
   64.28        3334.50           6663          86.00       353.10
   64.31        3334.75           6667         103.00       427.21
   64.34        3335.00           6671         121.00       505.67
   64.37        3335.25           6674         143.00       601.58
   64.40        3335.50           6678         161.00       680.05
   64.43        3335.75           6682         178.00       754.16
   64.46        3336.00           6686         214.00       911.10
   64.49        3336.25           6689         268.00      1146.51
   64.52        3336.50           6693         614.00      2654.96
   64.56        3336.75           6697        1645.00      7150.62
   64.59        3337.00           6701        3096.00     13479.73
   64.62        3337.25           6704        4185.00     18231.42
   64.65        3337.50           6708        5590.00     24363.93
   64.68        3337.75           6712        7050.00     30738.88
   64.71        3338.00           6716        8432.00     36775.51
   64.74        3338.25           6719        9550.00     41660.58
   64.77        3338.50           6723       10998.00     47989.71
   64.80        3338.75           6727       12470.00     54426.20
   64.83        3339.00           6731       13909.00     60720.80
   64.86        3339.25           6734       14934.00     65205.90
   64.90        3339.50           6738       16547.00     72266.35
   64.93        3339.75           6742       17908.00     78226.08
   64.96        3340.00           6746       19593.00     85607.55
   64.99        3340.25           6750       20745.00     90655.99
   65.02        3340.50           6753       21762.00     95114.08
   65.05        3340.75           6757       23174.00    101305.70
   65.08        3341.00           6761       24376.00    106578.20
   65.11        3341.25           6765       25245.00    110391.10
   65.14        3341.50           6768       25489.00    111461.90
   65.17        3341.75           6772       25489.00    111461.90
   65.20        3342.00           6776       25076.00    109649.60
   65.24        3342.25           6780       24085.00    105301.60
   65.27        3342.50           6783       23258.00    101674.10
   65.30        3342.75           6787       21942.00     95903.26
   65.33        3343.00           6791       20507.00     89612.87
   65.36        3343.25           6795       19135.00     83600.87
   65.39        3343.50           6798       18089.00     79018.83
   65.42        3343.75           6802       16710.00     72980.02
   65.45        3344.00           6806       15284.00     66737.68
   65.48        3344.25           6810       13673.00     59688.31
   65.51        3344.50           6814       12267.00     53538.41
   65.54        3344.75           6817       11238.00     49038.96
   65.58        3345.00           6821        9829.00     42879.89
   65.61        3345.25           6825        8426.00     36749.30
   65.64        3345.50           6829        7046.00     30721.42
   65.67        3345.75           6832        5797.00     25267.62
   65.70        3346.00           6836        4431.00     19304.99
   65.73        3346.25           6840        2948.00     12834.06
   65.76        3346.50           6844        1638.00      7120.09
   65.79        3346.75           6847         867.00      3758.05
   65.82        3347.00           6851         294.00      1259.86
   65.85        3347.25           6855         181.00       767.24
   65.88        3347.50           6859         135.00       566.71
   65.92        3347.75           6863         106.00       440.28
   65.95        3348.00           6866          70.00       283.35
   65.98        3348.25           6870          63.00       252.84
   66.01        3348.50           6874          65.00       261.55
   66.04        3348.75           6878          62.00       248.48
   66.07        3349.00           6881          56.00       222.32
   66.10        3349.25           6885          60.00       239.76
   66.13        3349.50           6889          49.00       191.81
   66.16        3349.75           6893          60.00       239.76
   66.19        3350.00           6896          49.00       191.81
   66.22        3350.25           6900          53.00       209.24
   66.26        3350.50           6904          62.00       248.48
   66.29        3350.75           6908          56.00       222.32
   66.32        3351.00           6912          48.00       187.45
HL scan finished at 01:06:59
end
