************************************************************
  HL Scan of (1) Internal mercury lamp
************************************************************
Integration time is 0.2294 seconds per sample
dh120118Manchester 53.47 2.23 2.804185pr1000
************************************************************
Dead Time -------------------------  3E-08 
Number of Cycles Used -------------  4 
Starting Wavelength (Angstroms) ---  3331 
Final Wavelength (Angstoms) -------  3351 
Wavelength Increment (Angstroms) --  .25 
Filter Wheel #1 Position ---------- (1) Ground quartz diffuser (ND=2.32)
Filter Wheel #2 Position ---------- 



************************************************************
HL scan start time = 01:02:56
Dark Count =  6.9 


Time (GMT)  Wavelength (Ang)  Step Number  Raw Counts  Counts/Second

   63.46        3331.00           6610          61.00       235.83
   63.68        3331.25           6614          48.00       179.16
   63.71        3331.50           6618          59.00       227.12
   63.74        3331.75           6622          58.00       222.76
   63.77        3332.00           6626          50.00       187.88
   63.80        3332.25           6629          56.00       214.04
   63.83        3332.50           6633          52.00       196.60
   63.87        3332.75           6637          56.00       214.04
   63.90        3333.00           6641          48.00       179.16
   63.93        3333.25           6644          53.00       200.96
   63.96        3333.50           6648          53.00       200.96
   63.99        3333.75           6652          64.00       248.91
   64.02        3334.00           6656          51.00       192.24
   64.05        3334.25           6659          71.00       279.43
   64.08        3334.50           6663          85.00       340.46
   64.11        3334.75           6667          96.00       388.41
   64.14        3335.00           6671         126.00       519.19
   64.17        3335.25           6674         158.00       658.69
   64.21        3335.50           6678         165.00       689.20
   64.24        3335.75           6682         199.00       837.42
   64.27        3336.00           6686         221.00       933.33
   64.30        3336.25           6689         266.00      1129.51
   64.33        3336.50           6693         584.00      2515.88
   64.36        3336.75           6697        1713.00      7438.89
   64.39        3337.00           6701        3146.00     13689.58
   64.42        3337.25           6704        4106.00     17878.38
   64.45        3337.50           6708        5668.00     24696.15
   64.48        3337.75           6712        7122.00     31045.03
   64.51        3338.00           6716        8620.00     37588.57
   64.55        3338.25           6719        9887.00     43125.07
   64.58        3338.50           6723       11296.00     49284.24
   64.61        3338.75           6727       12803.00     55874.31
   64.64        3339.00           6731       14298.00     62414.49
   64.67        3339.25           6734       15408.00     67272.08
   64.70        3339.50           6738       16979.00     74149.50
   64.73        3339.75           6742       18341.00     80114.29
   64.76        3340.00           6746       19887.00     86887.47
   64.79        3340.25           6750       21431.00     93654.66
   64.82        3340.50           6753       22337.00     97626.84
   64.86        3340.75           6757       23869.00    104345.80
   64.89        3341.00           6761       25222.00    110281.90
   64.92        3341.25           6765       26269.00    114876.90
   64.95        3341.50           6768       26714.00    116830.30
   64.98        3341.75           6772       26548.00    116101.60
   65.01        3342.00           6776       26393.00    115421.20
   65.04        3342.25           6780       25267.00    110479.30
   65.07        3342.50           6783       24287.00    106179.50
   65.10        3342.75           6787       22770.00     99525.58
   65.14        3343.00           6791       21304.00     93097.93
   65.17        3343.25           6795       19816.00     86576.36
   65.20        3343.50           6798       18577.00     81148.05
   65.23        3343.75           6802       17310.00     75598.91
   65.26        3344.00           6806       15648.00     68322.55
   65.29        3344.25           6810       14313.00     62480.12
   65.32        3344.50           6814       12596.00     54968.96
   65.35        3344.75           6817       11594.00     50587.17
   65.38        3345.00           6821       10085.00     43990.45
   65.42        3345.25           6825        8586.00     37440.02
   65.45        3345.50           6829        7259.00     31643.36
   65.48        3345.75           6832        5907.00     25739.57
   65.51        3346.00           6836        4506.00     19624.02
   65.54        3346.25           6840        2961.00     12882.49
   65.57        3346.50           6844        1549.00      6723.68
   65.60        3346.75           6847         731.00      3156.79
   65.63        3347.00           6851         247.00      1046.68
   65.66        3347.25           6855         160.00       667.41
   65.69        3347.50           6859         122.00       501.75
   65.73        3347.75           6863         107.00       436.36
   65.76        3348.00           6866          81.00       323.02
   65.79        3348.25           6870          68.00       266.35
   65.82        3348.50           6874          63.00       244.55
   65.85        3348.75           6878          57.00       218.40
   65.88        3349.00           6881          56.00       214.04
   65.91        3349.25           6885          58.00       222.76
   65.94        3349.50           6889          60.00       231.48
   65.97        3349.75           6893          56.00       214.04
   66.00        3350.00           6896          60.00       231.48
   66.03        3350.25           6900          62.00       240.19
   66.06        3350.50           6904          59.00       227.12
   66.10        3350.75           6908          50.00       187.88
   66.13        3351.00           6912          59.00       227.12
HL scan finished at 01:06:47
end
