************************************************************
  HL Scan of (1) Internal mercury lamp
************************************************************
Integration time is 0.2294 seconds per sample
dh120119Manchester 53.47 2.23 2.804185pr1000
************************************************************
Dead Time -------------------------  3E-08 
Number of Cycles Used -------------  4 
Starting Wavelength (Angstroms) ---  3331 
Final Wavelength (Angstoms) -------  3351 
Wavelength Increment (Angstroms) --  .25 
Filter Wheel #1 Position ---------- (1) Ground quartz diffuser (ND=2.32)
Filter Wheel #2 Position ---------- 



************************************************************
HL scan start time = 01:03:16
Dark Count =  6.8 


Time (GMT)  Wavelength (Ang)  Step Number  Raw Counts  Counts/Second

   63.80        3331.00           6610          37.00       131.65
   64.02        3331.25           6614          49.00       183.96
   64.05        3331.50           6618          44.00       162.16
   64.08        3331.75           6622          41.00       149.09
   64.11        3332.00           6626          46.00       170.88
   64.14        3332.25           6629          52.00       197.04
   64.18        3332.50           6633          50.00       188.32
   64.21        3332.75           6637          44.00       162.16
   64.24        3333.00           6641          35.00       122.93
   64.27        3333.25           6644          40.00       144.73
   64.30        3333.50           6648          46.00       170.88
   64.33        3333.75           6652          43.00       157.80
   64.36        3334.00           6656          41.00       149.09
   64.39        3334.25           6659          48.00       179.60
   64.42        3334.50           6663          65.00       253.71
   64.45        3334.75           6667          72.00       284.22
   64.48        3335.00           6671          84.00       336.53
   64.51        3335.25           6674         118.00       484.75
   64.55        3335.50           6678         141.00       585.01
   64.58        3335.75           6682         131.00       541.42
   64.61        3336.00           6686         146.00       606.81
   64.64        3336.25           6689         186.00       781.19
   64.67        3336.50           6693         277.00      1177.90
   64.70        3336.75           6697         821.00      3549.64
   64.73        3337.00           6701        1863.00      8093.51
   64.76        3337.25           6704        2698.00     11735.61
   64.79        3337.50           6708        3677.00     16006.81
   64.82        3337.75           6712        4748.00     20680.66
   64.86        3338.00           6716        5820.00     25360.18
   64.89        3338.25           6719        6604.00     28783.35
   64.92        3338.50           6723        7713.00     33626.76
   64.95        3338.75           6727        8715.00     38004.07
   64.98        3339.00           6731        9797.00     42732.17
   65.01        3339.25           6734       10635.00     46394.96
   65.04        3339.50           6738       11718.00     51129.81
   65.07        3339.75           6742       12894.00     56272.78
   65.10        3340.00           6746       13911.00     60721.67
   65.14        3340.25           6750       14992.00     65451.85
   65.17        3340.50           6753       15764.00     68830.75
   65.20        3340.75           6757       16686.00     72867.05
   65.23        3341.00           6761       17755.00     77548.11
   65.26        3341.25           6765       18559.00     81069.65
   65.29        3341.50           6768       18805.00     82147.28
   65.32        3341.75           6772       18914.00     82624.78
   65.35        3342.00           6776       18853.00     82357.55
   65.38        3342.25           6780       18351.00     80158.53
   65.41        3342.50           6783       17700.00     77307.25
   65.45        3342.75           6787       16467.00     71908.23
   65.48        3343.00           6791       15718.00     68629.40
   65.51        3343.25           6795       14650.00     63955.20
   65.54        3343.50           6798       13733.00     59942.93
   65.57        3343.75           6802       12612.00     55039.37
   65.60        3344.00           6806       11607.00     50644.46
   65.63        3344.25           6810       10495.00     45782.98
   65.66        3344.50           6814        9471.00     41307.49
   65.69        3344.75           6817        8661.00     37768.14
   65.73        3345.00           6821        7594.00     33106.98
   65.76        3345.25           6825        6543.00     28516.98
   65.79        3345.50           6829        5384.00     23456.78
   65.82        3345.75           6832        4596.00     20017.25
   65.85        3346.00           6836        3480.00     15147.25
   65.88        3346.25           6840        2462.00     10706.14
   65.91        3346.50           6844        1444.00      6266.22
   65.94        3346.75           6847         707.00      3052.59
   65.97        3347.00           6851         241.00      1020.96
   66.00        3347.25           6855         144.00       598.09
   66.03        3347.50           6859          98.00       397.56
   66.07        3347.75           6863          83.00       332.17
   66.10        3348.00           6866          68.00       266.79
   66.13        3348.25           6870          55.00       210.11
   66.16        3348.50           6874          45.00       166.52
   66.19        3348.75           6878          46.00       170.88
   66.22        3349.00           6881          50.00       188.32
   66.25        3349.25           6885          44.00       162.16
   66.28        3349.50           6889          49.00       183.96
   66.31        3349.75           6893          50.00       188.32
   66.34        3350.00           6896          46.00       170.88
   66.38        3350.25           6900          42.00       153.44
   66.41        3350.50           6904          46.00       170.88
   66.44        3350.75           6908          45.00       166.52
   66.47        3351.00           6912          42.00       153.44
HL scan finished at 01:07:08
end
