************************************************************
  HL Scan of (1) Internal mercury lamp
************************************************************
Integration time is 0.2294 seconds per sample
dh260119Manchester 53.47 2.23 2.804185pr1000
************************************************************
Dead Time -------------------------  3E-08 
Number of Cycles Used -------------  4 
Starting Wavelength (Angstroms) ---  3331 
Final Wavelength (Angstoms) -------  3351 
Wavelength Increment (Angstroms) --  .25 
Filter Wheel #1 Position ---------- (1) Ground quartz diffuser (ND=2.32)
Filter Wheel #2 Position ---------- 



************************************************************
HL scan start time = 01:07:23
Dark Count =  7.3 


Time (GMT)  Wavelength (Ang)  Step Number  Raw Counts  Counts/Second

   67.91        3331.00           6610          46.00       168.70
   68.13        3331.25           6614          39.00       138.19
   68.16        3331.50           6618          40.00       142.55
   68.20        3331.75           6622          40.00       142.55
   68.23        3332.00           6626          46.00       168.70
   68.26        3332.25           6629          43.00       155.62
   68.29        3332.50           6633          43.00       155.62
   68.32        3332.75           6637          48.00       177.42
   68.35        3333.00           6641          44.00       159.98
   68.38        3333.25           6644          42.00       151.26
   68.41        3333.50           6648          43.00       155.62
   68.44        3333.75           6652          46.00       168.70
   68.48        3334.00           6656          51.00       190.50
   68.51        3334.25           6659          56.00       212.29
   68.54        3334.50           6663          60.00       229.73
   68.57        3334.75           6667          71.00       277.68
   68.60        3335.00           6671          91.00       364.87
   68.63        3335.25           6674         114.00       465.13
   68.66        3335.50           6678         125.00       513.09
   68.69        3335.75           6682         149.00       617.71
   68.72        3336.00           6686         174.00       726.69
   68.76        3336.25           6689         201.00       844.40
   68.79        3336.50           6693         372.00      1589.88
   68.82        3336.75           6697        1113.00      4820.66
   68.85        3337.00           6701        2145.00      9321.26
   68.88        3337.25           6704        2997.00     13037.79
   68.91        3337.50           6708        4195.00     18265.02
   68.94        3337.75           6712        5232.00     22791.08
   68.97        3338.00           6716        6404.00     27907.84
   69.00        3338.25           6719        7087.00     30890.43
   69.04        3338.50           6723        8131.00     35450.50
   69.07        3338.75           6727        9171.00     39994.34
   69.10        3339.00           6731       10398.00     45356.80
   69.13        3339.25           6734       11184.00     48792.82
   69.16        3339.50           6738       12293.00     53642.06
   69.19        3339.75           6742       13361.00     58313.35
   69.22        3340.00           6746       14430.00     62990.33
   69.25        3340.25           6750       15525.00     67782.41
   69.28        3340.50           6753       16456.00     71857.88
   69.32        3340.75           6757       17447.00     76197.09
   69.35        3341.00           6761       18497.00     80795.86
   69.38        3341.25           6765       19344.00     84506.47
   69.41        3341.50           6768       19455.00     84992.81
   69.44        3341.75           6772       19489.00     85141.78
   69.47        3342.00           6776       19278.00     84217.31
   69.50        3342.25           6780       18631.00     81382.85
   69.53        3342.50           6783       17819.00     77826.22
   69.56        3342.75           6787       16789.00     73315.83
   69.59        3343.00           6791       15695.00     68526.53
   69.63        3343.25           6795       14708.00     64206.82
   69.66        3343.50           6798       13773.00     60115.73
   69.69        3343.75           6802       12621.00     55076.55
   69.72        3344.00           6806       11580.00     50524.21
   69.75        3344.25           6810       10433.00     45509.79
   69.78        3344.50           6814        9418.00     41073.69
   69.81        3344.75           6817        8520.00     37149.93
   69.84        3345.00           6821        7442.00     32440.89
   69.87        3345.25           6825        6483.00     28252.80
   69.91        3345.50           6829        5395.00     23502.62
   69.94        3345.75           6832        4626.00     20146.00
   69.97        3346.00           6836        3432.00     14935.64
   70.00        3346.25           6840        2279.00      9905.73
   70.03        3346.50           6844        1249.00      5413.70
   70.06        3346.75           6847         566.00      2435.66
   70.09        3347.00           6851         206.00       866.20
   70.12        3347.25           6855         110.00       447.70
   70.16        3347.50           6859          96.00       386.67
   70.19        3347.75           6863          69.00       268.96
   70.22        3348.00           6866          59.00       225.37
   70.25        3348.25           6870          57.00       216.65
   70.28        3348.50           6874          46.00       168.70
   70.31        3348.75           6878          45.00       164.34
   70.34        3349.00           6881          45.00       164.34
   70.37        3349.25           6885          41.00       146.91
   70.40        3349.50           6889          47.00       173.06
   70.44        3349.75           6893          41.00       146.91
   70.47        3350.00           6896          49.00       181.78
   70.50        3350.25           6900          43.00       155.62
   70.53        3350.50           6904          55.00       207.94
   70.56        3350.75           6908          47.00       173.06
   70.59        3351.00           6912          42.00       151.26
HL scan finished at 01:11:15
end
