************************************************************
  HL Scan of (1) Internal mercury lamp
************************************************************
Integration time is 0.2294 seconds per sample
dh260117Manchester 53.47 2.23 2.750537pr1000
************************************************************
Dead Time -------------------------  3E-08 
Number of Cycles Used -------------  4 
Starting Wavelength (Angstroms) ---  3331 
Final Wavelength (Angstoms) -------  3351 
Wavelength Increment (Angstroms) --  .25 
Filter Wheel #1 Position ---------- (1) Ground quartz diffuser (ND=2.32)
Filter Wheel #2 Position ---------- 



************************************************************
HL scan start time = 01:07:18
Dark Count =  6.8 


Time (GMT)  Wavelength (Ang)  Step Number  Raw Counts  Counts/Second

   67.82        3331.00           6610          48.00       179.60
   68.04        3331.25           6614          52.00       197.04
   68.07        3331.50           6618          45.00       166.52
   68.10        3331.75           6622          57.00       218.83
   68.13        3332.00           6626          59.00       227.55
   68.16        3332.25           6629          49.00       183.96
   68.19        3332.50           6633          61.00       236.27
   68.23        3332.75           6637          57.00       218.83
   68.26        3333.00           6641          58.00       223.19
   68.29        3333.25           6644          54.00       205.76
   68.32        3333.50           6648          50.00       188.32
   68.35        3333.75           6652          56.00       214.47
   68.38        3334.00           6656          52.00       197.04
   68.41        3334.25           6659          57.00       218.83
   68.44        3334.50           6663          70.00       275.50
   68.47        3334.75           6667          85.00       340.89
   68.50        3335.00           6671         109.00       445.52
   68.53        3335.25           6674         134.00       554.50
   68.57        3335.50           6678         154.00       641.69
   68.60        3335.75           6682         173.00       724.51
   68.63        3336.00           6686         203.00       855.30
   68.66        3336.25           6689         247.00      1047.11
   68.69        3336.50           6693         533.00      2293.97
   68.72        3336.75           6697        1465.00      6357.80
   68.75        3337.00           6701        2811.00     12228.55
   68.78        3337.25           6704        3967.00     17272.24
   68.81        3337.50           6708        5340.00     23264.71
   68.84        3337.75           6712        6940.00     30250.63
   68.88        3338.00           6716        8278.00     36094.86
   68.91        3338.25           6719        9278.00     40464.09
   68.94        3338.50           6723       10632.00     46381.85
   68.97        3338.75           6727       12036.00     52520.35
   69.00        3339.00           6731       13475.00     58814.23
   69.03        3339.25           6734       14590.00     63692.65
   69.06        3339.50           6738       15911.00     69474.21
   69.09        3339.75           6742       17268.00     75415.41
   69.12        3340.00           6746       18833.00     82269.93
   69.15        3340.25           6750       20142.00     88005.37
   69.19        3340.50           6753       21003.00     91778.96
   69.22        3340.75           6757       22591.00     98741.06
   69.25        3341.00           6761       23859.00    104302.30
   69.28        3341.25           6765       24877.00    108768.50
   69.31        3341.50           6768       25047.00    109514.40
   69.34        3341.75           6772       25079.00    109654.80
   69.37        3342.00           6776       24894.00    108843.10
   69.40        3342.25           6780       23887.00    104425.20
   69.43        3342.50           6783       23118.00    101052.20
   69.46        3342.75           6787       21523.00     94058.41
   69.49        3343.00           6791       20259.00     88518.09
   69.53        3343.25           6795       18888.00     82510.87
   69.56        3343.50           6798       17658.00     77123.31
   69.59        3343.75           6802       16323.00     71277.80
   69.62        3344.00           6806       14802.00     64620.36
   69.65        3344.25           6810       13411.00     58534.26
   69.68        3344.50           6814       12253.00     53469.32
   69.71        3344.75           6817       11091.00     48388.42
   69.74        3345.00           6821        9588.00     41818.78
   69.77        3345.25           6825        8082.00     35238.63
   69.80        3345.50           6829        6706.00     29228.76
   69.84        3345.75           6832        5692.00     24801.36
   69.87        3346.00           6836        4286.00     18664.33
   69.90        3346.25           6840        2890.00     12573.18
   69.93        3346.50           6844        1379.00      5982.77
   69.96        3346.75           6847         619.00      2668.92
   69.99        3347.00           6851         254.00      1077.63
   70.02        3347.25           6855         171.00       715.80
   70.05        3347.50           6859         128.00       528.34
   70.08        3347.75           6863         118.00       484.75
   70.11        3348.00           6866          95.00       384.49
   70.14        3348.25           6870          77.00       306.02
   70.18        3348.50           6874          71.00       279.86
   70.21        3348.75           6878          58.00       223.19
   70.24        3349.00           6881          56.00       214.47
   70.27        3349.25           6885          61.00       236.27
   70.30        3349.50           6889          48.00       179.60
   70.33        3349.75           6893          53.00       201.40
   70.36        3350.00           6896          64.00       249.35
   70.39        3350.25           6900          56.00       214.47
   70.42        3350.50           6904          49.00       183.96
   70.45        3350.75           6908          52.00       197.04
   70.48        3351.00           6912          51.00       192.68
HL scan finished at 01:11:09
end
