************************************************************
  HL Scan of (1) Internal mercury lamp
************************************************************
Integration time is 0.2294 seconds per sample
dh020217Manchester 53.47 2.23 2.804185pr1000
************************************************************
Dead Time -------------------------  3E-08 
Number of Cycles Used -------------  4 
Starting Wavelength (Angstroms) ---  3331 
Final Wavelength (Angstoms) -------  3351 
Wavelength Increment (Angstroms) --  .25 
Filter Wheel #1 Position ---------- (1) Ground quartz diffuser (ND=2.32)
Filter Wheel #2 Position ---------- 



************************************************************
HL scan start time = 01:08:34
Dark Count =  7.3 


Time (GMT)  Wavelength (Ang)  Step Number  Raw Counts  Counts/Second

   69.09        3331.00           6610          46.00       168.70
   69.32        3331.25           6614          62.00       238.45
   69.35        3331.50           6618          53.00       199.22
   69.38        3331.75           6622          45.00       164.34
   69.41        3332.00           6626          53.00       199.22
   69.44        3332.25           6629          57.00       216.65
   69.47        3332.50           6633          57.00       216.65
   69.50        3332.75           6637          55.00       207.94
   69.53        3333.00           6641          59.00       225.37
   69.56        3333.25           6644          61.00       234.09
   69.59        3333.50           6648          52.00       194.86
   69.62        3333.75           6652          53.00       199.22
   69.66        3334.00           6656          54.00       203.58
   69.69        3334.25           6659          60.00       229.73
   69.72        3334.50           6663          77.00       303.84
   69.75        3334.75           6667          86.00       343.07
   69.78        3335.00           6671         111.00       452.05
   69.81        3335.25           6674         138.00       569.76
   69.84        3335.50           6678         153.00       635.15
   69.87        3335.75           6682         176.00       735.41
   69.90        3336.00           6686         207.00       870.55
   69.93        3336.25           6689         249.00      1053.65
   69.96        3336.50           6693         509.00      2187.15
   69.99        3336.75           6697        1410.00      6115.77
   70.03        3337.00           6701        2757.00     11990.80
   70.06        3337.25           6704        3967.00     17270.06
   70.09        3337.50           6708        5456.00     23768.91
   70.12        3337.75           6712        6935.00     30226.61
   70.15        3338.00           6716        8379.00     36533.92
   70.18        3338.25           6719        9313.00     40614.85
   70.21        3338.50           6723       10756.00     46921.72
   70.24        3338.75           6727       12211.00     53283.46
   70.27        3339.00           6731       13781.00     60150.73
   70.31        3339.25           6734       14931.00     65182.71
   70.34        3339.50           6738       16401.00     71617.09
   70.37        3339.75           6742       17760.00     77567.82
   70.40        3340.00           6746       19242.00     84059.57
   70.43        3340.25           6750       20822.00     90983.40
   70.46        3340.50           6753       21631.00     94529.68
   70.49        3340.75           6757       22876.00     99988.68
   70.52        3341.00           6761       24199.00    105791.60
   70.55        3341.25           6765       25315.00    110688.20
   70.58        3341.50           6768       25704.00    112395.40
   70.62        3341.75           6772       25766.00    112667.50
   70.65        3342.00           6776       25503.00    111513.20
   70.68        3342.25           6780       24659.00    107809.80
   70.71        3342.50           6783       23604.00    103181.60
   70.74        3342.75           6787       22227.00     97142.75
   70.77        3343.00           6791       20809.00     90926.42
   70.80        3343.25           6795       19413.00     84808.79
   70.83        3343.50           6798       18366.00     80222.04
   70.86        3343.75           6802       16825.00     73473.46
   70.90        3344.00           6806       15556.00     67918.11
   70.93        3344.25           6810       13981.00     61025.75
   70.96        3344.50           6814       12539.00     54717.92
   70.99        3344.75           6817       11531.00     50309.96
   71.02        3345.00           6821       10142.00     44237.83
   71.05        3345.25           6825        8667.00     37792.17
   71.08        3345.50           6829        7284.00     31750.81
   71.11        3345.75           6832        6076.00     26475.69
   71.14        3346.00           6836        4706.00     20495.16
   71.17        3346.25           6840        3255.00     14163.38
   71.21        3346.50           6844        1882.00      8174.19
   71.24        3346.75           6847        1077.00      4663.69
   71.27        3347.00           6851         350.00      1493.96
   71.30        3347.25           6855         175.00       731.05
   71.33        3347.50           6859         128.00       526.16
   71.36        3347.75           6863         105.00       425.90
   71.39        3348.00           6866          87.00       347.43
   71.42        3348.25           6870          79.00       312.56
   71.45        3348.50           6874          66.00       255.89
   71.48        3348.75           6878          60.00       229.73
   71.52        3349.00           6881          54.00       203.58
   71.55        3349.25           6885          52.00       194.86
   71.58        3349.50           6889          58.00       221.01
   71.61        3349.75           6893          66.00       255.89
   71.64        3350.00           6896          51.00       190.50
   71.67        3350.25           6900          70.00       273.32
   71.70        3350.50           6904          62.00       238.45
   71.73        3350.75           6908          49.00       181.78
   71.76        3351.00           6912          57.00       216.65
HL scan finished at 01:12:25
end
