************************************************************
  HL Scan of (1) Internal mercury lamp
************************************************************
Integration time is 0.2294 seconds per sample
dh020219Manchester 53.47 2.23 2.750537pr1000
************************************************************
Dead Time -------------------------  3E-08 
Number of Cycles Used -------------  4 
Starting Wavelength (Angstroms) ---  3331 
Final Wavelength (Angstoms) -------  3351 
Wavelength Increment (Angstroms) --  .25 
Filter Wheel #1 Position ---------- (1) Ground quartz diffuser (ND=2.32)
Filter Wheel #2 Position ---------- 



************************************************************
HL scan start time = 01:08:42
Dark Count =  6.2 


Time (GMT)  Wavelength (Ang)  Step Number  Raw Counts  Counts/Second

   69.23        3331.00           6610          47.00       177.86
   69.46        3331.25           6614          48.00       182.22
   69.49        3331.50           6618          46.00       173.50
   69.52        3331.75           6622          42.00       156.06
   69.55        3332.00           6626          41.00       151.70
   69.58        3332.25           6629          47.00       177.86
   69.61        3332.50           6633          48.00       182.22
   69.64        3332.75           6637          45.00       169.14
   69.67        3333.00           6641          42.00       156.06
   69.70        3333.25           6644          37.00       134.26
   69.73        3333.50           6648          42.00       156.06
   69.77        3333.75           6652          44.00       164.78
   69.80        3334.00           6656          52.00       199.65
   69.83        3334.25           6659          48.00       182.22
   69.86        3334.50           6663          78.00       312.99
   69.89        3334.75           6667          81.00       326.07
   69.92        3335.00           6671          92.00       374.02
   69.95        3335.25           6674         109.00       448.13
   69.98        3335.50           6678         123.00       509.16
   70.01        3335.75           6682         154.00       644.30
   70.04        3336.00           6686         167.00       700.97
   70.08        3336.25           6689         217.00       918.94
   70.11        3336.50           6693         431.00      1851.89
   70.14        3336.75           6697        1358.00      5893.81
   70.17        3337.00           6701        2404.00     10455.76
   70.20        3337.25           6704        3251.00     14150.73
   70.23        3337.50           6708        4221.00     18383.28
   70.26        3337.75           6712        5206.00     22682.39
   70.29        3338.00           6716        6340.00     27633.19
   70.33        3338.25           6719        7193.00     31358.17
   70.36        3338.50           6723        8393.00     36599.89
   70.39        3338.75           6727        9425.00     41109.08
   70.42        3339.00           6731       10542.00     45991.05
   70.45        3339.25           6734       11340.00     49479.67
   70.48        3339.50           6738       12547.00     54757.71
   70.51        3339.75           6742       13476.00     58821.23
   70.54        3340.00           6746       14594.00     63712.77
   70.57        3340.25           6750       15561.00     67944.81
   70.61        3340.50           6753       16481.00     71972.16
   70.64        3340.75           6757       17288.00     75505.63
   70.67        3341.00           6761       18465.00     80660.52
   70.70        3341.25           6765       19257.00     84130.12
   70.73        3341.50           6768       19518.00     85273.68
   70.76        3341.75           6772       19555.00     85435.79
   70.79        3342.00           6776       19287.00     84261.56
   70.82        3342.25           6780       18567.00     81107.31
   70.85        3342.50           6783       17903.00     78198.94
   70.89        3342.75           6787       16694.00     72904.71
   70.92        3343.00           6791       15579.00     68023.60
   70.95        3343.25           6795       14558.00     63555.24
   70.98        3343.50           6798       13759.00     60059.30
   71.01        3343.75           6802       12715.00     55492.49
   71.04        3344.00           6806       11526.00     50292.92
   71.07        3344.25           6810       10434.00     45518.96
   71.10        3344.50           6814        9170.00     39994.77
   71.13        3344.75           6817        8369.00     36495.04
   71.17        3345.00           6821        7387.00     32205.47
   71.20        3345.25           6825        6330.00     27589.52
   71.23        3345.50           6829        5244.00     22848.26
   71.26        3345.75           6832        4400.00     19164.46
   71.29        3346.00           6836        3236.00     14085.29
   71.32        3346.25           6840        2078.00      9033.84
   71.35        3346.50           6844        1089.00      4720.81
   71.38        3346.75           6847         464.00      1995.76
   71.41        3347.00           6851         180.00       757.65
   71.45        3347.25           6855         118.00       487.37
   71.48        3347.50           6859          99.00       404.54
   71.51        3347.75           6863          71.00       282.48
   71.54        3348.00           6866          52.00       199.65
   71.57        3348.25           6870          52.00       199.65
   71.60        3348.50           6874          44.00       164.78
   71.63        3348.75           6878          46.00       173.50
   71.66        3349.00           6881          45.00       169.14
   71.69        3349.25           6885          47.00       177.86
   71.72        3349.50           6889          46.00       173.50
   71.76        3349.75           6893          43.00       160.42
   71.79        3350.00           6896          43.00       160.42
   71.82        3350.25           6900          50.00       190.93
   71.85        3350.50           6904          45.00       169.14
   71.88        3350.75           6908          51.00       195.29
   71.91        3351.00           6912          45.00       169.14
HL scan finished at 01:12:34
end
