************************************************************
  HL Scan of (1) Internal mercury lamp
************************************************************
Integration time is 0.2294 seconds per sample
dh160219Manchester 53.47 2.23 2.804185pr1000
************************************************************
Dead Time -------------------------  3E-08 
Number of Cycles Used -------------  4 
Starting Wavelength (Angstroms) ---  3331 
Final Wavelength (Angstoms) -------  3351 
Wavelength Increment (Angstroms) --  .25 
Filter Wheel #1 Position ---------- (1) Ground quartz diffuser (ND=2.32)
Filter Wheel #2 Position ---------- 



************************************************************
HL scan start time = 01:09:14
Dark Count =  6.3 


Time (GMT)  Wavelength (Ang)  Step Number  Raw Counts  Counts/Second

   69.75        3331.00           6610          40.00       146.91
   69.97        3331.25           6614          43.00       159.98
   70.00        3331.50           6618          47.00       177.42
   70.04        3331.75           6622          40.00       146.91
   70.07        3332.00           6626          47.00       177.42
   70.10        3332.25           6629          45.00       168.70
   70.13        3332.50           6633          44.00       164.34
   70.16        3332.75           6637          43.00       159.98
   70.19        3333.00           6641          38.00       138.19
   70.22        3333.25           6644          41.00       151.26
   70.25        3333.50           6648          49.00       186.14
   70.28        3333.75           6652          41.00       151.26
   70.31        3334.00           6656          44.00       164.34
   70.35        3334.25           6659          53.00       203.58
   70.38        3334.50           6663          67.00       264.61
   70.41        3334.75           6667          81.00       325.64
   70.44        3335.00           6671          92.00       373.59
   70.47        3335.25           6674         119.00       491.29
   70.50        3335.50           6678         135.00       561.04
   70.53        3335.75           6682         143.00       595.91
   70.56        3336.00           6686         183.00       770.29
   70.59        3336.25           6689         206.00       870.55
   70.62        3336.50           6693         370.00      1585.52
   70.66        3336.75           6697        1120.00      4855.55
   70.69        3337.00           6701        2245.00      9761.80
   70.72        3337.25           6704        3035.00     13207.94
   70.75        3337.50           6708        4162.00     18125.37
   70.78        3337.75           6712        5335.00     23245.07
   70.81        3338.00           6716        6414.00     27955.87
   70.84        3338.25           6719        7198.00     31379.57
   70.87        3338.50           6723        8314.00     36254.32
   70.90        3338.75           6727        9464.00     41279.08
   70.94        3339.00           6731       10406.00     45396.14
   70.97        3339.25           6734       11328.00     49426.77
   71.00        3339.50           6738       12608.00     55024.07
   71.03        3339.75           6742       13665.00     59647.62
   71.06        3340.00           6746       14935.00     65204.58
   71.09        3340.25           6750       15986.00     69804.71
   71.12        3340.50           6753       16670.00     72799.19
   71.15        3340.75           6757       17723.00     77410.16
   71.18        3341.00           6761       18922.00     82662.02
   71.22        3341.25           6765       19846.00     86710.46
   71.25        3341.50           6768       19900.00     86947.08
   71.28        3341.75           6772       19765.00     86355.52
   71.31        3342.00           6776       19780.00     86421.24
   71.34        3342.25           6780       18868.00     82425.46
   71.37        3342.50           6783       18152.00     79289.07
   71.40        3342.75           6787       17215.00     75185.52
   71.43        3343.00           6791       15986.00     69804.71
   71.46        3343.25           6795       14967.00     65344.64
   71.50        3343.50           6798       14054.00     61349.52
   71.53        3343.75           6802       13010.00     56782.35
   71.56        3344.00           6806       11910.00     51971.55
   71.59        3344.25           6810       10758.00     46934.83
   71.62        3344.50           6814        9406.00     41025.62
   71.65        3344.75           6817        8740.00     38115.49
   71.68        3345.00           6821        7669.00     33436.75
   71.71        3345.25           6825        6523.00     28431.83
   71.74        3345.50           6829        5358.00     23345.47
   71.78        3345.75           6832        4493.00     19569.90
   71.81        3346.00           6836        3320.00     14451.34
   71.84        3346.25           6840        2157.00      9377.97
   71.87        3346.50           6844        1098.00      4759.62
   71.90        3346.75           6847         495.00      2130.48
   71.93        3347.00           6851         198.00       835.68
   71.96        3347.25           6855         117.00       482.57
   71.99        3347.50           6859         103.00       421.54
   72.02        3347.75           6863          78.00       312.56
   72.05        3348.00           6866          67.00       264.61
   72.09        3348.25           6870          46.00       173.06
   72.12        3348.50           6874          42.00       155.62
   72.15        3348.75           6878          46.00       173.06
   72.18        3349.00           6881          45.00       168.70
   72.21        3349.25           6885          48.00       181.78
   72.24        3349.50           6889          45.00       168.70
   72.27        3349.75           6893          48.00       181.78
   72.30        3350.00           6896          47.00       177.42
   72.33        3350.25           6900          49.00       186.14
   72.36        3350.50           6904          47.00       177.42
   72.39        3350.75           6908          47.00       177.42
   72.43        3351.00           6912          43.00       159.98
HL scan finished at 01:13:05
end
