************************************************************
  HL Scan of (1) Internal mercury lamp
************************************************************
Integration time is 0.2294 seconds per sample
dh090217Manchester 53.47 2.23 2.750537pr1000
************************************************************
Dead Time -------------------------  3E-08 
Number of Cycles Used -------------  4 
Starting Wavelength (Angstroms) ---  3331 
Final Wavelength (Angstoms) -------  3351 
Wavelength Increment (Angstroms) --  .25 
Filter Wheel #1 Position ---------- (1) Ground quartz diffuser (ND=2.32)
Filter Wheel #2 Position ---------- 



************************************************************
HL scan start time = 01:09:03
Dark Count =  7.4 


Time (GMT)  Wavelength (Ang)  Step Number  Raw Counts  Counts/Second

   69.57        3331.00           6610          54.00       203.14
   69.80        3331.25           6614          55.00       207.50
   69.83        3331.50           6618          46.00       168.27
   69.86        3331.75           6622          53.00       198.78
   69.89        3332.00           6626          60.00       229.30
   69.92        3332.25           6629          56.00       211.86
   69.95        3332.50           6633          50.00       185.70
   69.98        3332.75           6637          54.00       203.14
   70.01        3333.00           6641          60.00       229.30
   70.04        3333.25           6644          51.00       190.06
   70.07        3333.50           6648          57.00       216.22
   70.11        3333.75           6652          53.00       198.78
   70.14        3334.00           6656          56.00       211.86
   70.17        3334.25           6659          58.00       220.58
   70.20        3334.50           6663          72.00       281.61
   70.23        3334.75           6667          79.00       312.12
   70.26        3335.00           6671         100.00       403.67
   70.29        3335.25           6674         127.00       521.37
   70.32        3335.50           6678         151.00       625.99
   70.35        3335.75           6682         164.00       682.66
   70.39        3336.00           6686         198.00       830.88
   70.42        3336.25           6689         247.00      1044.50
   70.45        3336.50           6693         523.00      2247.75
   70.48        3336.75           6697        1490.00      6464.20
   70.51        3337.00           6701        2889.00     12566.20
   70.54        3337.25           6704        3968.00     17273.99
   70.57        3337.50           6708        5316.00     23157.32
   70.60        3337.75           6712        6690.00     29156.27
   70.63        3338.00           6716        8047.00     35083.11
   70.66        3338.25           6719        9135.00     39836.60
   70.69        3338.50           6723       10593.00     46208.74
   70.73        3338.75           6727       11996.00     52342.81
   70.76        3339.00           6731       13462.00     58754.74
   70.79        3339.25           6734       14632.00     63873.81
   70.82        3339.50           6738       15983.00     69786.76
   70.85        3339.75           6742       17369.00     75855.07
   70.88        3340.00           6746       18597.00     81233.47
   70.91        3340.25           6750       19897.00     86929.11
   70.94        3340.50           6753       20986.00     91701.80
   70.97        3340.75           6757       22359.00     97721.10
   71.01        3341.00           6761       23653.00    103396.10
   71.04        3341.25           6765       24680.00    107901.50
   71.07        3341.50           6768       24954.00    109103.70
   71.10        3341.75           6772       25052.00    109533.70
   71.13        3342.00           6776       25006.00    109331.90
   71.16        3342.25           6780       24038.00    105084.90
   71.19        3342.50           6783       23008.00    100567.10
   71.22        3342.75           6787       21728.00     94954.50
   71.25        3343.00           6791       20221.00     88348.94
   71.29        3343.25           6795       18999.00     82994.53
   71.32        3343.50           6798       17868.00     78040.40
   71.35        3343.75           6802       16472.00     71927.50
   71.38        3344.00           6806       14984.00     65414.21
   71.41        3344.25           6810       13683.00     59721.56
   71.44        3344.50           6814       12094.00     52771.37
   71.47        3344.75           6817       11099.00     48420.77
   71.50        3345.00           6821        9697.00     42292.51
   71.53        3345.25           6825        8401.00     36629.60
   71.56        3345.50           6829        6941.00     30252.38
   71.60        3345.75           6832        5950.00     25925.13
   71.63        3346.00           6836        4504.00     19613.11
   71.66        3346.25           6840        3180.00     13835.74
   71.69        3346.50           6844        1843.00      8003.66
   71.72        3346.75           6847         937.00      4052.80
   71.75        3347.00           6851         309.00      1314.79
   71.78        3347.25           6855         169.00       704.46
   71.81        3347.50           6859         127.00       521.37
   71.84        3347.75           6863          89.00       355.71
   71.87        3348.00           6866          81.00       320.84
   71.90        3348.25           6870          74.00       290.33
   71.93        3348.50           6874          62.00       238.01
   71.96        3348.75           6878          56.00       211.86
   71.99        3349.00           6881          56.00       211.86
   72.02        3349.25           6885          49.00       181.34
   72.06        3349.50           6889          48.00       176.98
   72.09        3349.75           6893          59.00       224.94
   72.12        3350.00           6896          59.00       224.94
   72.15        3350.25           6900          56.00       211.86
   72.18        3350.50           6904          51.00       190.06
   72.21        3350.75           6908          57.00       216.22
   72.24        3351.00           6912          48.00       176.98
HL scan finished at 01:12:54
end
