************************************************************
  HL Scan of (1) Internal mercury lamp
************************************************************
Integration time is 0.2294 seconds per sample
dh160217Manchester 53.47 2.23 2.804185pr1000
************************************************************
Dead Time -------------------------  3E-08 
Number of Cycles Used -------------  4 
Starting Wavelength (Angstroms) ---  3331 
Final Wavelength (Angstoms) -------  3351 
Wavelength Increment (Angstroms) --  .25 
Filter Wheel #1 Position ---------- (1) Ground quartz diffuser (ND=2.32)
Filter Wheel #2 Position ---------- 



************************************************************
HL scan start time = 01:09:27
Dark Count =  5.6 


Time (GMT)  Wavelength (Ang)  Step Number  Raw Counts  Counts/Second

   69.97        3331.00           6610          52.00       202.27
   70.19        3331.25           6614          54.00       210.99
   70.22        3331.50           6618          51.00       197.91
   70.25        3331.75           6622          54.00       210.99
   70.28        3332.00           6626          54.00       210.99
   70.31        3332.25           6629          50.00       193.55
   70.34        3332.50           6633          58.00       228.42
   70.37        3332.75           6637          54.00       210.99
   70.41        3333.00           6641          54.00       210.99
   70.44        3333.25           6644          55.00       215.35
   70.47        3333.50           6648          60.00       237.14
   70.50        3333.75           6652          59.00       232.78
   70.53        3334.00           6656          45.00       171.75
   70.56        3334.25           6659          59.00       232.78
   70.59        3334.50           6663          66.00       263.30
   70.62        3334.75           6667          90.00       367.92
   70.65        3335.00           6671         103.00       424.59
   70.68        3335.25           6674         127.00       529.22
   70.72        3335.50           6678         147.00       616.40
   70.75        3335.75           6682         164.00       690.51
   70.78        3336.00           6686         185.00       782.06
   70.81        3336.25           6689         249.00      1061.06
   70.84        3336.50           6693         436.00      1876.30
   70.87        3336.75           6697        1257.00      5455.99
   70.90        3337.00           6701        2690.00     11705.94
   70.93        3337.25           6704        3783.00     16474.57
   70.96        3337.50           6708        5143.00     22410.01
   70.99        3337.75           6712        6465.00     28181.62
   71.02        3338.00           6716        7889.00     34400.79
   71.06        3338.25           6719        8987.00     39197.77
   71.09        3338.50           6723       10492.00     45775.12
   71.12        3338.75           6727       11738.00     51222.51
   71.15        3339.00           6731       13165.00     57463.42
   71.18        3339.25           6734       14319.00     62512.07
   71.21        3339.50           6738       15696.00     68538.35
   71.24        3339.75           6742       17144.00     74877.70
   71.27        3340.00           6746       18476.00     80711.32
   71.30        3340.25           6750       19997.00     87375.21
   71.33        3340.50           6753       20969.00     91635.18
   71.36        3340.75           6757       22320.00     97558.00
   71.40        3341.00           6761       23701.00    103614.50
   71.43        3341.25           6765       24655.00    107799.70
   71.46        3341.50           6768       24881.00    108791.30
   71.49        3341.75           6772       25002.00    109322.20
   71.52        3342.00           6776       24835.00    108589.50
   71.55        3342.25           6780       24207.00    105834.20
   71.58        3342.50           6783       23065.00    100825.00
   71.61        3342.75           6787       21900.00     95716.47
   71.64        3343.00           6791       20579.00     89925.80
   71.68        3343.25           6795       19093.00     83414.24
   71.71        3343.50           6798       17954.00     78424.94
   71.74        3343.75           6802       16603.00     72508.91
   71.77        3344.00           6806       15201.00     66371.78
   71.80        3344.25           6810       13842.00     60425.05
   71.83        3344.50           6814       12316.00     53750.08
   71.86        3344.75           6817       11277.00     49206.85
   71.89        3345.00           6821       10015.00     43690.19
   71.92        3345.25           6825        8541.00     37249.10
   71.96        3345.50           6829        7139.00     31124.95
   71.99        3345.75           6832        6012.00     26203.68
   72.02        3346.00           6836        4669.00     20341.09
   72.05        3346.25           6840        3244.00     14122.81
   72.08        3346.50           6844        1915.00      8325.53
   72.11        3346.75           6847        1055.00      4575.17
   72.14        3347.00           6851         377.00      1619.08
   72.17        3347.25           6855         183.00       773.34
   72.20        3347.50           6859         129.00       537.93
   72.23        3347.75           6863         112.00       463.83
   72.27        3348.00           6866          95.00       389.72
   72.30        3348.25           6870          71.00       285.09
   72.33        3348.50           6874          59.00       232.78
   72.36        3348.75           6878          53.00       206.63
   72.39        3349.00           6881          54.00       210.99
   72.42        3349.25           6885          48.00       184.83
   72.45        3349.50           6889          64.00       254.58
   72.48        3349.75           6893          55.00       215.35
   72.51        3350.00           6896          59.00       232.78
   72.54        3350.25           6900          54.00       210.99
   72.57        3350.50           6904          58.00       228.42
   72.61        3350.75           6908          52.00       202.27
   72.64        3351.00           6912          48.00       184.83
HL scan finished at 01:13:18
end
