************************************************************
  HL Scan of (1) Internal mercury lamp
************************************************************
Integration time is 0.2294 seconds per sample
dh230219Manchester 53.47 2.23 2.804185pr1000
************************************************************
Dead Time -------------------------  3E-08 
Number of Cycles Used -------------  4 
Starting Wavelength (Angstroms) ---  3331 
Final Wavelength (Angstoms) -------  3351 
Wavelength Increment (Angstroms) --  .25 
Filter Wheel #1 Position ---------- (1) Ground quartz diffuser (ND=2.32)
Filter Wheel #2 Position ---------- 



************************************************************
HL scan start time = 01:08:35
Dark Count =  8.3 


Time (GMT)  Wavelength (Ang)  Step Number  Raw Counts  Counts/Second

   69.10        3331.00           6610          47.00       168.70
   69.32        3331.25           6614          44.00       155.62
   69.35        3331.50           6618          42.00       146.91
   69.38        3331.75           6622          39.00       133.83
   69.41        3332.00           6626          58.00       216.65
   69.45        3332.25           6629          41.00       142.55
   69.48        3332.50           6633          47.00       168.70
   69.51        3332.75           6637          44.00       155.62
   69.54        3333.00           6641          44.00       155.62
   69.57        3333.25           6644          43.00       151.26
   69.60        3333.50           6648          42.00       146.91
   69.63        3333.75           6652          38.00       129.47
   69.66        3334.00           6656          40.00       138.19
   69.69        3334.25           6659          51.00       186.14
   69.72        3334.50           6663          65.00       247.17
   69.75        3334.75           6667          73.00       282.04
   69.79        3335.00           6671         107.00       430.26
   69.82        3335.25           6674         120.00       486.93
   69.85        3335.50           6678         116.00       469.49
   69.88        3335.75           6682         142.00       582.83
   69.91        3336.00           6686         161.00       665.66
   69.94        3336.25           6689         185.00       770.29
   69.97        3336.50           6693         297.00      1258.55
   70.00        3336.75           6697         748.00      3224.81
   70.03        3337.00           6701        1674.00      7262.70
   70.06        3337.25           6704        2527.00     10983.13
   70.10        3337.50           6708        3630.00     15795.19
   70.13        3337.75           6712        4820.00     20988.37
   70.16        3338.00           6716        5827.00     25384.19
   70.19        3338.25           6719        6715.00     29261.51
   70.22        3338.50           6723        7613.00     33183.42
   70.25        3338.75           6727        8918.00     38884.48
   70.28        3339.00           6731        9993.00     43582.23
   70.31        3339.25           6734       10832.00     47249.58
   70.34        3339.50           6738       11950.00     52137.72
   70.37        3339.75           6742       13014.00     56791.10
   70.40        3340.00           6746       14002.00     61113.26
   70.44        3340.25           6750       15121.00     66009.84
   70.47        3340.50           6753       15959.00     69677.75
   70.50        3340.75           6757       17049.00     74449.88
   70.53        3341.00           6761       18052.00     78842.32
   70.56        3341.25           6765       19143.00     83621.46
   70.59        3341.50           6768       19462.00     85019.09
   70.62        3341.75           6772       19507.00     85216.27
   70.65        3342.00           6776       19703.00     86075.07
   70.68        3342.25           6780       18996.00     82977.44
   70.72        3342.50           6783       18268.00     79788.40
   70.75        3342.75           6787       17302.00     75557.73
   70.78        3343.00           6791       16270.00     71039.21
   70.81        3343.25           6795       15153.00     66149.90
   70.84        3343.50           6798       14342.00     62600.90
   70.87        3343.75           6802       13115.00     57232.89
   70.90        3344.00           6806       12105.00     52815.53
   70.93        3344.25           6810       11008.00     48019.00
   70.96        3344.50           6814        9959.00     43433.64
   70.99        3344.75           6817        9150.00     39898.21
   71.02        3345.00           6821        8024.00     34978.71
   71.06        3345.25           6825        6894.00     30043.20
   71.09        3345.50           6829        5832.00     25406.02
   71.12        3345.75           6832        4986.00     21712.92
   71.15        3346.00           6836        3860.00     16798.79
   71.18        3346.25           6840        2794.00     12147.85
   71.21        3346.50           6844        1582.00      6861.48
   71.24        3346.75           6847         867.00      3743.66
   71.27        3347.00           6851         270.00      1140.84
   71.30        3347.25           6855         132.00       539.24
   71.33        3347.50           6859          97.00       386.67
   71.36        3347.75           6863          82.00       321.28
   71.39        3348.00           6866          68.00       260.25
   71.42        3348.25           6870          55.00       203.58
   71.46        3348.50           6874          47.00       168.70
   71.49        3348.75           6878          49.00       177.42
   71.52        3349.00           6881          50.00       181.78
   71.55        3349.25           6885          42.00       146.91
   71.58        3349.50           6889          46.00       164.34
   71.61        3349.75           6893          45.00       159.98
   71.64        3350.00           6896          54.00       199.22
   71.67        3350.25           6900          42.00       146.91
   71.70        3350.50           6904          47.00       168.70
   71.73        3350.75           6908          39.00       133.83
   71.76        3351.00           6912          50.00       181.78
HL scan finished at 01:12:26
end
