************************************************************
  HL Scan of (1) Internal mercury lamp
************************************************************
Integration time is 0.2294 seconds per sample
dh230217Manchester 53.47 2.23 2.750537pr1000
************************************************************
Dead Time -------------------------  3E-08 
Number of Cycles Used -------------  4 
Starting Wavelength (Angstroms) ---  3331 
Final Wavelength (Angstoms) -------  3351 
Wavelength Increment (Angstroms) --  .25 
Filter Wheel #1 Position ---------- (1) Ground quartz diffuser (ND=2.32)
Filter Wheel #2 Position ---------- 



************************************************************
HL scan start time = 01:08:21
Dark Count =  4.5 


Time (GMT)  Wavelength (Ang)  Step Number  Raw Counts  Counts/Second

   68.87        3331.00           6610          57.00       228.86
   69.09        3331.25           6614          61.00       246.30
   69.12        3331.50           6618          61.00       246.30
   69.15        3331.75           6622          60.00       241.94
   69.18        3332.00           6626          49.00       193.99
   69.21        3332.25           6629          51.00       202.70
   69.24        3332.50           6633          56.00       224.50
   69.27        3332.75           6637          60.00       241.94
   69.30        3333.00           6641          58.00       233.22
   69.34        3333.25           6644          46.00       180.91
   69.37        3333.50           6648          50.00       198.34
   69.40        3333.75           6652          52.00       207.06
   69.43        3334.00           6656          61.00       246.30
   69.46        3334.25           6659          65.00       263.73
   69.49        3334.50           6663          85.00       350.92
   69.52        3334.75           6667         107.00       446.82
   69.55        3335.00           6671         118.00       494.78
   69.58        3335.25           6674         146.00       616.84
   69.61        3335.50           6678         167.00       708.38
   69.64        3335.75           6682         198.00       843.53
   69.68        3336.00           6686         220.00       939.43
   69.71        3336.25           6689         287.00      1231.52
   69.74        3336.50           6693         687.00      2975.42
   69.77        3336.75           6697        1951.00      8487.34
   69.80        3337.00           6701        3323.00     14472.28
   69.83        3337.25           6704        4333.00     18879.48
   69.86        3337.50           6708        5801.00     25287.27
   69.89        3337.75           6712        7088.00     30907.02
   69.92        3338.00           6716        8583.00     37437.40
   69.95        3338.25           6719        9549.00     41658.40
   69.99        3338.50           6723       10995.00     47978.78
   70.02        3338.75           6727       12382.00     54043.53
   70.05        3339.00           6731       13770.00     60114.86
   70.08        3339.25           6734       15001.00     65501.30
   70.11        3339.50           6738       16490.00     72019.00
   70.14        3339.75           6742       17853.00     77987.40
   70.17        3340.00           6746       19089.00     83401.53
   70.20        3340.25           6750       20483.00     89509.88
   70.23        3340.50           6753       21779.00     95190.81
   70.26        3340.75           6757       23141.00    101163.10
   70.30        3341.00           6761       24236.00    105966.20
   70.33        3341.25           6765       25357.00    110884.80
   70.36        3341.50           6768       25435.00    111227.10
   70.39        3341.75           6772       25321.00    110726.90
   70.42        3342.00           6776       25267.00    110489.90
   70.45        3342.25           6780       24184.00    105738.10
   70.48        3342.50           6783       22872.00     99983.41
   70.51        3342.75           6787       21549.00     94182.47
   70.54        3343.00           6791       20176.00     88164.44
   70.58        3343.25           6795       18603.00     81272.46
   70.61        3343.50           6798       17694.00     77291.04
   70.64        3343.75           6802       16191.00     70710.00
   70.67        3344.00           6806       14752.00     64411.62
   70.70        3344.25           6810       13277.00     57958.14
   70.73        3344.50           6814       11921.00     52027.53
   70.76        3344.75           6817       10855.00     47366.74
   70.79        3345.00           6821        9490.00     41400.56
   70.82        3345.25           6825        8006.00     34916.68
   70.85        3345.50           6829        6696.00     29195.13
   70.89        3345.75           6832        5615.00     24475.25
   70.92        3346.00           6836        4009.00     17465.56
   70.95        3346.25           6840        2570.00     11187.28
   70.98        3346.50           6844        1312.00      5700.63
   71.01        3346.75           6847         602.00      2604.82
   71.04        3347.00           6851         214.00       913.28
   71.07        3347.25           6855         143.00       603.76
   71.10        3347.50           6859         109.00       455.54
   71.13        3347.75           6863          98.00       407.59
   71.16        3348.00           6866          70.00       285.53
   71.20        3348.25           6870          58.00       233.22
   71.23        3348.50           6874          52.00       207.06
   71.26        3348.75           6878          54.00       215.78
   71.29        3349.00           6881          53.00       211.42
   71.32        3349.25           6885          58.00       233.22
   71.35        3349.50           6889          59.00       237.58
   71.38        3349.75           6893          55.00       220.14
   71.41        3350.00           6896          57.00       228.86
   71.44        3350.25           6900          56.00       224.50
   71.47        3350.50           6904          55.00       220.14
   71.51        3350.75           6908          55.00       220.14
   71.54        3351.00           6912          54.00       215.78
HL scan finished at 01:12:12
end
