************************************************************
  HL Scan of (1) Internal mercury lamp
************************************************************
Integration time is 0.2294 seconds per sample
dh020319Manchester 53.47 2.23 2.804185pr1000
************************************************************
Dead Time -------------------------  3E-08 
Number of Cycles Used -------------  4 
Starting Wavelength (Angstroms) ---  3331 
Final Wavelength (Angstoms) -------  3351 
Wavelength Increment (Angstroms) --  .25 
Filter Wheel #1 Position ---------- (1) Ground quartz diffuser (ND=2.32)
Filter Wheel #2 Position ---------- 



************************************************************
HL scan start time = 01:07:20
Dark Count =  6.3 


Time (GMT)  Wavelength (Ang)  Step Number  Raw Counts  Counts/Second

   67.85        3331.00           6610          50.00       190.50
   68.08        3331.25           6614          51.00       194.86
   68.11        3331.50           6618          51.00       194.86
   68.14        3331.75           6622          46.00       173.06
   68.17        3332.00           6626          40.00       146.91
   68.20        3332.25           6629          45.00       168.70
   68.23        3332.50           6633          37.00       133.83
   68.26        3332.75           6637          45.00       168.70
   68.30        3333.00           6641          46.00       173.06
   68.33        3333.25           6644          43.00       159.98
   68.36        3333.50           6648          54.00       207.94
   68.39        3333.75           6652          48.00       181.78
   68.42        3334.00           6656          49.00       186.14
   68.45        3334.25           6659          51.00       194.86
   68.48        3334.50           6663          68.00       268.96
   68.51        3334.75           6667          82.00       329.99
   68.54        3335.00           6671         104.00       425.90
   68.57        3335.25           6674         123.00       508.73
   68.61        3335.50           6678         129.00       534.88
   68.64        3335.75           6682         152.00       635.15
   68.67        3336.00           6686         171.00       717.98
   68.70        3336.25           6689         199.00       840.04
   68.73        3336.50           6693         291.00      1241.11
   68.76        3336.75           6697         890.00      3852.67
   68.79        3337.00           6701        1967.00      8549.27
   68.82        3337.25           6704        2786.00     12121.67
   68.85        3337.50           6708        3899.00     16977.70
   68.89        3337.75           6712        5021.00     21874.42
   68.92        3338.00           6716        6143.00     26772.59
   68.95        3338.25           6719        6980.00     30427.51
   68.98        3338.50           6723        8057.00     35131.61
   69.01        3338.75           6727        9153.00     39920.06
   69.04        3339.00           6731       10327.00     45050.82
   69.07        3339.25           6734       11159.00     48687.90
   69.10        3339.50           6738       12411.00     54162.48
   69.13        3339.75           6742       13598.00     59354.51
   69.16        3340.00           6746       14523.00     63401.65
   69.20        3340.25           6750       15646.00     68316.41
   69.23        3340.50           6753       16347.00     71385.06
   69.26        3340.75           6757       17635.00     77024.77
   69.29        3341.00           6761       18649.00     81466.08
   69.32        3341.25           6765       19541.00     85374.01
   69.35        3341.50           6768       19753.00     86302.93
   69.38        3341.75           6772       19843.00     86697.30
   69.41        3342.00           6776       19690.00     86026.87
   69.44        3342.25           6780       19149.00     83656.51
   69.48        3342.50           6783       18341.00     80116.91
   69.51        3342.75           6787       17193.00     75089.19
   69.54        3343.00           6791       16137.00     70465.72
   69.57        3343.25           6795       15065.00     65773.52
   69.60        3343.50           6798       14278.00     62329.61
   69.63        3343.75           6802       13083.00     57101.66
   69.66        3344.00           6806       12047.00     52570.64
   69.69        3344.25           6810       10939.00     47726.09
   69.72        3344.50           6814        9722.00     42406.58
   69.76        3344.75           6817        8810.00     38421.34
   69.79        3345.00           6821        7712.00     33624.57
   69.82        3345.25           6825        6642.00     28951.47
   69.85        3345.50           6829        5537.00     24126.88
   69.88        3345.75           6832        4762.00     20743.95
   69.91        3346.00           6836        3558.00     15489.76
   69.94        3346.25           6840        2488.00     10821.74
   69.97        3346.50           6844        1377.00      5976.22
   70.00        3346.75           6847         676.00      2919.61
   70.04        3347.00           6851         225.00       953.38
   70.07        3347.25           6855         128.00       530.52
   70.10        3347.50           6859         129.00       534.88
   70.13        3347.75           6863          79.00       316.92
   70.16        3348.00           6866          62.00       242.81
   70.19        3348.25           6870          50.00       190.50
   70.22        3348.50           6874          45.00       168.70
   70.25        3348.75           6878          43.00       159.98
   70.28        3349.00           6881          55.00       212.29
   70.31        3349.25           6885          43.00       159.98
   70.34        3349.50           6889          47.00       177.42
   70.38        3349.75           6893          40.00       146.91
   70.41        3350.00           6896          50.00       190.50
   70.44        3350.25           6900          45.00       168.70
   70.47        3350.50           6904          49.00       186.14
   70.50        3350.75           6908          46.00       173.06
   70.53        3351.00           6912          46.00       173.06
HL scan finished at 01:11:11
end
