************************************************************
  HL Scan of (1) Internal mercury lamp
************************************************************
Integration time is 0.2294 seconds per sample
dh090319Manchester 53.47 2.23 2.804185pr1000
************************************************************
Dead Time -------------------------  3E-08 
Number of Cycles Used -------------  4 
Starting Wavelength (Angstroms) ---  3331 
Final Wavelength (Angstoms) -------  3351 
Wavelength Increment (Angstroms) --  .25 
Filter Wheel #1 Position ---------- (1) Ground quartz diffuser (ND=2.32)
Filter Wheel #2 Position ---------- 



************************************************************
HL scan start time = 01:05:45
Dark Count =  7 


Time (GMT)  Wavelength (Ang)  Step Number  Raw Counts  Counts/Second

   66.27        3331.00           6610          43.00       156.93
   66.50        3331.25           6614          41.00       148.21
   66.53        3331.50           6618          40.00       143.85
   66.56        3331.75           6622          47.00       174.37
   66.59        3332.00           6626          42.00       152.57
   66.62        3332.25           6629          54.00       204.88
   66.65        3332.50           6633          43.00       156.93
   66.68        3332.75           6637          48.00       178.73
   66.71        3333.00           6641          40.00       143.85
   66.74        3333.25           6644          43.00       156.93
   66.78        3333.50           6648          43.00       156.93
   66.81        3333.75           6652          47.00       174.37
   66.84        3334.00           6656          39.00       139.49
   66.87        3334.25           6659          56.00       213.60
   66.90        3334.50           6663          71.00       278.99
   66.93        3334.75           6667          77.00       305.15
   66.96        3335.00           6671          94.00       379.25
   66.99        3335.25           6674         112.00       457.72
   67.02        3335.50           6678         133.00       549.27
   67.05        3335.75           6682         147.00       610.30
   67.08        3336.00           6686         168.00       701.85
   67.11        3336.25           6689         195.00       819.55
   67.14        3336.50           6693         352.00      1503.99
   67.18        3336.75           6697        1163.00      5039.99
   67.21        3337.00           6701        2380.00     10347.59
   67.24        3337.25           6704        3087.00     13431.74
   67.27        3337.50           6708        4168.00     18148.50
   67.30        3337.75           6712        5316.00     23159.07
   67.33        3338.00           6716        6456.00     28136.21
   67.36        3338.25           6719        7419.00     32341.74
   67.39        3338.50           6723        8524.00     37168.71
   67.42        3338.75           6727        9663.00     42145.67
   67.46        3339.00           6731       10858.00     47368.92
   67.49        3339.25           6734       11662.00     50884.07
   67.52        3339.50           6738       12802.00     55869.50
   67.55        3339.75           6742       13922.00     60768.93
   67.58        3340.00           6746       15023.00     65586.65
   67.61        3340.25           6750       16170.00     70607.13
   67.64        3340.50           6753       17062.00     74512.51
   67.67        3340.75           6757       18056.00     78865.54
   67.70        3341.00           6761       19210.00     83920.69
   67.74        3341.25           6765       19898.00     86935.25
   67.77        3341.50           6768       20155.00     88061.47
   67.80        3341.75           6772       20093.00     87789.76
   67.83        3342.00           6776       19991.00     87342.78
   67.86        3342.25           6780       19111.00     83486.96
   67.89        3342.50           6783       18188.00     79443.70
   67.92        3342.75           6787       17174.00     75002.93
   67.95        3343.00           6791       16051.00     70086.18
   67.98        3343.25           6795       14874.00     64934.57
   68.02        3343.50           6798       14059.00     61368.33
   68.05        3343.75           6802       12828.00     55983.22
   68.08        3344.00           6806       11826.00     51601.19
   68.11        3344.25           6810       10589.00     46193.01
   68.14        3344.50           6814        9532.00     41573.18
   68.17        3344.75           6817        8618.00     37579.40
   68.20        3345.00           6821        7556.00     32940.12
   68.23        3345.25           6825        6378.00     27795.62
   68.26        3345.50           6829        5249.00     22866.60
   68.30        3345.75           6832        4577.00     19933.45
   68.33        3346.00           6836        3456.00     15041.66
   68.36        3346.25           6840        2390.00     10391.21
   68.39        3346.50           6844        1329.00      5763.86
   68.42        3346.75           6847         571.00      2458.77
   68.45        3347.00           6851         222.00       937.25
   68.48        3347.25           6855         123.00       505.67
   68.51        3347.50           6859          97.00       392.33
   68.54        3347.75           6863          72.00       283.35
   68.57        3348.00           6866          55.00       209.24
   68.61        3348.25           6870          52.00       196.17
   68.64        3348.50           6874          45.00       165.65
   68.67        3348.75           6878          43.00       156.93
   68.70        3349.00           6881          44.00       161.29
   68.73        3349.25           6885          45.00       165.65
   68.76        3349.50           6889          42.00       152.57
   68.79        3349.75           6893          52.00       196.17
   68.82        3350.00           6896          45.00       165.65
   68.85        3350.25           6900          43.00       156.93
   68.88        3350.50           6904          50.00       187.45
   68.91        3350.75           6908          47.00       174.37
   68.94        3351.00           6912          52.00       196.17
HL scan finished at 01:09:36
end
