************************************************************
  HL Scan of (1) Internal mercury lamp
************************************************************
Integration time is 0.2294 seconds per sample
dh090318Manchester 53.47 2.23 2.804185pr1000
************************************************************
Dead Time -------------------------  3E-08 
Number of Cycles Used -------------  4 
Starting Wavelength (Angstroms) ---  3331 
Final Wavelength (Angstoms) -------  3351 
Wavelength Increment (Angstroms) --  .25 
Filter Wheel #1 Position ---------- (1) Ground quartz diffuser (ND=2.32)
Filter Wheel #2 Position ---------- 



************************************************************
HL scan start time = 01:05:32
Dark Count =  6.1 


Time (GMT)  Wavelength (Ang)  Step Number  Raw Counts  Counts/Second

   66.05        3331.00           6610          57.00       221.88
   66.27        3331.25           6614          56.00       217.53
   66.31        3331.50           6618          65.00       256.76
   66.34        3331.75           6622          53.00       204.45
   66.37        3332.00           6626          50.00       191.37
   66.40        3332.25           6629          63.00       248.04
   66.43        3332.50           6633          52.00       200.09
   66.46        3332.75           6637          55.00       213.17
   66.49        3333.00           6641          57.00       221.88
   66.52        3333.25           6644          55.00       213.17
   66.55        3333.50           6648          60.00       234.96
   66.58        3333.75           6652          61.00       239.32
   66.61        3334.00           6656          51.00       195.73
   66.65        3334.25           6659          65.00       256.76
   66.68        3334.50           6663          82.00       330.87
   66.71        3334.75           6667         110.00       452.93
   66.74        3335.00           6671         115.00       474.72
   66.77        3335.25           6674         144.00       601.14
   66.80        3335.50           6678         173.00       727.57
   66.83        3335.75           6682         176.00       740.64
   66.86        3336.00           6686         228.00       967.33
   66.89        3336.25           6689         282.00      1202.75
   66.92        3336.50           6693         482.00      2074.67
   66.95        3336.75           6697        1566.00      6801.30
   66.99        3337.00           6701        2945.00     12816.17
   67.02        3337.25           6704        4046.00     17620.04
   67.05        3337.50           6708        5508.00     24001.15
   67.08        3337.75           6712        6930.00     30210.02
   67.11        3338.00           6716        8516.00     37137.69
   67.14        3338.25           6719        9605.00     41896.13
   67.17        3338.50           6723       11039.00     48164.14
   67.20        3338.75           6727       12283.00     53603.58
   67.23        3339.00           6731       13812.00     60291.61
   67.27        3339.25           6734       14949.00     65266.73
   67.30        3339.50           6738       16456.00     71863.13
   67.33        3339.75           6742       17847.00     77954.11
   67.36        3340.00           6746       19318.00     84397.81
   67.39        3340.25           6750       20859.00     91150.83
   67.42        3340.50           6753       22036.00     96310.56
   67.45        3340.75           6757       23329.00    101980.70
   67.48        3341.00           6761       24627.00    107674.60
   67.51        3341.25           6765       25786.00    112760.50
   67.54        3341.50           6768       26009.00    113739.20
   67.58        3341.75           6772       25983.00    113625.10
   67.61        3342.00           6776       25852.00    113050.20
   67.64        3342.25           6780       24999.00    109306.90
   67.67        3342.50           6783       23926.00    104599.30
   67.70        3342.75           6787       22490.00     98301.24
   67.73        3343.00           6791       21163.00     92483.36
   67.76        3343.25           6795       19578.00     85537.01
   67.79        3343.50           6798       18265.00     79784.91
   67.82        3343.75           6802       16910.00     73850.88
   67.85        3344.00           6806       15514.00     67739.53
   67.88        3344.25           6810       13998.00     61105.38
   67.92        3344.50           6814       12554.00     54788.76
   67.95        3344.75           6817       11424.00     49847.38
   67.98        3345.00           6821       10028.00     43744.82
   68.01        3345.25           6825        8571.00     37377.99
   68.04        3345.50           6829        6977.00     30415.27
   68.07        3345.75           6832        5842.00     25459.28
   68.10        3346.00           6836        4318.00     18807.03
   68.13        3346.25           6840        2890.00     12576.24
   68.16        3346.50           6844        1520.00      6600.70
   68.19        3346.75           6847         657.00      2837.64
   68.22        3347.00           6851         258.00      1098.12
   68.25        3347.25           6855         146.00       609.86
   68.28        3347.50           6859         112.00       461.65
   68.32        3347.75           6863         103.00       422.41
   68.35        3348.00           6866          66.00       261.12
   68.38        3348.25           6870          60.00       234.96
   68.41        3348.50           6874          59.00       230.60
   68.44        3348.75           6878          53.00       204.45
   68.47        3349.00           6881          64.00       252.40
   68.50        3349.25           6885          56.00       217.53
   68.53        3349.50           6889          58.00       226.24
   68.56        3349.75           6893          54.00       208.81
   68.59        3350.00           6896          66.00       261.12
   68.62        3350.25           6900          51.00       195.73
   68.66        3350.50           6904          57.00       221.88
   68.69        3350.75           6908          51.00       195.73
   68.72        3351.00           6912          50.00       191.37
HL scan finished at 01:09:23
end
