************************************************************
  HL Scan of (1) Internal mercury lamp
************************************************************
Integration time is 0.2294 seconds per sample
dh020317Manchester 53.47 2.23 2.750537pr1000
************************************************************
Dead Time -------------------------  3E-08 
Number of Cycles Used -------------  4 
Starting Wavelength (Angstroms) ---  3331 
Final Wavelength (Angstoms) -------  3351 
Wavelength Increment (Angstroms) --  .25 
Filter Wheel #1 Position ---------- (1) Ground quartz diffuser (ND=2.32)
Filter Wheel #2 Position ---------- 



************************************************************
HL scan start time = 01:07:03
Dark Count =  6.3 


Time (GMT)  Wavelength (Ang)  Step Number  Raw Counts  Counts/Second

   67.57        3331.00           6610          52.00       199.22
   67.79        3331.25           6614          48.00       181.78
   67.82        3331.50           6618          49.00       186.14
   67.85        3331.75           6622          61.00       238.45
   67.88        3332.00           6626          61.00       238.45
   67.91        3332.25           6629          55.00       212.29
   67.95        3332.50           6633          56.00       216.65
   67.98        3332.75           6637          54.00       207.94
   68.01        3333.00           6641          56.00       216.65
   68.04        3333.25           6644          51.00       194.86
   68.07        3333.50           6648          58.00       225.37
   68.10        3333.75           6652          58.00       225.37
   68.13        3334.00           6656          53.00       203.58
   68.16        3334.25           6659          67.00       264.61
   68.19        3334.50           6663          74.00       295.12
   68.22        3334.75           6667          86.00       347.43
   68.25        3335.00           6671         103.00       421.54
   68.28        3335.25           6674         125.00       517.44
   68.31        3335.50           6678         160.00       670.02
   68.34        3335.75           6682         165.00       691.82
   68.38        3336.00           6686         201.00       848.76
   68.41        3336.25           6689         247.00      1049.29
   68.44        3336.50           6693         443.00      1903.77
   68.47        3336.75           6697        1229.00      5330.84
   68.50        3337.00           6701        2622.00     11406.26
   68.53        3337.25           6704        3678.00     16013.36
   68.56        3337.50           6708        5190.00     22612.11
   68.59        3337.75           6712        6593.00     28737.50
   68.62        3338.00           6716        8011.00     34930.66
   68.65        3338.25           6719        9079.00     39596.70
   68.69        3338.50           6723       10304.00     44950.29
   68.72        3338.75           6727       11848.00     51700.44
   68.75        3339.00           6731       13231.00     57749.05
   68.78        3339.25           6734       14247.00     62193.97
   68.81        3339.50           6738       15773.00     68872.33
   68.84        3339.75           6742       17068.00     74541.84
   68.87        3340.00           6746       18621.00     81343.43
   68.90        3340.25           6750       20089.00     87775.29
   68.93        3340.50           6753       21015.00     91833.74
   68.96        3340.75           6757       22365.00     97752.24
   69.00        3341.00           6761       23700.00    103607.10
   69.03        3341.25           6765       24827.00    108551.30
   69.06        3341.50           6768       25185.00    110122.10
   69.09        3341.75           6772       25150.00    109968.60
   69.12        3342.00           6776       24987.00    109253.30
   69.15        3342.25           6780       24289.00    106190.90
   69.18        3342.50           6783       23390.00    102247.30
   69.21        3342.75           6787       21896.00     95695.87
   69.24        3343.00           6791       20416.00     89208.34
   69.27        3343.25           6795       19030.00     83135.16
   69.31        3343.50           6798       17863.00     78023.31
   69.34        3343.75           6802       16448.00     71827.23
   69.37        3344.00           6806       15103.00     65939.82
   69.40        3344.25           6810       13671.00     59673.87
   69.43        3344.50           6814       12268.00     53537.10
   69.46        3344.75           6817       11156.00     48674.78
   69.49        3345.00           6821        9814.00     42808.65
   69.52        3345.25           6825        8498.00     37058.18
   69.55        3345.50           6829        6953.00     30309.59
   69.59        3345.75           6832        5725.00     24947.61
   69.62        3346.00           6836        4336.00     18884.72
   69.65        3346.25           6840        2872.00     12496.84
   69.68        3346.50           6844        1527.00      6630.35
   69.71        3346.75           6847         787.00      3403.57
   69.74        3347.00           6851         271.00      1153.92
   69.77        3347.25           6855         181.00       761.57
   69.80        3347.50           6859         136.00       565.40
   69.83        3347.75           6863         119.00       491.29
   69.87        3348.00           6866          91.00       369.23
   69.90        3348.25           6870          68.00       268.96
   69.93        3348.50           6874          58.00       225.37
   69.96        3348.75           6878          52.00       199.22
   69.99        3349.00           6881          53.00       203.58
   70.02        3349.25           6885          60.00       234.09
   70.05        3349.50           6889          46.00       173.06
   70.08        3349.75           6893          58.00       225.37
   70.11        3350.00           6896          56.00       216.65
   70.14        3350.25           6900          60.00       234.09
   70.18        3350.50           6904          54.00       207.94
   70.21        3350.75           6908          51.00       194.86
   70.24        3351.00           6912          55.00       212.29
HL scan finished at 01:10:54
end
