************************************************************
  HL Scan of (1) Internal mercury lamp
************************************************************
Integration time is 0.2294 seconds per sample
dh090317Manchester 53.47 2.23 2.750537pr1000
************************************************************
Dead Time -------------------------  3E-08 
Number of Cycles Used -------------  4 
Starting Wavelength (Angstroms) ---  3331 
Final Wavelength (Angstoms) -------  3351 
Wavelength Increment (Angstroms) --  .25 
Filter Wheel #1 Position ---------- (1) Ground quartz diffuser (ND=2.32)
Filter Wheel #2 Position ---------- 



************************************************************
HL scan start time = 01:05:55
Dark Count =  7.6 


Time (GMT)  Wavelength (Ang)  Step Number  Raw Counts  Counts/Second

   66.43        3331.00           6610          58.00       219.71
   66.66        3331.25           6614          57.00       215.35
   66.69        3331.50           6618          53.00       197.91
   66.72        3331.75           6622          58.00       219.71
   66.75        3332.00           6626          45.00       163.03
   66.78        3332.25           6629          52.00       193.55
   66.81        3332.50           6633          77.00       302.53
   66.84        3332.75           6637          53.00       197.91
   66.87        3333.00           6641          46.00       167.39
   66.90        3333.25           6644          58.00       219.71
   66.93        3333.50           6648          50.00       184.83
   66.96        3333.75           6652          52.00       193.55
   66.99        3334.00           6656          49.00       180.47
   67.03        3334.25           6659          65.00       250.22
   67.06        3334.50           6663          75.00       293.81
   67.09        3334.75           6667         103.00       415.87
   67.12        3335.00           6671         105.00       424.59
   67.15        3335.25           6674         149.00       616.40
   67.18        3335.50           6678         152.00       629.48
   67.21        3335.75           6682         195.00       816.93
   67.24        3336.00           6686         198.00       830.01
   67.28        3336.25           6689         250.00      1056.70
   67.31        3336.50           6693         417.00      1784.75
   67.34        3336.75           6697        1178.00      5102.79
   67.37        3337.00           6701        2577.00     11204.29
   67.40        3337.25           6704        3628.00     15789.52
   67.43        3337.50           6708        5079.00     22121.91
   67.46        3337.75           6712        6462.00     28159.79
   67.49        3338.00           6716        7869.00     34304.68
   67.52        3338.25           6719        9020.00     39333.22
   67.56        3338.50           6723       10503.00     45814.46
   67.59        3338.75           6727       12025.00     52468.76
   67.62        3339.00           6731       13159.00     57428.42
   67.65        3339.25           6734       14301.00     62424.56
   67.68        3339.50           6738       15685.00     68481.44
   67.71        3339.75           6742       16994.00     74212.13
   67.74        3340.00           6746       18493.00     80777.03
   67.77        3340.25           6750       20035.00     87532.96
   67.80        3340.50           6753       21129.00     92327.74
   67.83        3340.75           6757       22455.00     98141.19
   67.86        3341.00           6761       23887.00    104421.60
   67.89        3341.25           6765       24956.00    109111.60
   67.93        3341.50           6768       25307.00    110651.80
   67.96        3341.75           6772       25502.00    111507.50
   67.99        3342.00           6776       25276.00    110515.80
   68.02        3342.25           6780       24584.00    107479.40
   68.05        3342.50           6783       23935.00    104632.20
   68.08        3342.75           6787       22429.00     98027.18
   68.11        3343.00           6791       21048.00     91972.69
   68.14        3343.25           6795       19603.00     85639.99
   68.17        3343.50           6798       18526.00     80921.58
   68.21        3343.75           6802       17012.00     74290.94
   68.24        3344.00           6806       15560.00     67934.31
   68.27        3344.25           6810       14267.00     62275.79
   68.30        3344.50           6814       12675.00     55311.41
   68.33        3344.75           6817       11609.00     50649.71
   68.36        3345.00           6821       10182.00     44411.36
   68.39        3345.25           6825        8748.00     38144.76
   68.42        3345.50           6829        7422.00     32352.23
   68.45        3345.75           6832        6373.00     27771.17
   68.48        3346.00           6836        4871.00     21214.02
   68.52        3346.25           6840        3345.00     14554.74
   68.55        3346.50           6844        1973.00      8569.77
   68.58        3346.75           6847         958.00      4143.50
   68.61        3347.00           6851         310.00      1318.27
   68.64        3347.25           6855         183.00       764.62
   68.67        3347.50           6859         135.00       555.37
   68.70        3347.75           6863         104.00       420.23
   68.73        3348.00           6866          89.00       354.84
   68.76        3348.25           6870          64.00       245.86
   68.79        3348.50           6874          57.00       215.35
   68.83        3348.75           6878          54.00       202.27
   68.86        3349.00           6881          54.00       202.27
   68.89        3349.25           6885          67.00       258.94
   68.92        3349.50           6889          57.00       215.35
   68.95        3349.75           6893          56.00       210.99
   68.98        3350.00           6896          53.00       197.91
   69.01        3350.25           6900          49.00       180.47
   69.04        3350.50           6904          55.00       206.63
   69.07        3350.75           6908          60.00       228.42
   69.10        3351.00           6912          54.00       202.27
HL scan finished at 01:09:46
end
