************************************************************
  HL Scan of (1) Internal mercury lamp
************************************************************
Integration time is 0.2294 seconds per sample
dh160317Manchester 53.47 2.23 2.804185pr1000
************************************************************
Dead Time -------------------------  3E-08 
Number of Cycles Used -------------  4 
Starting Wavelength (Angstroms) ---  3331 
Final Wavelength (Angstoms) -------  3351 
Wavelength Increment (Angstroms) --  .25 
Filter Wheel #1 Position ---------- (1) Ground quartz diffuser (ND=2.32)
Filter Wheel #2 Position ---------- 



************************************************************
HL scan start time = 01:03:36
Dark Count =  6.5 


Time (GMT)  Wavelength (Ang)  Step Number  Raw Counts  Counts/Second

   64.12        3331.00           6610          56.00       215.78
   64.34        3331.25           6614          53.00       202.70
   64.37        3331.50           6618          51.00       193.99
   64.40        3331.75           6622          54.00       207.06
   64.43        3332.00           6626          50.00       189.63
   64.46        3332.25           6629          56.00       215.78
   64.49        3332.50           6633          53.00       202.70
   64.52        3332.75           6637          59.00       228.86
   64.55        3333.00           6641          52.00       198.34
   64.58        3333.25           6644          59.00       228.86
   64.62        3333.50           6648          47.00       176.55
   64.65        3333.75           6652          52.00       198.34
   64.68        3334.00           6656          58.00       224.50
   64.71        3334.25           6659          61.00       237.58
   64.74        3334.50           6663          73.00       289.89
   64.77        3334.75           6667          82.00       329.12
   64.80        3335.00           6671         108.00       442.46
   64.83        3335.25           6674         137.00       568.89
   64.86        3335.50           6678         159.00       664.79
   64.89        3335.75           6682         170.00       712.74
   64.93        3336.00           6686         213.00       900.20
   64.96        3336.25           6689         245.00      1039.70
   64.99        3336.50           6693         476.00      2046.77
   65.02        3336.75           6697        1258.00      5456.43
   65.05        3337.00           6701        2669.00     11610.41
   65.08        3337.25           6704        3729.00     16235.02
   65.11        3337.50           6708        5136.00     22375.52
   65.14        3337.75           6712        6570.00     28636.19
   65.17        3338.00           6716        7993.00     34851.15
   65.20        3338.25           6719        9051.00     39473.49
   65.24        3338.50           6723       10580.00     46155.85
   65.27        3338.75           6727       11894.00     51900.71
   65.30        3339.00           6731       13280.00     57962.52
   65.33        3339.25           6734       14265.00     62271.85
   65.36        3339.50           6738       15635.00     68267.40
   65.39        3339.75           6742       17197.00     75105.83
   65.42        3340.00           6746       18655.00     81491.50
   65.45        3340.25           6750       19980.00     87296.78
   65.48        3340.50           6753       21143.00     92393.93
   65.51        3340.75           6757       22462.00     98176.69
   65.54        3341.00           6761       23999.00    104917.80
   65.58        3341.25           6765       24897.00    108857.50
   65.61        3341.50           6768       25425.00    111174.50
   65.64        3341.75           6772       25505.00    111525.50
   65.67        3342.00           6776       25291.00    110586.40
   65.70        3342.25           6780       24503.00    107128.80
   65.73        3342.50           6783       23610.00    103211.40
   65.76        3342.75           6787       22219.00     97111.19
   65.79        3343.00           6791       20908.00     91363.86
   65.82        3343.25           6795       19306.00     84343.49
   65.86        3343.50           6798       18386.00     80313.16
   65.89        3343.75           6802       16857.00     73617.07
   65.92        3344.00           6806       15447.00     67444.52
   65.95        3344.25           6810       14042.00     61296.14
   65.98        3344.50           6814       12542.00     54734.53
   66.01        3344.75           6817       11476.00     50072.99
   66.04        3345.00           6821        9977.00     43520.17
   66.07        3345.25           6825        8579.00     37411.19
   66.10        3345.50           6829        7162.00     31221.47
   66.14        3345.75           6832        6211.00     27068.62
   66.17        3346.00           6836        4735.00     20625.23
   66.20        3346.25           6840        3283.00     14289.04
   66.23        3346.50           6844        1810.00      7863.67
   66.26        3346.75           6847         879.00      3803.83
   66.29        3347.00           6851         295.00      1257.68
   66.32        3347.25           6855         169.00       708.38
   66.35        3347.50           6859         135.00       560.17
   66.38        3347.75           6863         104.00       425.03
   66.41        3348.00           6866          89.00       359.64
   66.44        3348.25           6870          69.00       272.45
   66.48        3348.50           6874          69.00       272.45
   66.51        3348.75           6878          59.00       228.86
   66.54        3349.00           6881          63.00       246.30
   66.57        3349.25           6885          52.00       198.34
   66.60        3349.50           6889          59.00       228.86
   66.63        3349.75           6893          55.00       211.42
   66.66        3350.00           6896          50.00       189.63
   66.69        3350.25           6900          55.00       211.42
   66.72        3350.50           6904          55.00       211.42
   66.75        3350.75           6908          54.00       207.06
   66.78        3351.00           6912          65.00       255.02
HL scan finished at 01:07:27
end
