************************************************************
  HL Scan of (1) Internal mercury lamp
************************************************************
Integration time is 0.2294 seconds per sample
dh160318Manchester 53.47 2.23 2.804185pr1000
************************************************************
Dead Time -------------------------  3E-08 
Number of Cycles Used -------------  4 
Starting Wavelength (Angstroms) ---  3331 
Final Wavelength (Angstoms) -------  3351 
Wavelength Increment (Angstroms) --  .25 
Filter Wheel #1 Position ---------- (1) Ground quartz diffuser (ND=2.32)
Filter Wheel #2 Position ---------- 



************************************************************
HL scan start time = 01:03:39
Dark Count =  8.2 


Time (GMT)  Wavelength (Ang)  Step Number  Raw Counts  Counts/Second

   64.17        3331.00           6610          57.00       212.73
   64.40        3331.25           6614          48.00       173.50
   64.43        3331.50           6618          50.00       182.22
   64.46        3331.75           6622          54.00       199.65
   64.49        3332.00           6626          58.00       217.09
   64.52        3332.25           6629          50.00       182.22
   64.55        3332.50           6633          49.00       177.86
   64.58        3332.75           6637          49.00       177.86
   64.61        3333.00           6641          52.00       190.93
   64.64        3333.25           6644          54.00       199.65
   64.67        3333.50           6648          51.00       186.57
   64.70        3333.75           6652          55.00       204.01
   64.73        3334.00           6656          55.00       204.01
   64.76        3334.25           6659          60.00       225.81
   64.80        3334.50           6663          76.00       295.56
   64.83        3334.75           6667          80.00       312.99
   64.86        3335.00           6671         115.00       465.57
   64.89        3335.25           6674         133.00       544.04
   64.92        3335.50           6678         155.00       639.94
   64.95        3335.75           6682         179.00       744.57
   64.98        3336.00           6686         200.00       836.12
   65.01        3336.25           6689         262.00      1106.40
   65.04        3336.50           6693         448.00      1917.29
   65.07        3336.75           6697        1380.00      5981.02
   65.11        3337.00           6701        2740.00     11912.71
   65.14        3337.25           6704        3798.00     16528.68
   65.17        3337.50           6708        5305.00     23105.81
   65.20        3337.75           6712        6849.00     29847.12
   65.23        3338.00           6716        8229.00     35874.68
   65.26        3338.25           6719        9324.00     40658.98
   65.29        3338.50           6723       10887.00     47490.46
   65.32        3338.75           6727       12216.00     53301.38
   65.35        3339.00           6731       13751.00     60015.55
   65.38        3339.25           6734       14776.00     64500.46
   65.42        3339.50           6738       16265.00     71017.75
   65.45        3339.75           6742       17689.00     77252.95
   65.48        3340.00           6746       19280.00     84222.12
   65.51        3340.25           6750       20808.00     90918.10
   65.54        3340.50           6753       21758.00     95082.52
   65.57        3340.75           6757       23291.00    101804.80
   65.60        3341.00           6761       24734.00    108134.90
   65.63        3341.25           6765       25831.00    112948.80
   65.66        3341.50           6768       26273.00    114888.80
   65.69        3341.75           6772       26352.00    115235.50
   65.73        3342.00           6776       26159.00    114388.40
   65.76        3342.25           6780       25509.00    111535.60
   65.79        3342.50           6783       24511.00    107156.50
   65.82        3342.75           6787       23009.00    100568.00
   65.85        3343.00           6791       21604.00     94407.38
   65.88        3343.25           6795       20158.00     88069.35
   65.91        3343.50           6798       18955.00     82798.28
   65.94        3343.75           6802       17592.00     76828.15
   65.97        3344.00           6806       16007.00     69888.31
   66.01        3344.25           6810       14619.00     63813.42
   66.04        3344.50           6814       12993.00     56699.68
   66.07        3344.75           6817       11912.00     51971.99
   66.10        3345.00           6821       10588.00     46183.39
   66.13        3345.25           6825        8919.00     38889.29
   66.16        3345.50           6829        7477.00     32589.83
   66.19        3345.75           6832        6354.00     27685.58
   66.22        3346.00           6836        4857.00     21150.29
   66.25        3346.25           6840        3366.00     14643.75
   66.29        3346.50           6844        1898.00      8240.05
   66.32        3346.75           6847         947.00      4092.92
   66.35        3347.00           6851         295.00      1250.26
   66.38        3347.25           6855         172.00       714.05
   66.41        3347.50           6859         143.00       587.63
   66.44        3347.75           6863         111.00       448.13
   66.47        3348.00           6866          90.00       356.59
   66.50        3348.25           6870          66.00       251.96
   66.53        3348.50           6874          63.00       238.89
   66.56        3348.75           6878          50.00       182.22
   66.60        3349.00           6881          57.00       212.73
   66.63        3349.25           6885          50.00       182.22
   66.66        3349.50           6889          61.00       230.17
   66.69        3349.75           6893          63.00       238.89
   66.72        3350.00           6896          55.00       204.01
   66.75        3350.25           6900          50.00       182.22
   66.78        3350.50           6904          51.00       186.57
   66.81        3350.75           6908          61.00       230.17
   66.84        3351.00           6912          58.00       217.09
HL scan finished at 01:07:30
end
