************************************************************
  HL Scan of (1) Internal mercury lamp
************************************************************
Integration time is 0.2294 seconds per sample
dh230318Manchester 53.47 2.23 2.804185pr1000
************************************************************
Dead Time -------------------------  3E-08 
Number of Cycles Used -------------  4 
Starting Wavelength (Angstroms) ---  3331 
Final Wavelength (Angstoms) -------  3351 
Wavelength Increment (Angstroms) --  .25 
Filter Wheel #1 Position ---------- (1) Ground quartz diffuser (ND=2.32)
Filter Wheel #2 Position ---------- 



************************************************************
HL scan start time = 01:01:38
Dark Count =  5.9 


Time (GMT)  Wavelength (Ang)  Step Number  Raw Counts  Counts/Second

   62.16        3331.00           6610          67.00       266.35
   62.38        3331.25           6614          48.00       183.52
   62.41        3331.50           6618          56.00       218.40
   62.44        3331.75           6622          49.00       187.88
   62.47        3332.00           6626          56.00       218.40
   62.50        3332.25           6629          53.00       205.32
   62.53        3332.50           6633          52.00       200.96
   62.57        3332.75           6637          56.00       218.40
   62.60        3333.00           6641          59.00       231.48
   62.63        3333.25           6644          53.00       205.32
   62.66        3333.50           6648          52.00       200.96
   62.69        3333.75           6652          52.00       200.96
   62.72        3334.00           6656          59.00       231.48
   62.75        3334.25           6659          63.00       248.91
   62.78        3334.50           6663          75.00       301.22
   62.81        3334.75           6667          96.00       392.77
   62.84        3335.00           6671         122.00       506.11
   62.88        3335.25           6674         151.00       632.53
   62.91        3335.50           6678         168.00       706.64
   62.94        3335.75           6682         200.00       846.14
   62.97        3336.00           6686         224.00       950.77
   63.00        3336.25           6689         266.00      1133.87
   63.03        3336.50           6693         430.00      1848.84
   63.06        3336.75           6697        1240.00      5380.55
   63.09        3337.00           6701        2546.00     11076.48
   63.12        3337.25           6704        3657.00     15923.47
   63.15        3337.50           6708        5027.00     21902.36
   63.18        3337.75           6712        6730.00     29337.49
   63.21        3338.00           6716        8158.00     35574.56
   63.24        3338.25           6719        9308.00     40599.11
   63.28        3338.50           6723       10644.00     46438.24
   63.31        3338.75           6727       12108.00     52839.14
   63.34        3339.00           6731       13511.00     58975.66
   63.37        3339.25           6734       14726.00     64291.71
   63.40        3339.50           6738       16302.00     71189.81
   63.43        3339.75           6742       17870.00     78055.71
   63.46        3340.00           6746       19499.00     85191.74
   63.49        3340.25           6750       20828.00     91015.83
   63.52        3340.50           6753       21786.00     95215.36
   63.56        3340.75           6757       23082.00    100898.20
   63.59        3341.00           6761       24424.00    106784.90
   63.62        3341.25           6765       25481.00    111422.80
   63.65        3341.50           6768       26045.00    113898.10
   63.68        3341.75           6772       26270.00    114885.70
   63.71        3342.00           6776       26007.00    113731.30
   63.74        3342.25           6780       25481.00    111422.80
   63.77        3342.50           6783       24410.00    106723.50
   63.80        3342.75           6787       22971.00    100411.40
   63.83        3343.00           6791       21624.00     94505.14
   63.87        3343.25           6795       20226.00     88377.42
   63.90        3343.50           6798       18940.00     82742.63
   63.93        3343.75           6802       17519.00     76518.53
   63.96        3344.00           6806       16246.00     70944.65
   63.99        3344.25           6810       14787.00     64558.65
   64.02        3344.50           6814       13294.00     58026.39
   64.05        3344.75           6817       12076.00     52699.21
   64.08        3345.00           6821       10688.00     46630.57
   64.11        3345.25           6825        9178.00     40031.04
   64.15        3345.50           6829        7746.00     33774.83
   64.18        3345.75           6832        6658.00     29023.08
   64.21        3346.00           6836        5126.00     22334.49
   64.24        3346.25           6840        3611.00     15722.76
   64.27        3346.50           6844        2231.00      9702.48
   64.30        3346.75           6847        1322.00      5738.13
   64.33        3347.00           6851         395.00      1696.25
   64.36        3347.25           6855         186.00       785.11
   64.40        3347.50           6859         121.00       501.75
   64.43        3347.75           6863          96.00       392.77
   64.46        3348.00           6866          76.00       305.58
   64.49        3348.25           6870          64.00       253.27
   64.52        3348.50           6874          55.00       214.04
   64.55        3348.75           6878          54.00       209.68
   64.58        3349.00           6881          55.00       214.04
   64.61        3349.25           6885          55.00       214.04
   64.64        3349.50           6889          50.00       192.24
   64.67        3349.75           6893          54.00       209.68
   64.70        3350.00           6896          56.00       218.40
   64.73        3350.25           6900          49.00       187.88
   64.77        3350.50           6904          56.00       218.40
   64.80        3350.75           6908          51.00       196.60
   64.83        3351.00           6912          55.00       214.04
HL scan finished at 01:05:29
end
