************************************************************
  HL Scan of (1) Internal mercury lamp
************************************************************
Integration time is 0.2294 seconds per sample
dh300318Manchester 53.47 2.23 2.804185pr1000
************************************************************
Dead Time -------------------------  3E-08 
Number of Cycles Used -------------  4 
Starting Wavelength (Angstroms) ---  3331 
Final Wavelength (Angstoms) -------  3351 
Wavelength Increment (Angstroms) --  .25 
Filter Wheel #1 Position ---------- (1) Ground quartz diffuser (ND=2.32)
Filter Wheel #2 Position ---------- 



************************************************************
HL scan start time = 00:59:35
Dark Count =  4.3 


Time (GMT)  Wavelength (Ang)  Step Number  Raw Counts  Counts/Second

   60.12        3331.00           6610          53.00       212.29
   60.34        3331.25           6614          51.00       203.58
   60.37        3331.50           6618          59.00       238.45
   60.40        3331.75           6622          51.00       203.58
   60.43        3332.00           6626          55.00       221.01
   60.46        3332.25           6629          53.00       212.29
   60.49        3332.50           6633          50.00       199.22
   60.52        3332.75           6637          57.00       229.73
   60.55        3333.00           6641          47.00       186.14
   60.58        3333.25           6644          56.00       225.37
   60.61        3333.50           6648          54.00       216.65
   60.64        3333.75           6652          55.00       221.01
   60.67        3334.00           6656          57.00       229.73
   60.70        3334.25           6659          60.00       242.81
   60.74        3334.50           6663          75.00       308.20
   60.77        3334.75           6667          91.00       377.95
   60.80        3335.00           6671         115.00       482.57
   60.83        3335.25           6674         143.00       604.63
   60.86        3335.50           6678         166.00       704.90
   60.89        3335.75           6682         183.00       779.01
   60.92        3336.00           6686         214.00       914.15
   60.95        3336.25           6689         261.00      1119.04
   60.98        3336.50           6693         464.00      2004.04
   61.01        3336.75           6697        1411.00      6133.21
   61.04        3337.00           6701        2829.00     12317.98
   61.07        3337.25           6704        3893.00     16960.24
   61.11        3337.50           6708        5343.00     23288.72
   61.14        3337.75           6712        6775.00     29540.99
   61.17        3338.00           6716        8358.00     36455.28
   61.20        3338.25           6719        9447.00     41213.53
   61.23        3338.50           6723       10874.00     47450.68
   61.26        3338.75           6727       12214.00     53309.69
   61.29        3339.00           6731       13770.00     60115.73
   61.32        3339.25           6734       14883.00     64985.77
   61.35        3339.50           6738       16352.00     71415.71
   61.38        3339.75           6742       17734.00     77467.10
   61.42        3340.00           6746       19225.00     83998.24
   61.45        3340.25           6750       20769.00     90764.25
   61.48        3340.50           6753       21765.00     95130.31
   61.51        3340.75           6757       23291.00    101821.90
   61.54        3341.00           6761       24571.00    107436.80
   61.57        3341.25           6765       25607.00    111982.80
   61.60        3341.50           6768       26096.00    114129.00
   61.63        3341.75           6772       26271.00    114897.10
   61.66        3342.00           6776       26090.00    114102.60
   61.69        3342.25           6780       25103.00    109771.10
   61.73        3342.50           6783       24185.00    105743.40
   61.76        3342.75           6787       22629.00     98918.66
   61.79        3343.00           6791       21289.00     93043.57
   61.82        3343.25           6795       19919.00     87039.09
   61.85        3343.50           6798       18956.00     82819.73
   61.88        3343.75           6802       17352.00     75794.21
   61.91        3344.00           6806       15922.00     69533.31
   61.94        3344.25           6810       14490.00     63266.00
   61.97        3344.50           6814       13032.00     56887.33
   62.00        3344.75           6817       11917.00     52010.91
   62.04        3345.00           6821       10619.00     46335.95
   62.07        3345.25           6825        8988.00     39207.82
   62.10        3345.50           6829        7419.00     32353.53
   62.13        3345.75           6832        6293.00     27436.26
   62.16        3346.00           6836        4799.00     20914.16
   62.19        3346.25           6840        3442.00     14992.36
   62.22        3346.50           6844        2039.00      8872.02
   62.25        3346.75           6847        1039.00      4511.07
   62.28        3347.00           6851         319.00      1371.90
   62.31        3347.25           6855         188.00       800.80
   62.34        3347.50           6859         133.00       561.04
   62.37        3347.75           6863         100.00       417.18
   62.41        3348.00           6866          84.00       347.43
   62.44        3348.25           6870          66.00       268.96
   62.47        3348.50           6874          63.00       255.89
   62.50        3348.75           6878          60.00       242.81
   62.53        3349.00           6881          50.00       199.22
   62.56        3349.25           6885          55.00       221.01
   62.59        3349.50           6889          52.00       207.94
   62.62        3349.75           6893          61.00       247.17
   62.65        3350.00           6896          65.00       264.61
   62.68        3350.25           6900          56.00       225.37
   62.71        3350.50           6904          55.00       221.01
   62.75        3350.75           6908          54.00       216.65
   62.78        3351.00           6912          56.00       225.37
HL scan finished at 01:03:26
end
