************************************************************
  HL Scan of (1) Internal mercury lamp
************************************************************
Integration time is 0.2294 seconds per sample
dh230319Manchester 53.47 2.23 2.804185pr1000
************************************************************
Dead Time -------------------------  3E-08 
Number of Cycles Used -------------  4 
Starting Wavelength (Angstroms) ---  3331 
Final Wavelength (Angstoms) -------  3351 
Wavelength Increment (Angstroms) --  .25 
Filter Wheel #1 Position ---------- (1) Ground quartz diffuser (ND=2.32)
Filter Wheel #2 Position ---------- 



************************************************************
HL scan start time = 01:01:48
Dark Count =  6.4 


Time (GMT)  Wavelength (Ang)  Step Number  Raw Counts  Counts/Second

   62.32        3331.00           6610          49.00       185.70
   62.54        3331.25           6614          49.00       185.70
   62.57        3331.50           6618          45.00       168.27
   62.60        3331.75           6622          51.00       194.42
   62.63        3332.00           6626          44.00       163.91
   62.66        3332.25           6629          53.00       203.14
   62.69        3332.50           6633          42.00       155.19
   62.72        3332.75           6637          42.00       155.19
   62.76        3333.00           6641          48.00       181.34
   62.79        3333.25           6644          45.00       168.27
   62.82        3333.50           6648          43.00       159.55
   62.85        3333.75           6652          48.00       181.34
   62.88        3334.00           6656          43.00       159.55
   62.91        3334.25           6659          45.00       168.27
   62.94        3334.50           6663          64.00       251.09
   62.97        3334.75           6667          75.00       299.04
   63.00        3335.00           6671         104.00       425.46
   63.03        3335.25           6674         115.00       473.42
   63.06        3335.50           6678         137.00       569.32
   63.10        3335.75           6682         158.00       660.87
   63.13        3336.00           6686         171.00       717.54
   63.16        3336.25           6689         209.00       883.20
   63.19        3336.50           6693         406.00      1742.03
   63.22        3336.75           6697        1202.00      5212.67
   63.25        3337.00           6701        2233.00      9709.02
   63.28        3337.25           6704        3105.00     13512.89
   63.31        3337.50           6708        4158.00     18107.48
   63.35        3337.75           6712        5245.00     22851.76
   63.38        3338.00           6716        6446.00     28095.16
   63.41        3338.25           6719        7279.00     31732.90
   63.44        3338.50           6723        8362.00     36463.58
   63.47        3338.75           6727        9419.00     41081.99
   63.50        3339.00           6731       10547.00     46012.03
   63.53        3339.25           6734       11471.00     50051.56
   63.56        3339.50           6738       12611.00     55036.74
   63.59        3339.75           6742       13581.00     59279.69
   63.63        3340.00           6746       14722.00     64272.02
   63.66        3340.25           6750       15901.00     69432.18
   63.69        3340.50           6753       16766.00     73219.06
   63.72        3340.75           6757       17715.00     77374.69
   63.75        3341.00           6761       18896.00     82547.68
   63.78        3341.25           6765       19888.00     86894.05
   63.81        3341.50           6768       19957.00     87196.41
   63.84        3341.75           6772       20000.00     87384.84
   63.87        3342.00           6776       19906.00     86972.93
   63.91        3342.25           6780       19113.00     83498.35
   63.94        3342.50           6783       18456.00     80620.21
   63.97        3342.75           6787       17238.00     75285.81
   64.00        3343.00           6791       16329.00     71305.82
   64.03        3343.25           6795       15172.00     66241.36
   64.06        3343.50           6798       14218.00     62066.64
   64.09        3343.75           6802       13158.00     57429.29
   64.12        3344.00           6806       11914.00     51988.61
   64.15        3344.25           6810       10800.00     47117.99
   64.18        3344.50           6814        9625.00     41982.23
   64.22        3344.75           6817        8901.00     38818.50
   64.25        3345.00           6821        7793.00     33977.95
   64.28        3345.25           6825        6633.00     28911.73
   64.31        3345.50           6829        5469.00     23829.59
   64.34        3345.75           6832        4533.00     19744.04
   64.37        3346.00           6836        3449.00     15013.74
   64.40        3346.25           6840        2371.00     10310.95
   64.43        3346.50           6844        1236.00      5360.93
   64.46        3346.75           6847         566.00      2439.59
   64.50        3347.00           6851         210.00       887.56
   64.53        3347.25           6855         118.00       486.49
   64.56        3347.50           6859          99.00       403.67
   64.59        3347.75           6863          82.00       329.56
   64.62        3348.00           6866          60.00       233.65
   64.65        3348.25           6870          51.00       194.42
   64.68        3348.50           6874          49.00       185.70
   64.71        3348.75           6878          51.00       194.42
   64.74        3349.00           6881          45.00       168.27
   64.77        3349.25           6885          44.00       163.91
   64.81        3349.50           6889          47.00       176.98
   64.84        3349.75           6893          40.00       146.47
   64.87        3350.00           6896          53.00       203.14
   64.90        3350.25           6900          43.00       159.55
   64.93        3350.50           6904          44.00       163.91
   64.96        3350.75           6908          47.00       176.98
   64.99        3351.00           6912          42.00       155.19
HL scan finished at 01:05:39
end
