************************************************************
  HL Scan of (1) Internal mercury lamp
************************************************************
Integration time is 0.2294 seconds per sample
dh300319Manchester 53.47 2.23 2.804185pr1000
************************************************************
Dead Time -------------------------  3E-08 
Number of Cycles Used -------------  4 
Starting Wavelength (Angstroms) ---  3331 
Final Wavelength (Angstoms) -------  3351 
Wavelength Increment (Angstroms) --  .25 
Filter Wheel #1 Position ---------- (1) Ground quartz diffuser (ND=2.32)
Filter Wheel #2 Position ---------- 



************************************************************
HL scan start time = 00:59:49
Dark Count =  5.4 


Time (GMT)  Wavelength (Ang)  Step Number  Raw Counts  Counts/Second

   60.34        3331.00           6610          55.00       216.22
   60.56        3331.25           6614          44.00       168.27
   60.59        3331.50           6618          50.00       194.42
   60.62        3331.75           6622          46.00       176.98
   60.65        3332.00           6626          50.00       194.42
   60.68        3332.25           6629          47.00       181.34
   60.71        3332.50           6633          47.00       181.34
   60.75        3332.75           6637          41.00       155.19
   60.78        3333.00           6641          47.00       181.34
   60.81        3333.25           6644          45.00       172.63
   60.84        3333.50           6648          51.00       198.78
   60.87        3333.75           6652          45.00       172.63
   60.90        3334.00           6656          43.00       163.91
   60.93        3334.25           6659          51.00       198.78
   60.96        3334.50           6663          63.00       251.09
   60.99        3334.75           6667          63.00       251.09
   61.02        3335.00           6671          96.00       394.95
   61.05        3335.25           6674         105.00       434.18
   61.09        3335.50           6678         115.00       477.77
   61.12        3335.75           6682         131.00       547.52
   61.15        3336.00           6686         158.00       665.23
   61.18        3336.25           6689         187.00       791.65
   61.21        3336.50           6693         266.00      1136.05
   61.24        3336.75           6697         820.00      3551.38
   61.27        3337.00           6701        1882.00      8182.48
   61.30        3337.25           6704        2662.00     11584.67
   61.33        3337.50           6708        3722.00     16209.28
   61.37        3337.75           6712        4819.00     20996.66
   61.40        3338.00           6716        6006.00     26178.36
   61.43        3338.25           6719        6906.00     30108.26
   61.46        3338.50           6723        7974.00     34772.96
   61.49        3338.75           6727        9052.00     39482.66
   61.52        3339.00           6731       10265.00     44783.76
   61.55        3339.25           6734       11087.00     48377.05
   61.58        3339.50           6738       12079.00     52714.51
   61.61        3339.75           6742       13358.00     58308.54
   61.64        3340.00           6746       14312.00     62482.32
   61.68        3340.25           6750       15570.00     67987.71
   61.71        3340.50           6753       16448.00     71831.18
   61.74        3340.75           6757       17418.00     76078.41
   61.77        3341.00           6761       18615.00     81321.08
   61.80        3341.25           6765       19524.00     85303.46
   61.83        3341.50           6768       20007.00     87419.90
   61.86        3341.75           6772       20200.00     88265.68
   61.89        3342.00           6776       20018.00     87468.10
   61.92        3342.25           6780       19684.00     86004.53
   61.96        3342.50           6783       19030.00     83139.11
   61.99        3342.75           6787       17836.00     77909.00
   62.02        3343.00           6791       16730.00     73065.83
   62.05        3343.25           6795       15629.00     68245.95
   62.08        3343.50           6798       14656.00     63987.58
   62.11        3343.75           6802       13623.00     59467.82
   62.14        3344.00           6806       12472.00     54433.19
   62.17        3344.25           6810       11402.00     49754.24
   62.20        3344.50           6814       10188.00     44447.20
   62.24        3344.75           6817        9288.00     40513.90
   62.27        3345.00           6821        8276.00     36092.24
   62.30        3345.25           6825        7137.00     31117.10
   62.33        3345.50           6829        5948.00     25925.13
   62.36        3345.75           6832        5038.00     21952.55
   62.39        3346.00           6836        3941.00     17164.90
   62.42        3346.25           6840        2856.00     12430.97
   62.45        3346.50           6844        1699.00      7384.37
   62.48        3346.75           6847         891.00      3860.95
   62.52        3347.00           6851         291.00      1245.03
   62.55        3347.25           6855         142.00       595.48
   62.58        3347.50           6859         113.00       469.06
   62.61        3347.75           6863          95.00       390.59
   62.64        3348.00           6866          77.00       312.12
   62.67        3348.25           6870          61.00       242.37
   62.70        3348.50           6874          55.00       216.22
   62.73        3348.75           6878          41.00       155.19
   62.76        3349.00           6881          50.00       194.42
   62.79        3349.25           6885          44.00       168.27
   62.83        3349.50           6889          43.00       163.91
   62.86        3349.75           6893          48.00       185.70
   62.89        3350.00           6896          45.00       172.63
   62.92        3350.25           6900          49.00       190.06
   62.95        3350.50           6904          53.00       207.50
   62.98        3350.75           6908          50.00       194.42
   63.01        3351.00           6912          42.00       159.55
HL scan finished at 01:03:40
end
