************************************************************
  HL Scan of (1) Internal mercury lamp
************************************************************
Integration time is 0.2294 seconds per sample
dh300317Manchester 53.47 2.23 2.804185pr1000
************************************************************
Dead Time -------------------------  3E-08 
Number of Cycles Used -------------  4 
Starting Wavelength (Angstroms) ---  3331 
Final Wavelength (Angstoms) -------  3351 
Wavelength Increment (Angstroms) --  .25 
Filter Wheel #1 Position ---------- (1) Ground quartz diffuser (ND=2.32)
Filter Wheel #2 Position ---------- 



************************************************************
HL scan start time = 00:59:23
Dark Count =  8.2 


Time (GMT)  Wavelength (Ang)  Step Number  Raw Counts  Counts/Second

   59.91        3331.00           6610          55.00       204.01
   60.13        3331.25           6614          47.00       169.14
   60.17        3331.50           6618          55.00       204.01
   60.20        3331.75           6622          48.00       173.50
   60.23        3332.00           6626          56.00       208.37
   60.26        3332.25           6629          59.00       221.45
   60.29        3332.50           6633          55.00       204.01
   60.32        3332.75           6637          64.00       243.25
   60.35        3333.00           6641          54.00       199.65
   60.38        3333.25           6644          54.00       199.65
   60.41        3333.50           6648          55.00       204.01
   60.44        3333.75           6652          53.00       195.29
   60.47        3334.00           6656          53.00       195.29
   60.50        3334.25           6659          59.00       221.45
   60.54        3334.50           6663          86.00       339.15
   60.57        3334.75           6667          88.00       347.87
   60.60        3335.00           6671         117.00       474.29
   60.63        3335.25           6674         122.00       496.08
   60.66        3335.50           6678         142.00       583.27
   60.69        3335.75           6682         167.00       692.26
   60.72        3336.00           6686         210.00       879.71
   60.75        3336.25           6689         261.00      1102.04
   60.78        3336.50           6693         528.00      2266.07
   60.81        3336.75           6697        1383.00      5994.10
   60.84        3337.00           6701        2821.00     12266.07
   60.88        3337.25           6704        3918.00     17052.31
   60.91        3337.50           6708        5438.00     23686.40
   60.94        3337.75           6712        6927.00     30187.74
   60.97        3338.00           6716        8377.00     36521.25
   61.00        3338.25           6719        9479.00     41336.32
   61.03        3338.50           6723       10907.00     47577.89
   61.06        3338.75           6727       12254.00     53467.56
   61.09        3339.00           6731       13602.00     59363.70
   61.12        3339.25           6734       14785.00     64539.84
   61.15        3339.50           6738       16078.00     70199.12
   61.18        3339.75           6742       17758.00     77555.13
   61.22        3340.00           6746       19178.00     83775.25
   61.25        3340.25           6750       20562.00     89839.89
   61.28        3340.50           6753       21734.00     94977.31
   61.31        3340.75           6757       23142.00    101151.30
   61.34        3341.00           6761       24483.00    107033.60
   61.37        3341.25           6765       25502.00    111504.90
   61.40        3341.50           6768       25853.00    113045.30
   61.43        3341.75           6772       25818.00    112891.70
   61.46        3342.00           6776       25633.00    112079.80
   61.50        3342.25           6780       24697.00    107972.60
   61.53        3342.50           6783       23635.00    103313.60
   61.56        3342.75           6787       22274.00     97344.89
   61.59        3343.00           6791       21004.00     91777.19
   61.62        3343.25           6795       19339.00     84480.62
   61.65        3343.50           6798       18422.00     80463.41
   61.68        3343.75           6802       17027.00     74354.00
   61.71        3344.00           6806       15432.00     67371.43
   61.74        3344.25           6810       14035.00     61258.07
   61.77        3344.50           6814       12434.00     54254.76
   61.81        3344.75           6817       11450.00     49951.87
   61.84        3345.00           6821        9928.00     43298.58
   61.87        3345.25           6825        8563.00     37333.86
   61.90        3345.50           6829        7123.00     31043.72
   61.93        3345.75           6832        5919.00     25786.29
   61.96        3346.00           6836        4406.00     19181.92
   61.99        3346.25           6840        2881.00     12527.81
   62.02        3346.50           6844        1474.00      6390.94
   62.05        3346.75           6847         699.00      3011.61
   62.08        3347.00           6851         281.00      1189.23
   62.11        3347.25           6855         180.00       748.93
   62.14        3347.50           6859         131.00       535.32
   62.18        3347.75           6863         121.00       491.72
   62.21        3348.00           6866         101.00       404.54
   62.24        3348.25           6870          75.00       291.20
   62.27        3348.50           6874          57.00       212.73
   62.30        3348.75           6878          56.00       208.37
   62.33        3349.00           6881          57.00       212.73
   62.36        3349.25           6885          57.00       212.73
   62.39        3349.50           6889          51.00       186.57
   62.43        3349.75           6893          58.00       217.09
   62.46        3350.00           6896          50.00       182.22
   62.49        3350.25           6900          50.00       182.22
   62.52        3350.50           6904          55.00       204.01
   62.55        3350.75           6908          53.00       195.29
   62.58        3351.00           6912          49.00       177.86
HL scan finished at 01:03:15
end
