************************************************************
  HL Scan of (1) Internal mercury lamp
************************************************************
Integration time is 0.2294 seconds per sample
dh060419Manchester 53.47 2.23 2.804185pr1000
************************************************************
Dead Time -------------------------  3E-08 
Number of Cycles Used -------------  4 
Starting Wavelength (Angstroms) ---  3331 
Final Wavelength (Angstoms) -------  3351 
Wavelength Increment (Angstroms) --  .25 
Filter Wheel #1 Position ---------- (1) Ground quartz diffuser (ND=2.32)
Filter Wheel #2 Position ---------- 



************************************************************
HL scan start time = 00:58:00
Dark Count =  5.4 


Time (GMT)  Wavelength (Ang)  Step Number  Raw Counts  Counts/Second

   58.53        3331.00           6610          39.00       146.47
   58.75        3331.25           6614          42.00       159.55
   58.78        3331.50           6618          39.00       146.47
   58.82        3331.75           6622          42.00       159.55
   58.85        3332.00           6626          45.00       172.63
   58.88        3332.25           6629          40.00       150.83
   58.91        3332.50           6633          52.00       203.14
   58.94        3332.75           6637          47.00       181.34
   58.97        3333.00           6641          46.00       176.98
   59.00        3333.25           6644          38.00       142.11
   59.03        3333.50           6648          47.00       181.34
   59.06        3333.75           6652          51.00       198.78
   59.10        3334.00           6656          42.00       159.55
   59.13        3334.25           6659          44.00       168.27
   59.16        3334.50           6663          59.00       233.65
   59.19        3334.75           6667          73.00       294.68
   59.22        3335.00           6671          91.00       373.15
   59.25        3335.25           6674         105.00       434.18
   59.28        3335.50           6678         127.00       530.09
   59.31        3335.75           6682         136.00       569.32
   59.34        3336.00           6686         159.00       669.59
   59.37        3336.25           6689         188.00       796.01
   59.41        3336.50           6693         246.00      1048.86
   59.44        3336.75           6697         670.00      2897.37
   59.47        3337.00           6701        1627.00      7070.38
   59.50        3337.25           6704        2444.00     10633.73
   59.53        3337.50           6708        3690.00     16069.65
   59.56        3337.75           6712        4949.00     21564.08
   59.59        3338.00           6716        5979.00     26060.47
   59.62        3338.25           6719        6903.00     30095.16
   59.65        3338.50           6723        8074.00     35209.80
   59.68        3338.75           6727        9170.00     39998.27
   59.71        3339.00           6731       10312.00     44989.19
   59.75        3339.25           6734       11155.00     48674.34
   59.78        3339.50           6738       12456.00     54363.22
   59.81        3339.75           6742       13549.00     59144.08
   59.84        3340.00           6746       14629.00     63869.44
   59.87        3340.25           6750       15853.00     69226.46
   59.90        3340.50           6753       16689.00     72886.32
   59.93        3340.75           6757       17662.00     77146.96
   59.96        3341.00           6761       18903.00     82582.72
   59.99        3341.25           6765       19856.00     86758.21
   60.03        3341.50           6768       20233.00     88410.30
   60.06        3341.75           6772       20383.00     89067.68
   60.09        3342.00           6776       20222.00     88362.09
   60.12        3342.25           6780       19717.00     86149.12
   60.15        3342.50           6783       19008.00     83042.71
   60.18        3342.75           6787       17904.00     78206.81
   60.21        3343.00           6791       16775.00     73262.85
   60.24        3343.25           6795       15733.00     68701.18
   60.27        3343.50           6798       14896.00     65037.85
   60.31        3343.75           6802       13701.00     59809.05
   60.34        3344.00           6806       12520.00     54643.12
   60.37        3344.25           6810       11468.00     50042.82
   60.40        3344.50           6814       10309.00     44976.08
   60.43        3344.75           6817        9390.00     40959.63
   60.46        3345.00           6821        8253.00     35991.76
   60.49        3345.25           6825        7179.00     31300.52
   60.52        3345.50           6829        6034.00     26300.60
   60.55        3345.75           6832        5070.00     22092.23
   60.58        3346.00           6836        3940.00     17160.53
   60.62        3346.25           6840        2783.00     12112.51
   60.65        3346.50           6844        1745.00      7584.99
   60.68        3346.75           6847         949.00      4113.85
   60.71        3347.00           6851         289.00      1236.31
   60.74        3347.25           6855         156.00       656.51
   60.77        3347.50           6859         121.00       503.93
   60.80        3347.75           6863          89.00       364.43
   60.83        3348.00           6866          76.00       307.76
   60.86        3348.25           6870          58.00       229.30
   60.89        3348.50           6874          50.00       194.42
   60.93        3348.75           6878          41.00       155.19
   60.96        3349.00           6881          49.00       190.06
   60.99        3349.25           6885          45.00       172.63
   61.02        3349.50           6889          45.00       172.63
   61.05        3349.75           6893          51.00       198.78
   61.08        3350.00           6896          43.00       163.91
   61.11        3350.25           6900          50.00       194.42
   61.14        3350.50           6904          43.00       163.91
   61.17        3350.75           6908          41.00       155.19
   61.20        3351.00           6912          47.00       181.34
HL scan finished at 01:01:52
end
