************************************************************
  HL Scan of (1) Internal mercury lamp
************************************************************
Integration time is 0.2294 seconds per sample
dh130419Manchester 53.47 2.23 2.804185pr1000
************************************************************
Dead Time -------------------------  3E-08 
Number of Cycles Used -------------  4 
Starting Wavelength (Angstroms) ---  3331 
Final Wavelength (Angstoms) -------  3351 
Wavelength Increment (Angstroms) --  .25 
Filter Wheel #1 Position ---------- (1) Ground quartz diffuser (ND=2.32)
Filter Wheel #2 Position ---------- 



************************************************************
HL scan start time = 00:56:06
Dark Count =  6.7 


Time (GMT)  Wavelength (Ang)  Step Number  Raw Counts  Counts/Second

   56.62        3331.00           6610          42.00       153.88
   56.84        3331.25           6614          46.00       171.32
   56.87        3331.50           6618          59.00       227.99
   56.90        3331.75           6622          48.00       180.04
   56.93        3332.00           6626          48.00       180.04
   56.96        3332.25           6629          43.00       158.24
   56.99        3332.50           6633          46.00       171.32
   57.02        3332.75           6637          44.00       162.60
   57.06        3333.00           6641          50.00       188.75
   57.09        3333.25           6644          46.00       171.32
   57.12        3333.50           6648          43.00       158.24
   57.15        3333.75           6652          46.00       171.32
   57.18        3334.00           6656          42.00       153.88
   57.21        3334.25           6659          46.00       171.32
   57.24        3334.50           6663          60.00       232.35
   57.27        3334.75           6667          75.00       297.74
   57.30        3335.00           6671          94.00       380.56
   57.33        3335.25           6674         110.00       450.31
   57.36        3335.50           6678         138.00       572.37
   57.40        3335.75           6682         140.00       581.09
   57.43        3336.00           6686         177.00       742.39
   57.46        3336.25           6689         197.00       829.58
   57.49        3336.50           6693         394.00      1688.40
   57.52        3336.75           6697        1293.00      5608.18
   57.55        3337.00           6701        2400.00     10436.14
   57.58        3337.25           6704        3162.00     13760.26
   57.61        3337.50           6708        4326.00     18839.33
   57.64        3337.75           6712        5452.00     23754.06
   57.67        3338.00           6716        6638.00     28932.25
   57.70        3338.25           6719        7535.00     32849.71
   57.74        3338.50           6723        8643.00     37689.93
   57.77        3338.75           6727        9761.00     42575.27
   57.80        3339.00           6731       10869.00     47418.32
   57.83        3339.25           6734       11748.00     51261.42
   57.86        3339.50           6738       12961.00     56566.27
   57.89        3339.75           6742       14058.00     61365.26
   57.92        3340.00           6746       15023.00     65587.96
   57.95        3340.25           6750       16242.00     70923.65
   57.98        3340.50           6753       17049.00     74456.90
   58.02        3340.75           6757       18147.00     79265.44
   58.05        3341.00           6761       19176.00     83773.06
   58.08        3341.25           6765       20022.00     87479.94
   58.11        3341.50           6768       20297.00     88685.08
   58.14        3341.75           6772       20376.00     89031.29
   58.17        3342.00           6776       20090.00     87777.93
   58.20        3342.25           6780       19296.00     84298.80
   58.23        3342.50           6783       18492.00     80776.60
   58.26        3342.75           6787       17411.00     76042.06
   58.30        3343.00           6791       16269.00     71041.83
   58.33        3343.25           6795       15151.00     66148.13
   58.36        3343.50           6798       14235.00     62139.71
   58.39        3343.75           6802       13039.00     56907.44
   58.42        3344.00           6806       11934.00     52074.75
   58.45        3344.25           6810       10815.00     47182.26
   58.48        3344.50           6814        9658.00     42125.13
   58.51        3344.75           6817        8712.00     37991.40
   58.54        3345.00           6821        7735.00     33723.29
   58.58        3345.25           6825        6633.00     28910.42
   58.61        3345.50           6829        5409.00     23566.35
   58.64        3345.75           6832        4597.00     20022.05
   58.67        3346.00           6836        3388.00     14746.28
   58.70        3346.25           6840        2276.00      9895.27
   58.73        3346.50           6844        1145.00      4962.81
   58.76        3346.75           6847         505.00      2172.33
   58.79        3347.00           6851         199.00       838.29
   58.82        3347.25           6855         124.00       511.34
   58.86        3347.50           6859         109.00       445.95
   58.89        3347.75           6863          88.00       354.41
   58.92        3348.00           6866          62.00       241.07
   58.95        3348.25           6870          59.00       227.99
   58.98        3348.50           6874          46.00       171.32
   59.01        3348.75           6878          40.00       145.16
   59.04        3349.00           6881          54.00       206.19
   59.07        3349.25           6885          49.00       184.40
   59.10        3349.50           6889          45.00       166.96
   59.14        3349.75           6893          50.00       188.75
   59.17        3350.00           6896          47.00       175.68
   59.20        3350.25           6900          45.00       166.96
   59.23        3350.50           6904          46.00       171.32
   59.26        3350.75           6908          48.00       180.04
   59.29        3351.00           6912          51.00       193.11
HL scan finished at 00:59:57
end
