************************************************************
  HL Scan of (1) Internal mercury lamp
************************************************************
Integration time is 0.2294 seconds per sample
dh130418Manchester 53.47 2.23 2.804185pr1000
************************************************************
Dead Time -------------------------  3E-08 
Number of Cycles Used -------------  4 
Starting Wavelength (Angstroms) ---  3331 
Final Wavelength (Angstoms) -------  3351 
Wavelength Increment (Angstroms) --  .25 
Filter Wheel #1 Position ---------- (1) Ground quartz diffuser (ND=2.32)
Filter Wheel #2 Position ---------- 



************************************************************
HL scan start time = 00:55:31
Dark Count =  8.7 


Time (GMT)  Wavelength (Ang)  Step Number  Raw Counts  Counts/Second

   56.04        3331.00           6610          51.00       184.40
   56.26        3331.25           6614          61.00       227.99
   56.29        3331.50           6618          55.00       201.83
   56.32        3331.75           6622          58.00       214.91
   56.35        3332.00           6626          56.00       206.19
   56.38        3332.25           6629          50.00       180.04
   56.41        3332.50           6633          57.00       210.55
   56.45        3332.75           6637          50.00       180.04
   56.48        3333.00           6641          54.00       197.47
   56.51        3333.25           6644          53.00       193.11
   56.54        3333.50           6648          57.00       210.55
   56.57        3333.75           6652          60.00       223.63
   56.60        3334.00           6656          54.00       197.47
   56.63        3334.25           6659          55.00       201.83
   56.66        3334.50           6663          76.00       293.38
   56.69        3334.75           6667          96.00       380.56
   56.72        3335.00           6671         125.00       506.98
   56.75        3335.25           6674         134.00       546.22
   56.78        3335.50           6678         161.00       663.92
   56.81        3335.75           6682         189.00       785.98
   56.85        3336.00           6686         218.00       912.41
   56.88        3336.25           6689         254.00      1069.35
   56.91        3336.50           6693         390.00      1662.24
   56.94        3336.75           6697        1175.00      5084.91
   56.97        3337.00           6701        2641.00     11478.67
   57.00        3337.25           6704        3796.00     16517.78
   57.03        3337.50           6708        5337.00     23243.32
   57.06        3337.75           6712        6753.00     29425.70
   57.09        3338.00           6716        8241.00     35924.93
   57.12        3338.25           6719        9327.00     40669.90
   57.15        3338.50           6723       10831.00     47243.46
   57.18        3338.75           6727       12337.00     53828.35
   57.22        3339.00           6731       13717.00     59864.62
   57.25        3339.25           6734       14860.00     64865.87
   57.28        3339.50           6738       16270.00     71037.46
   57.31        3339.75           6742       17825.00     77846.38
   57.34        3340.00           6746       19312.00     84360.14
   57.37        3340.25           6750       20718.00     90521.43
   57.40        3340.50           6753       21785.00     95198.71
   57.43        3340.75           6757       23136.00    101122.80
   57.46        3341.00           6761       24539.00    107277.10
   57.50        3341.25           6765       25699.00    112367.30
   57.53        3341.50           6768       26216.00    114636.40
   57.56        3341.75           6772       26178.00    114469.60
   57.59        3342.00           6776       26062.00    113960.40
   57.62        3342.25           6780       25261.00    110445.10
   57.65        3342.50           6783       24304.00    106246.10
   57.68        3342.75           6787       22987.00    100469.30
   57.71        3343.00           6791       21594.00     94361.34
   57.74        3343.25           6795       20118.00     87891.87
   57.78        3343.50           6798       19065.00     83277.99
   57.81        3343.75           6802       17588.00     76808.44
   57.84        3344.00           6806       16043.00     70043.72
   57.87        3344.25           6810       14543.00     63478.66
   57.90        3344.50           6814       13120.00     57253.01
   57.93        3344.75           6817       12052.00     52582.01
   57.96        3345.00           6821       10507.00     45827.13
   57.99        3345.25           6825        8965.00     39088.10
   58.02        3345.50           6829        7603.00     33137.99
   58.05        3345.75           6832        6440.00     28058.92
   58.09        3346.00           6836        5103.00     22221.87
   58.12        3346.25           6840        3593.00     15632.00
   58.15        3346.50           6844        2105.00      9140.69
   58.18        3346.75           6847        1191.00      5154.68
   58.21        3347.00           6851         333.00      1413.75
   58.24        3347.25           6855         178.00       738.03
   58.27        3347.50           6859         135.00       550.58
   58.30        3347.75           6863          96.00       380.56
   58.33        3348.00           6866          82.00       319.53
   58.36        3348.25           6870          60.00       223.63
   58.39        3348.50           6874          58.00       214.91
   58.42        3348.75           6878          53.00       193.11
   58.46        3349.00           6881          58.00       214.91
   58.49        3349.25           6885          53.00       193.11
   58.52        3349.50           6889          50.00       180.04
   58.55        3349.75           6893          60.00       223.63
   58.58        3350.00           6896          53.00       193.11
   58.61        3350.25           6900          58.00       214.91
   58.64        3350.50           6904          54.00       197.47
   58.67        3350.75           6908          57.00       210.55
   58.70        3351.00           6912          55.00       201.83
HL scan finished at 00:59:22
end
