************************************************************
  HL Scan of (1) Internal mercury lamp
************************************************************
Integration time is 0.2294 seconds per sample
dh130417Manchester 53.47 2.23 2.750537pr1000
************************************************************
Dead Time -------------------------  3E-08 
Number of Cycles Used -------------  4 
Starting Wavelength (Angstroms) ---  3331 
Final Wavelength (Angstoms) -------  3351 
Wavelength Increment (Angstroms) --  .25 
Filter Wheel #1 Position ---------- (1) Ground quartz diffuser (ND=2.32)
Filter Wheel #2 Position ---------- 



************************************************************
HL scan start time = 00:55:29
Dark Count =  5.8 


Time (GMT)  Wavelength (Ang)  Step Number  Raw Counts  Counts/Second

   56.01        3331.00           6610          49.00       188.32
   56.24        3331.25           6614          58.00       227.55
   56.27        3331.50           6618          59.00       231.91
   56.30        3331.75           6622          61.00       240.63
   56.33        3332.00           6626          54.00       210.11
   56.36        3332.25           6629          54.00       210.11
   56.39        3332.50           6633          56.00       218.83
   56.42        3332.75           6637          49.00       188.32
   56.45        3333.00           6641          57.00       223.19
   56.48        3333.25           6644          55.00       214.47
   56.52        3333.50           6648          50.00       192.68
   56.55        3333.75           6652          54.00       210.11
   56.58        3334.00           6656          55.00       214.47
   56.61        3334.25           6659          54.00       210.11
   56.64        3334.50           6663          76.00       306.02
   56.67        3334.75           6667         110.00       454.23
   56.70        3335.00           6671         111.00       458.59
   56.73        3335.25           6674         128.00       532.70
   56.76        3335.50           6678         152.00       637.33
   56.79        3335.75           6682         185.00       781.19
   56.82        3336.00           6686         211.00       894.53
   56.86        3336.25           6689         277.00      1182.26
   56.89        3336.50           6693         599.00      2586.08
   56.92        3336.75           6697        1640.00      7125.32
   56.95        3337.00           6701        3087.00     13436.98
   56.98        3337.25           6704        4209.00     18332.66
   57.01        3337.50           6708        5693.00     24810.09
   57.04        3337.75           6712        7188.00     31338.08
   57.07        3338.00           6716        8614.00     37567.16
   57.10        3338.25           6719        9650.00     42094.10
   57.13        3338.50           6723       11080.00     48344.70
   57.16        3338.75           6727       12645.00     55188.08
   57.19        3339.00           6731       14085.00     61487.34
   57.23        3339.25           6734       15205.00     66388.41
   57.26        3339.50           6738       16583.00     72420.47
   57.29        3339.75           6742       17992.00     78590.48
   57.32        3340.00           6746       19356.00     84565.62
   57.35        3340.25           6750       20941.00     91511.56
   57.38        3340.50           6753       22035.00     96307.50
   57.41        3340.75           6757       23422.00    102389.90
   57.44        3341.00           6761       24699.00    107991.90
   57.47        3341.25           6765       25571.00    111818.20
   57.50        3341.50           6768       25830.00    112954.90
   57.53        3341.75           6772       26019.00    113784.40
   57.57        3342.00           6776       25650.00    112164.90
   57.60        3342.25           6780       24774.00    108320.90
   57.63        3342.50           6783       23769.00    103911.90
   57.66        3342.75           6787       22231.00     97166.88
   57.69        3343.00           6791       21154.00     92445.22
   57.72        3343.25           6795       19419.00     84841.64
   57.75        3343.50           6798       18344.00     80132.25
   57.78        3343.75           6802       16847.00     73576.35
   57.81        3344.00           6806       15413.00     67298.78
   57.84        3344.25           6810       13926.00     60791.68
   57.88        3344.50           6814       12482.00     54475.18
   57.91        3344.75           6817       11503.00     50194.10
   57.94        3345.00           6821        9975.00     43514.49
   57.97        3345.25           6825        8531.00     37204.54
   58.00        3345.50           6829        6948.00     30289.94
   58.03        3345.75           6832        5802.00     25285.96
   58.06        3346.00           6836        4322.00     18825.80
   58.09        3346.25           6840        2868.00     12481.57
   58.12        3346.50           6844        1574.00      6837.50
   58.15        3346.75           6847         777.00      3362.15
   58.18        3347.00           6851         271.00      1156.10
   58.21        3347.25           6855         174.00       733.23
   58.25        3347.50           6859         126.00       523.98
   58.28        3347.75           6863         110.00       454.23
   58.31        3348.00           6866          79.00       319.10
   58.34        3348.25           6870          68.00       271.14
   58.37        3348.50           6874          58.00       227.55
   58.40        3348.75           6878          58.00       227.55
   58.43        3349.00           6881          53.00       205.76
   58.46        3349.25           6885          56.00       218.83
   58.49        3349.50           6889          59.00       231.91
   58.52        3349.75           6893          55.00       214.47
   58.55        3350.00           6896          57.00       223.19
   58.58        3350.25           6900          57.00       223.19
   58.62        3350.50           6904          54.00       210.11
   58.65        3350.75           6908          49.00       188.32
   58.68        3351.00           6912          55.00       214.47
HL scan finished at 00:59:20
end
