************************************************************
  HL Scan of (1) Internal mercury lamp
************************************************************
Integration time is 0.2294 seconds per sample
dh200419Manchester 53.47 2.23 2.804185pr1000
************************************************************
Dead Time -------------------------  3E-08 
Number of Cycles Used -------------  4 
Starting Wavelength (Angstroms) ---  3331 
Final Wavelength (Angstoms) -------  3351 
Wavelength Increment (Angstroms) --  .25 
Filter Wheel #1 Position ---------- (1) Ground quartz diffuser (ND=2.32)
Filter Wheel #2 Position ---------- 



************************************************************
HL scan start time = 00:54:34
Dark Count =  8.7 


Time (GMT)  Wavelength (Ang)  Step Number  Raw Counts  Counts/Second

   55.09        3331.00           6610          45.00       158.24
   55.31        3331.25           6614          38.00       127.72
   55.34        3331.50           6618          42.00       145.16
   55.37        3331.75           6622          48.00       171.32
   55.40        3332.00           6626          42.00       145.16
   55.44        3332.25           6629          46.00       162.60
   55.47        3332.50           6633          47.00       166.96
   55.50        3332.75           6637          52.00       188.75
   55.53        3333.00           6641          41.00       140.80
   55.56        3333.25           6644          49.00       175.68
   55.59        3333.50           6648          44.00       153.88
   55.62        3333.75           6652          42.00       145.16
   55.65        3334.00           6656          54.00       197.47
   55.68        3334.25           6659          54.00       197.47
   55.72        3334.50           6663          68.00       258.50
   55.75        3334.75           6667          68.00       258.50
   55.78        3335.00           6671         104.00       415.44
   55.81        3335.25           6674         102.00       406.72
   55.84        3335.50           6678         123.00       498.26
   55.87        3335.75           6682         140.00       572.37
   55.90        3336.00           6686         160.00       659.56
   55.93        3336.25           6689         200.00       833.94
   55.96        3336.50           6693         276.00      1165.25
   56.00        3336.75           6697         814.00      3510.83
   56.03        3337.00           6701        1967.00      8538.81
   56.06        3337.25           6704        2823.00     12272.61
   56.09        3337.50           6708        3957.00     17220.32
   56.12        3337.75           6712        5003.00     21785.38
   56.15        3338.00           6716        6235.00     27163.80
   56.18        3338.25           6719        6978.00     30408.29
   56.21        3338.50           6723        8164.00     35588.54
   56.24        3338.75           6727        9366.00     40840.33
   56.28        3339.00           6731       10357.00     45171.46
   56.31        3339.25           6734       11348.00     49503.72
   56.34        3339.50           6738       12408.00     54138.87
   56.37        3339.75           6742       13613.00     59409.63
   56.40        3340.00           6746       14863.00     64878.99
   56.43        3340.25           6750       15923.00     69518.43
   56.46        3340.50           6753       16767.00     73213.38
   56.49        3340.75           6757       17813.00     77793.82
   56.52        3341.00           6761       18920.00     82642.75
   56.56        3341.25           6765       19898.00     86927.80
   56.59        3341.50           6768       20173.00     88132.90
   56.62        3341.75           6772       20214.00     88312.57
   56.65        3342.00           6776       20136.00     87970.75
   56.68        3342.25           6780       19515.00     85249.57
   56.71        3342.50           6783       18832.00     82257.23
   56.74        3342.75           6787       17771.00     77609.88
   56.77        3343.00           6791       16504.00     72061.91
   56.80        3343.25           6795       15548.00     67876.96
   56.84        3343.50           6798       14575.00     63618.69
   56.87        3343.75           6802       13474.00     58801.55
   56.90        3344.00           6806       12338.00     53832.73
   56.93        3344.25           6810       11248.00     49066.51
   56.96        3344.50           6814       10061.00     43877.68
   56.99        3344.75           6817        9258.00     40368.39
   57.02        3345.00           6821        8170.00     35614.76
   57.05        3345.25           6825        6962.00     30338.41
   57.08        3345.50           6829        5842.00     25447.93
   57.12        3345.75           6832        4926.00     21449.28
   57.15        3346.00           6836        3748.00     16308.33
   57.18        3346.25           6840        2698.00     11727.32
   57.21        3346.50           6844        1668.00      7234.79
   57.24        3346.75           6847         819.00      3532.63
   57.27        3347.00           6851         267.00      1126.02
   57.30        3347.25           6855         142.00       581.09
   57.33        3347.50           6859         103.00       411.08
   57.36        3347.75           6863          78.00       302.10
   57.39        3348.00           6866          75.00       289.02
   57.43        3348.25           6870          58.00       214.91
   57.46        3348.50           6874          52.00       188.75
   57.49        3348.75           6878          51.00       184.40
   57.52        3349.00           6881          47.00       166.96
   57.55        3349.25           6885          38.00       127.72
   57.58        3349.50           6889          48.00       171.32
   57.61        3349.75           6893          44.00       153.88
   57.64        3350.00           6896          55.00       201.83
   57.67        3350.25           6900          44.00       153.88
   57.70        3350.50           6904          43.00       149.52
   57.74        3350.75           6908          46.00       162.60
   57.77        3351.00           6912          43.00       149.52
HL scan finished at 00:58:26
end
