************************************************************
  HL Scan of (1) Internal mercury lamp
************************************************************
Integration time is 0.2294 seconds per sample
dh200417Manchester 53.47 2.23 2.804185pr1000
************************************************************
Dead Time -------------------------  3E-08 
Number of Cycles Used -------------  4 
Starting Wavelength (Angstroms) ---  3331 
Final Wavelength (Angstoms) -------  3351 
Wavelength Increment (Angstroms) --  .25 
Filter Wheel #1 Position ---------- (1) Ground quartz diffuser (ND=2.32)
Filter Wheel #2 Position ---------- 



************************************************************
HL scan start time = 00:53:56
Dark Count =  4.9 


Time (GMT)  Wavelength (Ang)  Step Number  Raw Counts  Counts/Second

   54.46        3331.00           6610          55.00       218.40
   54.68        3331.25           6614          54.00       214.04
   54.71        3331.50           6618          57.00       227.12
   54.74        3331.75           6622          55.00       218.40
   54.77        3332.00           6626          59.00       235.83
   54.81        3332.25           6629          49.00       192.24
   54.84        3332.50           6633          55.00       218.40
   54.87        3332.75           6637          57.00       227.12
   54.90        3333.00           6641          50.00       196.60
   54.93        3333.25           6644          45.00       174.80
   54.96        3333.50           6648          58.00       231.48
   54.99        3333.75           6652          50.00       196.60
   55.02        3334.00           6656          56.00       222.76
   55.05        3334.25           6659          56.00       222.76
   55.08        3334.50           6663          77.00       314.30
   55.11        3334.75           6667          91.00       375.33
   55.14        3335.00           6671         118.00       493.03
   55.17        3335.25           6674         138.00       580.22
   55.21        3335.50           6678         159.00       671.77
   55.24        3335.75           6682         178.00       754.59
   55.27        3336.00           6686         212.00       902.81
   55.30        3336.25           6689         263.00      1125.15
   55.33        3336.50           6693         495.00      2136.58
   55.36        3336.75           6697        1438.00      6248.34
   55.39        3337.00           6701        2876.00     12520.40
   55.42        3337.25           6704        3971.00     17297.99
   55.45        3337.50           6708        5534.00     24119.89
   55.48        3337.75           6712        6969.00     30385.58
   55.51        3338.00           6716        8458.00     36889.54
   55.55        3338.25           6719        9516.00     41512.43
   55.58        3338.50           6723       10941.00     47740.96
   55.61        3338.75           6727       12442.00     54304.18
   55.64        3339.00           6731       13891.00     60642.48
   55.67        3339.25           6734       15034.00     65643.97
   55.70        3339.50           6738       16558.00     72314.96
   55.73        3339.75           6742       18259.00     79763.88
   55.76        3340.00           6746       19625.00     85748.19
   55.79        3340.25           6750       20992.00     91739.06
   55.82        3340.50           6753       22212.00     97087.51
   55.86        3340.75           6757       23675.00    103503.50
   55.89        3341.00           6761       24964.00    109158.60
   55.92        3341.25           6765       25961.00    113533.80
   55.95        3341.50           6768       26347.00    115228.10
   55.98        3341.75           6772       26390.00    115416.80
   56.01        3342.00           6776       26243.00    114771.60
   56.04        3342.25           6780       25286.00    110571.50
   56.07        3342.50           6783       24269.00    106109.30
   56.10        3342.75           6787       22705.00     99249.30
   56.14        3343.00           6791       21515.00     94031.66
   56.17        3343.25           6795       19876.00     86848.04
   56.20        3343.50           6798       18910.00     82615.58
   56.23        3343.75           6802       17412.00     76054.33
   56.26        3344.00           6806       15819.00     69079.81
   56.29        3344.25           6810       14406.00     62895.81
   56.32        3344.50           6814       12885.00     56241.73
   56.35        3344.75           6817       11830.00     51627.85
   56.39        3345.00           6821       10205.00     44523.69
   56.42        3345.25           6825        8753.00     38178.40
   56.45        3345.50           6829        7324.00     31935.99
   56.48        3345.75           6832        6102.00     26599.69
   56.51        3346.00           6836        4689.00     20431.44
   56.54        3346.25           6840        3148.00     13707.03
   56.57        3346.50           6844        1772.00      7704.92
   56.60        3346.75           6847         867.00      3758.49
   56.63        3347.00           6851         304.00      1303.89
   56.66        3347.25           6855         178.00       754.59
   56.69        3347.50           6859         122.00       510.47
   56.72        3347.75           6863         104.00       432.00
   56.76        3348.00           6866          84.00       344.82
   56.79        3348.25           6870          70.00       283.79
   56.82        3348.50           6874          61.00       244.55
   56.85        3348.75           6878          57.00       227.12
   56.88        3349.00           6881          60.00       240.19
   56.91        3349.25           6885          53.00       209.68
   56.94        3349.50           6889          56.00       222.76
   56.97        3349.75           6893          56.00       222.76
   57.00        3350.00           6896          62.00       248.91
   57.04        3350.25           6900          56.00       222.76
   57.07        3350.50           6904          52.00       205.32
   57.10        3350.75           6908          61.00       244.55
   57.13        3351.00           6912          55.00       218.40
HL scan finished at 00:57:47
end
