************************************************************
  HL Scan of (1) Internal mercury lamp
************************************************************
Integration time is 0.2294 seconds per sample
dh270418Manchester 53.47 2.23 2.804185pr1000
************************************************************
Dead Time -------------------------  3E-08 
Number of Cycles Used -------------  4 
Starting Wavelength (Angstroms) ---  3331 
Final Wavelength (Angstoms) -------  3351 
Wavelength Increment (Angstroms) --  .25 
Filter Wheel #1 Position ---------- (1) Ground quartz diffuser (ND=2.32)
Filter Wheel #2 Position ---------- 



************************************************************
HL scan start time = 00:52:56
Dark Count =  6.3 


Time (GMT)  Wavelength (Ang)  Step Number  Raw Counts  Counts/Second

   53.46        3331.00           6610          58.00       225.37
   53.69        3331.25           6614          51.00       194.86
   53.72        3331.50           6618          49.00       186.14
   53.75        3331.75           6622          53.00       203.58
   53.78        3332.00           6626          51.00       194.86
   53.81        3332.25           6629          57.00       221.01
   53.84        3332.50           6633          44.00       164.34
   53.87        3332.75           6637          52.00       199.22
   53.90        3333.00           6641          53.00       203.58
   53.93        3333.25           6644          57.00       221.01
   53.96        3333.50           6648          50.00       190.50
   53.99        3333.75           6652          47.00       177.42
   54.02        3334.00           6656          56.00       216.65
   54.05        3334.25           6659          56.00       216.65
   54.09        3334.50           6663          70.00       277.68
   54.12        3334.75           6667          80.00       321.28
   54.15        3335.00           6671         103.00       421.54
   54.18        3335.25           6674         133.00       552.32
   54.21        3335.50           6678         156.00       652.58
   54.24        3335.75           6682         170.00       713.62
   54.27        3336.00           6686         201.00       848.76
   54.30        3336.25           6689         246.00      1044.93
   54.33        3336.50           6693         433.00      1860.17
   54.36        3336.75           6697        1473.00      6394.86
   54.39        3337.00           6701        2812.00     12235.09
   54.43        3337.25           6704        3917.00     17056.24
   54.46        3337.50           6708        5343.00     23279.99
   54.49        3337.75           6712        6728.00     29327.02
   54.52        3338.00           6716        8224.00     35861.15
   54.55        3338.25           6719        9310.00     40606.11
   54.58        3338.50           6723       10837.00     47280.19
   54.61        3338.75           6727       12257.00     53488.99
   54.64        3339.00           6731       13661.00     59630.12
   54.67        3339.25           6734       14710.00     64219.95
   54.70        3339.50           6738       16229.00     70868.48
   54.74        3339.75           6742       17825.00     77856.88
   54.77        3340.00           6746       19308.00     84353.12
   54.80        3340.25           6750       20534.00     89725.50
   54.83        3340.50           6753       21777.00     95174.15
   54.86        3340.75           6757       23155.00    101216.70
   54.89        3341.00           6761       24577.00    107454.40
   54.92        3341.25           6765       25806.00    112847.40
   54.95        3341.50           6768       26177.00    114475.70
   54.98        3341.75           6772       26125.00    114247.50
   55.01        3342.00           6776       26109.00    114177.30
   55.05        3342.25           6780       25306.00    110653.10
   55.08        3342.50           6783       24028.00    105045.90
   55.11        3342.75           6787       22682.00     99142.30
   55.14        3343.00           6791       21274.00     92969.05
   55.17        3343.25           6795       19858.00     86763.02
   55.20        3343.50           6798       18716.00     81759.58
   55.23        3343.75           6802       17051.00     74467.40
   55.26        3344.00           6806       15651.00     68338.31
   55.29        3344.25           6810       14155.00     61791.43
   55.32        3344.50           6814       12883.00     56226.85
   55.35        3344.75           6817       11797.00     51477.44
   55.39        3345.00           6821       10319.00     45015.85
   55.42        3345.25           6825        8903.00     38827.68
   55.45        3345.50           6829        7253.00     31619.78
   55.48        3345.75           6832        6249.00     27235.41
   55.51        3346.00           6836        4607.00     20067.44
   55.54        3346.25           6840        3234.00     14076.13
   55.57        3346.50           6844        1772.00      7698.81
   55.60        3346.75           6847         832.00      3599.78
   55.63        3347.00           6851         274.00      1167.00
   55.66        3347.25           6855         175.00       735.41
   55.69        3347.50           6859         127.00       526.16
   55.72        3347.75           6863         114.00       469.49
   55.75        3348.00           6866          89.00       360.51
   55.79        3348.25           6870          70.00       277.68
   55.82        3348.50           6874          66.00       260.25
   55.85        3348.75           6878          58.00       225.37
   55.88        3349.00           6881          59.00       229.73
   55.91        3349.25           6885          60.00       234.09
   55.94        3349.50           6889          51.00       194.86
   55.97        3349.75           6893          51.00       194.86
   56.00        3350.00           6896          53.00       203.58
   56.03        3350.25           6900          56.00       216.65
   56.06        3350.50           6904          53.00       203.58
   56.09        3350.75           6908          56.00       216.65
   56.12        3351.00           6912          57.00       221.01
HL scan finished at 00:56:47
end
