************************************************************
  HL Scan of (1) Internal mercury lamp
************************************************************
Integration time is 0.2294 seconds per sample
dh270417Manchester 53.47 2.23 2.750537pr1000
************************************************************
Dead Time -------------------------  3E-08 
Number of Cycles Used -------------  4 
Starting Wavelength (Angstroms) ---  3331 
Final Wavelength (Angstoms) -------  3351 
Wavelength Increment (Angstroms) --  .25 
Filter Wheel #1 Position ---------- (1) Ground quartz diffuser (ND=2.32)
Filter Wheel #2 Position ---------- 



************************************************************
HL scan start time = 00:56:59
Dark Count =  6.3 


Time (GMT)  Wavelength (Ang)  Step Number  Raw Counts  Counts/Second

   57.51        3331.00           6610          57.00       221.01
   57.74        3331.25           6614          46.00       173.06
   57.77        3331.50           6618          56.00       216.65
   57.80        3331.75           6622          53.00       203.58
   57.83        3332.00           6626          52.00       199.22
   57.86        3332.25           6629          52.00       199.22
   57.89        3332.50           6633          57.00       221.01
   57.92        3332.75           6637          57.00       221.01
   57.95        3333.00           6641          55.00       212.29
   57.98        3333.25           6644          61.00       238.45
   58.01        3333.50           6648          54.00       207.94
   58.04        3333.75           6652          51.00       194.86
   58.08        3334.00           6656          49.00       186.14
   58.11        3334.25           6659          63.00       247.17
   58.14        3334.50           6663          78.00       312.56
   58.17        3334.75           6667          91.00       369.23
   58.20        3335.00           6671         114.00       469.49
   58.23        3335.25           6674         149.00       622.07
   58.26        3335.50           6678         158.00       661.30
   58.29        3335.75           6682         194.00       818.24
   58.32        3336.00           6686         220.00       931.59
   58.36        3336.25           6689         289.00      1232.39
   58.39        3336.50           6693         534.00      2300.51
   58.42        3336.75           6697        1499.00      6508.25
   58.45        3337.00           6701        2915.00     12684.43
   58.48        3337.25           6704        4183.00     18217.02
   58.51        3337.50           6708        5602.00     24410.64
   58.54        3337.75           6712        7284.00     31755.17
   58.57        3338.00           6716        8733.00     38084.90
   58.60        3338.25           6719        9836.00     42904.80
   58.64        3338.50           6723       11394.00     49715.33
   58.67        3338.75           6727       12869.00     56165.62
   58.70        3339.00           6731       14262.00     62259.60
   58.73        3339.25           6734       15577.00     68014.41
   58.76        3339.50           6738       16975.00     74134.61
   58.79        3339.75           6742       18450.00     80594.37
   58.82        3340.00           6746       19966.00     87236.28
   58.85        3340.25           6750       21656.00     94643.68
   58.88        3340.50           6753       22506.00     98370.52
   58.91        3340.75           6757       23959.00    104743.20
   58.94        3341.00           6761       25334.00    110776.00
   58.98        3341.25           6765       26391.00    115415.10
   59.01        3341.50           6768       26824.00    117315.80
   59.04        3341.75           6772       26910.00    117693.40
   59.07        3342.00           6776       26490.00    115849.60
   59.10        3342.25           6780       25766.00    112671.90
   59.13        3342.50           6783       24562.00    107388.60
   59.16        3342.75           6787       23175.00    101304.40
   59.19        3343.00           6791       21759.00     95095.24
   59.22        3343.25           6795       20259.00     88520.28
   59.25        3343.50           6798       19046.00     83205.25
   59.29        3343.75           6802       17544.00     76626.25
   59.32        3344.00           6806       15856.00     69235.65
   59.35        3344.25           6810       14408.00     62898.44
   59.38        3344.50           6814       12968.00     56598.64
   59.41        3344.75           6817       11803.00     51503.67
   59.44        3345.00           6821       10319.00     45015.85
   59.47        3345.25           6825        8872.00     38692.23
   59.50        3345.50           6829        7434.00     32410.31
   59.53        3345.75           6832        6321.00     27549.79
   59.56        3346.00           6836        4751.00     20695.93
   59.60        3346.25           6840        3235.00     14080.49
   59.63        3346.50           6844        1859.00      8078.24
   59.66        3346.75           6847         973.00      4214.57
   59.69        3347.00           6851         303.00      1293.42
   59.72        3347.25           6855         167.00       700.54
   59.75        3347.50           6859         134.00       556.68
   59.78        3347.75           6863         123.00       508.73
   59.81        3348.00           6866          90.00       364.87
   59.84        3348.25           6870          74.00       295.12
   59.87        3348.50           6874          58.00       225.37
   59.90        3348.75           6878          51.00       194.86
   59.93        3349.00           6881          55.00       212.29
   59.96        3349.25           6885          55.00       212.29
   59.99        3349.50           6889          58.00       225.37
   60.03        3349.75           6893          57.00       221.01
   60.06        3350.00           6896          55.00       212.29
   60.09        3350.25           6900          55.00       212.29
   60.12        3350.50           6904          52.00       199.22
   60.15        3350.75           6908          57.00       221.01
   60.18        3351.00           6912          58.00       225.37
HL scan finished at 01:00:50
end
