************************************************************
  HL Scan of (1) Internal mercury lamp
************************************************************
Integration time is 0.2294 seconds per sample
dh200418Manchester 53.47 2.23 2.804185pr1000
************************************************************
Dead Time -------------------------  3E-08 
Number of Cycles Used -------------  4 
Starting Wavelength (Angstroms) ---  3331 
Final Wavelength (Angstoms) -------  3351 
Wavelength Increment (Angstroms) --  .25 
Filter Wheel #1 Position ---------- (1) Ground quartz diffuser (ND=2.32)
Filter Wheel #2 Position ---------- 



************************************************************
HL scan start time = 00:54:06
Dark Count =  6.8 


Time (GMT)  Wavelength (Ang)  Step Number  Raw Counts  Counts/Second

   54.63        3331.00           6610          50.00       188.32
   54.85        3331.25           6614          50.00       188.32
   54.88        3331.50           6618          55.00       210.11
   54.91        3331.75           6622          48.00       179.60
   54.95        3332.00           6626          59.00       227.55
   54.98        3332.25           6629          57.00       218.83
   55.01        3332.50           6633          51.00       192.68
   55.04        3332.75           6637          52.00       197.04
   55.07        3333.00           6641          53.00       201.40
   55.10        3333.25           6644          50.00       188.32
   55.13        3333.50           6648          49.00       183.96
   55.16        3333.75           6652          52.00       197.04
   55.19        3334.00           6656          52.00       197.04
   55.22        3334.25           6659          66.00       258.07
   55.25        3334.50           6663          80.00       319.10
   55.29        3334.75           6667          93.00       375.77
   55.32        3335.00           6671         115.00       471.67
   55.35        3335.25           6674         128.00       528.34
   55.38        3335.50           6678         150.00       624.25
   55.41        3335.75           6682         172.00       720.16
   55.44        3336.00           6686         202.00       850.94
   55.47        3336.25           6689         242.00      1025.31
   55.50        3336.50           6693         459.00      1971.35
   55.53        3336.75           6697        1371.00      5947.88
   55.56        3337.00           6701        2733.00     11888.28
   55.59        3337.25           6704        3955.00     17219.88
   55.62        3337.50           6708        5482.00     23884.59
   55.66        3337.75           6712        6949.00     30289.94
   55.69        3338.00           6716        8344.00     36383.20
   55.72        3338.25           6719        9387.00     40940.40
   55.75        3338.50           6723       10847.00     47321.71
   55.78        3338.75           6727       12309.00     53714.22
   55.81        3339.00           6731       13729.00     59925.42
   55.84        3339.25           6734       14834.00     64760.40
   55.87        3339.50           6738       16396.00     71597.38
   55.90        3339.75           6742       17971.00     78494.13
   55.94        3340.00           6746       19539.00     85363.06
   55.97        3340.25           6750       20729.00     90577.97
   56.00        3340.50           6753       21691.00     94794.92
   56.03        3340.75           6757       23130.00    101104.80
   56.06        3341.00           6761       24360.00    106500.10
   56.09        3341.25           6765       25459.00    111322.30
   56.12        3341.50           6768       25913.00    113314.80
   56.15        3341.75           6772       25912.00    113310.40
   56.18        3342.00           6776       25699.00    112375.60
   56.22        3342.25           6780       24879.00    108777.20
   56.25        3342.50           6783       23920.00    104569.90
   56.28        3342.75           6787       22314.00     97526.42
   56.31        3343.00           6791       20837.00     91051.33
   56.34        3343.25           6795       19424.00     84859.18
   56.37        3343.50           6798       18361.00     80202.33
   56.40        3343.75           6802       16935.00     73957.29
   56.43        3344.00           6806       15433.00     67381.93
   56.46        3344.25           6810       13967.00     60966.69
   56.49        3344.50           6814       12561.00     54816.32
   56.53        3344.75           6817       11511.00     50224.71
   56.56        3345.00           6821       10217.00     44567.83
   56.59        3345.25           6825        8656.00     37746.30
   56.62        3345.50           6829        7078.00     30853.31
   56.65        3345.75           6832        5951.00     25932.11
   56.68        3346.00           6836        4527.00     19716.11
   56.71        3346.25           6840        3204.00     13943.06
   56.74        3346.50           6844        1834.00      7967.03
   56.77        3346.75           6847         936.00      4051.06
   56.80        3347.00           6851         330.00      1408.95
   56.84        3347.25           6855         165.00       689.64
   56.87        3347.50           6859         120.00       493.47
   56.90        3347.75           6863         107.00       436.80
   56.93        3348.00           6866          89.00       358.33
   56.96        3348.25           6870          69.00       271.14
   56.99        3348.50           6874          58.00       223.19
   57.02        3348.75           6878          61.00       236.27
   57.05        3349.00           6881          55.00       210.11
   57.08        3349.25           6885          59.00       227.55
   57.11        3349.50           6889          50.00       188.32
   57.14        3349.75           6893          62.00       240.63
   57.17        3350.00           6896          51.00       192.68
   57.20        3350.25           6900          55.00       210.11
   57.24        3350.50           6904          52.00       197.04
   57.27        3350.75           6908          52.00       197.04
   57.30        3351.00           6912          57.00       218.83
HL scan finished at 00:57:57
end
