************************************************************
  HL Scan of (1) Internal mercury lamp
************************************************************
Integration time is 0.2294 seconds per sample
dh040518Manchester 53.47 2.23 2.804185pr1000
************************************************************
Dead Time -------------------------  3E-08 
Number of Cycles Used -------------  4 
Starting Wavelength (Angstroms) ---  3331 
Final Wavelength (Angstoms) -------  3351 
Wavelength Increment (Angstroms) --  .25 
Filter Wheel #1 Position ---------- (1) Ground quartz diffuser (ND=2.32)
Filter Wheel #2 Position ---------- 



************************************************************
HL scan start time = 00:51:51
Dark Count =  6.8 


Time (GMT)  Wavelength (Ang)  Step Number  Raw Counts  Counts/Second

   52.38        3331.00           6610          43.00       157.80
   52.60        3331.25           6614          52.00       197.04
   52.63        3331.50           6618          48.00       179.60
   52.66        3331.75           6622          50.00       188.32
   52.70        3332.00           6626          50.00       188.32
   52.73        3332.25           6629          57.00       218.83
   52.76        3332.50           6633          52.00       197.04
   52.79        3332.75           6637          54.00       205.76
   52.82        3333.00           6641          58.00       223.19
   52.85        3333.25           6644          58.00       223.19
   52.88        3333.50           6648          45.00       166.52
   52.91        3333.75           6652          63.00       244.99
   52.94        3334.00           6656          53.00       201.40
   52.98        3334.25           6659          54.00       205.76
   53.01        3334.50           6663          68.00       266.79
   53.04        3334.75           6667          76.00       301.66
   53.07        3335.00           6671         100.00       406.28
   53.10        3335.25           6674         124.00       510.91
   53.13        3335.50           6678         145.00       602.45
   53.16        3335.75           6682         156.00       650.41
   53.19        3336.00           6686         274.00      1164.82
   53.22        3336.25           6689         218.00       920.69
   53.25        3336.50           6693         312.00      1330.48
   53.28        3336.75           6697         926.00      4007.46
   53.31        3337.00           6701        2280.00      9912.28
   53.34        3337.25           6704        3354.00     14597.50
   53.38        3337.50           6708        4665.00     20318.40
   53.41        3337.75           6712        6184.00     26949.42
   53.44        3338.00           6716        7550.00     32914.79
   53.47        3338.25           6719        8621.00     37593.38
   53.50        3338.50           6723       10182.00     44414.85
   53.53        3338.75           6727       11677.00     50950.54
   53.56        3339.00           6731       13121.00     57265.69
   53.59        3339.25           6734       14243.00     62174.28
   53.62        3339.50           6738       15679.00     68458.68
   53.66        3339.75           6742       17111.00     74727.94
   53.69        3340.00           6746       18444.00     80565.90
   53.72        3340.25           6750       20009.00     87422.52
   53.75        3340.50           6753       21267.00     92936.18
   53.78        3340.75           6757       22437.00     98065.76
   53.81        3341.00           6761       23727.00    103723.30
   53.84        3341.25           6765       25073.00    109628.50
   53.87        3341.50           6768       25664.00    112222.00
   53.90        3341.75           6772       25910.00    113301.60
   53.93        3342.00           6776       25727.00    112498.50
   53.97        3342.25           6780       24943.00    109058.10
   54.00        3342.50           6783       24180.00    105710.50
   54.03        3342.75           6787       22788.00     99604.94
   54.06        3343.00           6791       21331.00     93216.72
   54.09        3343.25           6795       20100.00     87821.31
   54.12        3343.50           6798       19033.00     83146.11
   54.15        3343.75           6802       17603.00     76882.44
   54.18        3344.00           6806       16116.00     70371.60
   54.21        3344.25           6810       14537.00     63460.73
   54.24        3344.50           6814       13242.00     57794.98
   54.28        3344.75           6817       12143.00     52988.27
   54.31        3345.00           6821       10727.00     46797.13
   54.34        3345.25           6825        9242.00     40306.78
   54.37        3345.50           6829        7707.00     33600.55
   54.40        3345.75           6832        6560.00     28591.21
   54.43        3346.00           6836        5304.00     23107.56
   54.46        3346.25           6840        3823.00     16643.88
   54.49        3346.50           6844        2420.00     10522.94
   54.52        3346.75           6847        1393.00      6043.82
   54.55        3347.00           6851         445.00      1910.31
   54.58        3347.25           6855         210.00       885.81
   54.62        3347.50           6859         143.00       593.73
   54.65        3347.75           6863         126.00       519.62
   54.68        3348.00           6866         102.00       415.00
   54.71        3348.25           6870          87.00       349.61
   54.74        3348.50           6874          63.00       244.99
   54.77        3348.75           6878          60.00       231.91
   54.80        3349.00           6881          62.00       240.63
   54.83        3349.25           6885          59.00       227.55
   54.86        3349.50           6889          58.00       223.19
   54.89        3349.75           6893          51.00       192.68
   54.92        3350.00           6896          58.00       223.19
   54.95        3350.25           6900          62.00       240.63
   54.98        3350.50           6904          56.00       214.47
   55.02        3350.75           6908          54.00       205.76
   55.05        3351.00           6912          51.00       192.68
HL scan finished at 00:55:42
end
