************************************************************
  HL Scan of (1) Internal mercury lamp
************************************************************
Integration time is 0.2294 seconds per sample
dh040517Manchester 53.47 2.23 2.804185pr1000
************************************************************
Dead Time -------------------------  3E-08 
Number of Cycles Used -------------  4 
Starting Wavelength (Angstroms) ---  3331 
Final Wavelength (Angstoms) -------  3351 
Wavelength Increment (Angstroms) --  .25 
Filter Wheel #1 Position ---------- (1) Ground quartz diffuser (ND=2.32)
Filter Wheel #2 Position ---------- 



************************************************************
HL scan start time = 00:52:21
Dark Count =  6.4 


Time (GMT)  Wavelength (Ang)  Step Number  Raw Counts  Counts/Second

   52.88        3331.00           6610          54.00       207.50
   53.10        3331.25           6614          55.00       211.86
   53.13        3331.50           6618          48.00       181.34
   53.16        3331.75           6622          51.00       194.42
   53.19        3332.00           6626          50.00       190.06
   53.22        3332.25           6629          51.00       194.42
   53.25        3332.50           6633          52.00       198.78
   53.28        3332.75           6637          49.00       185.70
   53.31        3333.00           6641          57.00       220.58
   53.35        3333.25           6644          56.00       216.22
   53.38        3333.50           6648          60.00       233.65
   53.41        3333.75           6652          54.00       207.50
   53.44        3334.00           6656          55.00       211.86
   53.47        3334.25           6659          68.00       268.53
   53.50        3334.50           6663          78.00       312.12
   53.53        3334.75           6667          91.00       368.79
   53.56        3335.00           6671         115.00       473.42
   53.59        3335.25           6674         142.00       591.12
   53.62        3335.50           6678         165.00       691.38
   53.65        3335.75           6682         193.00       813.45
   53.68        3336.00           6686         216.00       913.71
   53.72        3336.25           6689         268.00      1140.41
   53.75        3336.50           6693         505.00      2173.64
   53.78        3336.75           6697        1445.00      6272.32
   53.81        3337.00           6701        2939.00     12788.69
   53.84        3337.25           6704        4033.00     17562.00
   53.87        3337.50           6708        5593.00     24370.91
   53.90        3337.75           6712        7082.00     30872.52
   53.93        3338.00           6716        8528.00     37188.81
   53.96        3338.25           6719        9652.00     42100.22
   53.99        3338.50           6723       11268.00     49164.01
   54.02        3338.75           6727       12694.00     55399.76
   54.06        3339.00           6731       14229.00     62114.77
   54.09        3339.25           6734       15361.00     67068.55
   54.12        3339.50           6738       16995.00     74221.75
   54.15        3339.75           6742       18563.00     81088.91
   54.18        3340.00           6746       20066.00     87674.06
   54.21        3340.25           6750       21404.00     93538.49
   54.24        3340.50           6753       22616.00     98852.44
   54.27        3340.75           6757       24065.00    105207.70
   54.30        3341.00           6761       25521.00    111596.20
   54.34        3341.25           6765       26713.00    116828.10
   54.37        3341.50           6768       27014.00    118149.50
   54.40        3341.75           6772       27118.00    118606.10
   54.43        3342.00           6776       26926.00    117763.20
   54.46        3342.25           6780       26206.00    114602.60
   54.49        3342.50           6783       24912.00    108923.80
   54.52        3342.75           6787       23497.00    102716.20
   54.55        3343.00           6791       22075.00     96480.24
   54.58        3343.25           6795       20400.00     89137.79
   54.62        3343.50           6798       19403.00     84768.91
   54.65        3343.75           6802       17891.00     78145.50
   54.68        3344.00           6806       16243.00     70929.32
   54.71        3344.25           6810       14798.00     64604.60
   54.74        3344.50           6814       13111.00     57223.70
   54.77        3344.75           6817       12200.00     53239.28
   54.80        3345.00           6821       10336.00     45089.73
   54.83        3345.25           6825        8855.00     38617.51
   54.86        3345.50           6829        7276.00     31719.80
   54.90        3345.75           6832        6221.00     27112.72
   54.93        3346.00           6836        4734.00     20621.30
   54.96        3346.25           6840        3119.00     13573.97
   54.99        3346.50           6844        1708.00      7419.26
   55.02        3346.75           6847         776.00      3355.18
   55.05        3347.00           6851         294.00      1253.75
   55.08        3347.25           6855         164.00       687.02
   55.11        3347.50           6859         145.00       604.20
   55.15        3347.75           6863         104.00       425.46
   55.18        3348.00           6866          96.00       390.59
   55.21        3348.25           6870          63.00       246.73
   55.24        3348.50           6874          56.00       216.22
   55.27        3348.75           6878          59.00       229.30
   55.30        3349.00           6881          56.00       216.22
   55.33        3349.25           6885          58.00       224.94
   55.36        3349.50           6889          62.00       242.37
   55.39        3349.75           6893          52.00       198.78
   55.42        3350.00           6896          58.00       224.94
   55.45        3350.25           6900          61.00       238.01
   55.49        3350.50           6904          62.00       242.37
   55.52        3350.75           6908          57.00       220.58
   55.55        3351.00           6912          56.00       216.22
HL scan finished at 00:56:12
end
