************************************************************
  HL Scan of (1) Internal mercury lamp
************************************************************
Integration time is 0.2294 seconds per sample
dh110518Manchester 53.47 2.23 2.804185pr1000
************************************************************
Dead Time -------------------------  3E-08 
Number of Cycles Used -------------  4 
Starting Wavelength (Angstroms) ---  3331 
Final Wavelength (Angstoms) -------  3351 
Wavelength Increment (Angstroms) --  .25 
Filter Wheel #1 Position ---------- (1) Ground quartz diffuser (ND=2.32)
Filter Wheel #2 Position ---------- 



************************************************************
HL scan start time = 00:51:27
Dark Count =  6.4 


Time (GMT)  Wavelength (Ang)  Step Number  Raw Counts  Counts/Second

   51.97        3331.00           6610          58.00       224.94
   52.19        3331.25           6614          55.00       211.86
   52.22        3331.50           6618          59.00       229.30
   52.25        3331.75           6622          49.00       185.70
   52.28        3332.00           6626          51.00       194.42
   52.31        3332.25           6629          51.00       194.42
   52.34        3332.50           6633          49.00       185.70
   52.37        3332.75           6637          48.00       181.34
   52.40        3333.00           6641          52.00       198.78
   52.44        3333.25           6644          50.00       190.06
   52.47        3333.50           6648          58.00       224.94
   52.50        3333.75           6652          56.00       216.22
   52.53        3334.00           6656          55.00       211.86
   52.56        3334.25           6659          57.00       220.58
   52.59        3334.50           6663          85.00       342.64
   52.62        3334.75           6667          96.00       390.59
   52.65        3335.00           6671         123.00       508.29
   52.68        3335.25           6674         144.00       599.84
   52.71        3335.50           6678         172.00       721.90
   52.74        3335.75           6682         197.00       830.88
   52.77        3336.00           6686         230.00       974.75
   52.80        3336.25           6689         280.00      1192.72
   52.84        3336.50           6693         528.00      2273.91
   52.87        3336.75           6697        1608.00      6983.15
   52.90        3337.00           6701        3066.00     13342.74
   52.93        3337.25           6704        4086.00     17793.28
   52.96        3337.50           6708        5535.00     24117.71
   52.99        3337.75           6712        6926.00     30191.24
   53.02        3338.00           6716        8431.00     36765.02
   53.05        3338.25           6719        9352.00     40789.20
   53.08        3338.50           6723       10945.00     47751.89
   53.11        3338.75           6727       12250.00     53457.94
   53.15        3339.00           6731       13672.00     59677.81
   53.18        3339.25           6734       14799.00     64608.98
   53.21        3339.50           6738       16127.00     70421.50
   53.24        3339.75           6742       17674.00     77195.13
   53.27        3340.00           6746       19209.00     83918.94
   53.30        3340.25           6750       20532.00     89716.30
   53.33        3340.50           6753       21586.00     94336.35
   53.36        3340.75           6757       22903.00    100111.00
   53.39        3341.00           6761       24296.00    106221.10
   53.42        3341.25           6765       25215.00    110253.40
   53.45        3341.50           6768       25575.00    111833.20
   53.49        3341.75           6772       25790.00    112776.70
   53.52        3342.00           6776       25493.00    111473.30
   53.55        3342.25           6780       24573.00    107436.40
   53.58        3342.50           6783       23570.00    103036.40
   53.61        3342.75           6787       22001.00     96155.79
   53.64        3343.00           6791       20691.00     90413.18
   53.67        3343.25           6795       19143.00     83629.79
   53.70        3343.50           6798       18164.00     79341.21
   53.73        3343.75           6802       16598.00     72483.52
   53.76        3344.00           6806       15147.00     66131.95
   53.79        3344.25           6810       13807.00     60268.42
   53.83        3344.50           6814       12299.00     53672.23
   53.86        3344.75           6817       11215.00     48932.28
   53.89        3345.00           6821        9827.00     42865.03
   53.92        3345.25           6825        8393.00     36599.01
   53.95        3345.50           6829        6918.00     30156.31
   53.98        3345.75           6832        5871.00     25584.58
   54.01        3346.00           6836        4394.00     19137.40
   54.04        3346.25           6840        2862.00     12452.78
   54.07        3346.50           6844        1472.00      6390.07
   54.10        3346.75           6847         635.00      2740.42
   54.14        3347.00           6851         234.00       992.18
   54.17        3347.25           6855         148.00       617.27
   54.20        3347.50           6859         119.00       490.85
   54.23        3347.75           6863          87.00       351.36
   54.26        3348.00           6866          74.00       294.68
   54.29        3348.25           6870          56.00       216.22
   54.32        3348.50           6874          50.00       190.06
   54.35        3348.75           6878          55.00       211.86
   54.38        3349.00           6881          54.00       207.50
   54.41        3349.25           6885          54.00       207.50
   54.44        3349.50           6889          56.00       216.22
   54.48        3349.75           6893          52.00       198.78
   54.51        3350.00           6896          50.00       190.06
   54.54        3350.25           6900          50.00       190.06
   54.57        3350.50           6904          54.00       207.50
   54.60        3350.75           6908          59.00       229.30
   54.63        3351.00           6912          49.00       185.70
HL scan finished at 00:55:17
end
