************************************************************
  HL Scan of (1) Internal mercury lamp
************************************************************
Integration time is 0.2294 seconds per sample
dh110517Manchester 53.47 2.23 2.804185pr1000
************************************************************
Dead Time -------------------------  3E-08 
Number of Cycles Used -------------  4 
Starting Wavelength (Angstroms) ---  3331 
Final Wavelength (Angstoms) -------  3351 
Wavelength Increment (Angstroms) --  .25 
Filter Wheel #1 Position ---------- (1) Ground quartz diffuser (ND=2.32)
Filter Wheel #2 Position ---------- 



************************************************************
HL scan start time = 00:51:38
Dark Count =  8.399999 


Time (GMT)  Wavelength (Ang)  Step Number  Raw Counts  Counts/Second

   52.16        3331.00           6610          48.00       172.63
   52.38        3331.25           6614          51.00       185.70
   52.42        3331.50           6618          50.00       181.34
   52.45        3331.75           6622          54.00       198.78
   52.48        3332.00           6626          54.00       198.78
   52.51        3332.25           6629          50.00       181.34
   52.54        3332.50           6633          54.00       198.78
   52.57        3332.75           6637          55.00       203.14
   52.60        3333.00           6641          62.00       233.65
   52.63        3333.25           6644          55.00       203.14
   52.66        3333.50           6648          50.00       181.34
   52.70        3333.75           6652          59.00       220.58
   52.73        3334.00           6656          58.00       216.22
   52.76        3334.25           6659          57.00       211.86
   52.79        3334.50           6663          68.00       259.81
   52.82        3334.75           6667         103.00       412.39
   52.85        3335.00           6671         100.00       399.31
   52.88        3335.25           6674         112.00       451.62
   52.91        3335.50           6678         146.00       599.84
   52.94        3335.75           6682         179.00       743.70
   52.97        3336.00           6686         190.00       791.65
   53.00        3336.25           6689         257.00      1083.73
   53.03        3336.50           6693         516.00      2212.88
   53.06        3336.75           6697        1492.00      6468.56
   53.10        3337.00           6701        3013.00     13102.80
   53.13        3337.25           6704        4171.00     18155.48
   53.16        3337.50           6708        5765.00     25113.07
   53.19        3337.75           6712        7289.00     31767.84
   53.22        3338.00           6716        8892.00     38770.44
   53.25        3338.25           6719        9939.00     43345.78
   53.28        3338.50           6723       11604.00     50624.35
   53.31        3338.75           6727       13057.00     56978.74
   53.34        3339.00           6731       14597.00     63716.27
   53.37        3339.25           6734       15702.00     68552.35
   53.40        3339.50           6738       17177.00     75009.93
   53.44        3339.75           6742       18869.00     82420.63
   53.47        3340.00           6746       20310.00     88734.60
   53.50        3340.25           6750       21955.00     95945.34
   53.53        3340.50           6753       23171.00    101277.60
   53.56        3340.75           6757       24610.00    107590.00
   53.59        3341.00           6761       26146.00    114330.50
   53.62        3341.25           6765       27216.00    119027.60
   53.65        3341.50           6768       27570.00    120581.90
   53.68        3341.75           6772       27557.00    120524.80
   53.71        3342.00           6776       27316.00    119466.60
   53.75        3342.25           6780       26328.00    115129.30
   53.78        3342.50           6783       25147.00    109946.20
   53.81        3342.75           6787       23777.00    103935.60
   53.84        3343.00           6791       22178.00     96923.09
   53.87        3343.25           6795       20594.00     89979.27
   53.90        3343.50           6798       19532.00     85325.36
   53.93        3343.75           6802       18038.00     78780.56
   53.96        3344.00           6806       16450.00     71826.79
   53.99        3344.25           6810       14910.00     65085.98
   54.03        3344.50           6814       13206.00     57630.51
   54.06        3344.75           6817       12134.00     52941.91
   54.09        3345.00           6821       10546.00     45998.92
   54.12        3345.25           6825        9113.00     39736.10
   54.15        3345.50           6829        7615.00     33191.71
   54.18        3345.75           6832        6334.00     27597.38
   54.21        3346.00           6836        4649.00     20241.58
   54.24        3346.25           6840        2996.00     13028.63
   54.27        3346.50           6844        1580.00      6852.32
   54.30        3346.75           6847         704.00      3032.53
   54.34        3347.00           6851         287.00      1214.52
   54.37        3347.25           6855         197.00       822.17
   54.40        3347.50           6859         159.00       656.51
   54.43        3347.75           6863         123.00       499.57
   54.46        3348.00           6866         102.00       408.03
   54.49        3348.25           6870          88.00       347.00
   54.52        3348.50           6874          75.00       290.33
   54.55        3348.75           6878          59.00       220.58
   54.58        3349.00           6881          52.00       190.06
   54.62        3349.25           6885          53.00       194.42
   54.65        3349.50           6889          56.00       207.50
   54.68        3349.75           6893          60.00       224.94
   54.71        3350.00           6896          64.00       242.37
   54.74        3350.25           6900          51.00       185.70
   54.77        3350.50           6904          56.00       207.50
   54.80        3350.75           6908          48.00       172.63
   54.83        3351.00           6912          57.00       211.86
HL scan finished at 00:55:30
end
