************************************************************
  HL Scan of (1) Internal mercury lamp
************************************************************
Integration time is 0.2294 seconds per sample
dh180517Manchester 53.47 2.23 2.804185pr1000
************************************************************
Dead Time -------------------------  3E-08 
Number of Cycles Used -------------  4 
Starting Wavelength (Angstroms) ---  3331 
Final Wavelength (Angstoms) -------  3351 
Wavelength Increment (Angstroms) --  .25 
Filter Wheel #1 Position ---------- (1) Ground quartz diffuser (ND=2.32)
Filter Wheel #2 Position ---------- 



************************************************************
HL scan start time = 00:51:24
Dark Count =  8.899999 


Time (GMT)  Wavelength (Ang)  Step Number  Raw Counts  Counts/Second

   51.92        3331.00           6610          53.00       192.24
   52.14        3331.25           6614          52.00       187.88
   52.17        3331.50           6618          62.00       231.48
   52.20        3331.75           6622          53.00       192.24
   52.23        3332.00           6626          56.00       205.32
   52.26        3332.25           6629          49.00       174.80
   52.29        3332.50           6633          53.00       192.24
   52.32        3332.75           6637          44.00       153.01
   52.35        3333.00           6641          56.00       205.32
   52.38        3333.25           6644          58.00       214.04
   52.41        3333.50           6648          50.00       179.16
   52.45        3333.75           6652          51.00       183.52
   52.48        3334.00           6656          56.00       205.32
   52.51        3334.25           6659          59.00       218.40
   52.54        3334.50           6663          80.00       309.94
   52.57        3334.75           6667          98.00       388.41
   52.60        3335.00           6671         117.00       471.24
   52.63        3335.25           6674         143.00       584.58
   52.66        3335.50           6678         171.00       706.64
   52.69        3335.75           6682         192.00       798.19
   52.72        3336.00           6686         237.00       994.36
   52.75        3336.25           6689         293.00      1238.49
   52.78        3336.50           6693         659.00      2834.16
   52.81        3336.75           6697        1721.00      7465.05
   52.85        3337.00           6701        3158.00     13733.21
   52.88        3337.25           6704        4264.00     18559.15
   52.91        3337.50           6708        5844.00     25455.79
   52.94        3337.75           6712        7340.00     31988.40
   52.97        3338.00           6716        8855.00     38606.59
   53.00        3338.25           6719       10107.00     44077.87
   53.03        3338.50           6723       11557.00     50416.65
   53.06        3338.75           6727       13035.00     56880.33
   53.09        3339.00           6731       14570.00     63595.94
   53.12        3339.25           6734       15835.00     69132.34
   53.15        3339.50           6738       17413.00     76041.18
   53.18        3339.75           6742       18904.00     82571.78
   53.22        3340.00           6746       20506.00     89591.39
   53.25        3340.25           6750       22003.00     96153.60
   53.28        3340.50           6753       22956.00    100332.50
   53.31        3340.75           6757       24381.00    106583.10
   53.34        3341.00           6761       25869.00    113112.50
   53.37        3341.25           6765       27151.00    118740.00
   53.40        3341.50           6768       27433.00    119978.20
   53.43        3341.75           6772       27429.00    119960.60
   53.46        3342.00           6776       27156.00    118762.00
   53.50        3342.25           6780       26151.00    114350.20
   53.53        3342.50           6783       25086.00    109676.30
   53.56        3342.75           6787       23615.00    103222.80
   53.59        3343.00           6791       22041.00     96320.21
   53.62        3343.25           6795       20487.00     89508.12
   53.65        3343.50           6798       19262.00     84140.19
   53.68        3343.75           6802       17822.00     77832.35
   53.71        3344.00           6806       16256.00     70975.30
   53.74        3344.25           6810       14760.00     64427.37
   53.77        3344.50           6814       13106.00     57190.89
   53.80        3344.75           6817       12044.00     52546.15
   53.83        3345.00           6821       10515.00     45861.22
   53.87        3345.25           6825        8968.00     39100.33
   53.90        3345.50           6829        7491.00     32647.92
   53.93        3345.75           6832        6365.00     27730.56
   53.96        3346.00           6836        4607.00     20056.09
   53.99        3346.25           6840        3096.00     13462.72
   54.02        3346.50           6844        1680.00      7286.25
   54.05        3346.75           6847         794.00      3422.76
   54.08        3347.00           6851         274.00      1155.66
   54.11        3347.25           6855         165.00       680.48
   54.15        3347.50           6859         134.00       545.34
   54.18        3347.75           6863         115.00       462.52
   54.21        3348.00           6866          83.00       323.02
   54.24        3348.25           6870          68.00       257.63
   54.27        3348.50           6874          53.00       192.24
   54.30        3348.75           6878          57.00       209.68
   54.33        3349.00           6881          57.00       209.68
   54.36        3349.25           6885          51.00       183.52
   54.39        3349.50           6889          57.00       209.68
   54.42        3349.75           6893          59.00       218.40
   54.45        3350.00           6896          50.00       179.16
   54.48        3350.25           6900          58.00       214.04
   54.52        3350.50           6904          50.00       179.16
   54.55        3350.75           6908          57.00       209.68
   54.58        3351.00           6912          58.00       214.04
HL scan finished at 00:55:14
end
