************************************************************
  HL Scan of (1) Internal mercury lamp
************************************************************
Integration time is 0.2294 seconds per sample
dh250517Manchester 53.47 2.23 2.857833pr1000
************************************************************
Dead Time -------------------------  3E-08 
Number of Cycles Used -------------  4 
Starting Wavelength (Angstroms) ---  3331 
Final Wavelength (Angstoms) -------  3351 
Wavelength Increment (Angstroms) --  .25 
Filter Wheel #1 Position ---------- (1) Ground quartz diffuser (ND=2.32)
Filter Wheel #2 Position ---------- 



************************************************************
HL scan start time = 00:52:09
Dark Count =  5.8 


Time (GMT)  Wavelength (Ang)  Step Number  Raw Counts  Counts/Second

   52.67        3331.00           6610          60.00       236.27
   52.89        3331.25           6614          49.00       188.32
   52.92        3331.50           6618          49.00       188.32
   52.95        3331.75           6622          61.00       240.63
   52.98        3332.00           6626          58.00       227.55
   53.01        3332.25           6629          51.00       197.04
   53.04        3332.50           6633          59.00       231.91
   53.08        3332.75           6637          58.00       227.55
   53.11        3333.00           6641          58.00       227.55
   53.14        3333.25           6644          53.00       205.76
   53.17        3333.50           6648          56.00       218.83
   53.20        3333.75           6652          59.00       231.91
   53.23        3334.00           6656          50.00       192.68
   53.26        3334.25           6659          55.00       214.47
   53.29        3334.50           6663          72.00       288.58
   53.32        3334.75           6667          98.00       401.92
   53.35        3335.00           6671         137.00       571.94
   53.38        3335.25           6674         139.00       580.66
   53.42        3335.50           6678         167.00       702.72
   53.45        3335.75           6682         193.00       816.06
   53.48        3336.00           6686         237.00      1007.88
   53.51        3336.25           6689         289.00      1234.57
   53.54        3336.50           6693         505.00      2176.25
   53.57        3336.75           6697        1457.00      6327.27
   53.60        3337.00           6701        3054.00     13293.01
   53.63        3337.25           6704        4159.00     18114.47
   53.66        3337.50           6708        5753.00     25072.04
   53.69        3337.75           6712        7388.00     32211.59
   53.72        3338.00           6716        8770.00     38248.75
   53.76        3338.25           6719        9945.00     43383.37
   53.79        3338.50           6723       11489.00     50132.89
   53.82        3338.75           6727       13034.00     56889.52
   53.85        3339.00           6731       14648.00     63950.82
   53.88        3339.25           6734       15926.00     69544.25
   53.91        3339.50           6738       17437.00     76159.86
   53.94        3339.75           6742       19106.00     83470.30
   53.97        3340.00           6746       20645.00     90214.19
   54.00        3340.25           6750       22082.00     96513.57
   54.04        3340.50           6753       23195.00    101394.30
   54.07        3340.75           6757       24765.00    108281.40
   54.10        3341.00           6761       26336.00    115175.80
   54.13        3341.25           6765       27573.00    120606.50
   54.16        3341.50           6768       27949.00    122257.50
   54.19        3341.75           6772       28022.00    122578.10
   54.22        3342.00           6776       27769.00    121467.10
   54.25        3342.25           6780       26871.00    117524.40
   54.28        3342.50           6783       26001.00    113705.40
   54.31        3342.75           6787       24267.00    106096.50
   54.34        3343.00           6791       22678.00     99126.96
   54.38        3343.25           6795       20964.00     91612.38
   54.41        3343.50           6798       19799.00     86506.69
   54.44        3343.75           6802       18387.00     80320.60
   54.47        3344.00           6806       16817.00     73444.99
   54.50        3344.25           6810       15194.00     66340.28
   54.53        3344.50           6814       13699.00     59798.55
   54.56        3344.75           6817       12585.00     54925.65
   54.59        3345.00           6821       11066.00     48283.49
   54.62        3345.25           6825        9458.00     41255.04
   54.65        3345.50           6829        7937.00     34609.59
   54.68        3345.75           6832        6783.00     29569.38
   54.71        3346.00           6836        5158.00     22474.61
   54.74        3346.25           6840        3558.00     15491.94
   54.78        3346.50           6844        2039.00      8865.48
   54.81        3346.75           6847        1041.00      4513.25
   54.84        3347.00           6851         352.00      1509.22
   54.87        3347.25           6855         197.00       833.50
   54.90        3347.50           6859         152.00       637.33
   54.93        3347.75           6863         110.00       454.23
   54.96        3348.00           6866          83.00       336.53
   54.99        3348.25           6870          74.00       297.30
   55.02        3348.50           6874          60.00       236.27
   55.05        3348.75           6878          59.00       231.91
   55.08        3349.00           6881          65.00       258.07
   55.12        3349.25           6885          64.00       253.71
   55.15        3349.50           6889          61.00       240.63
   55.18        3349.75           6893          55.00       214.47
   55.21        3350.00           6896          48.00       183.96
   55.24        3350.25           6900          58.00       227.55
   55.27        3350.50           6904          55.00       214.47
   55.30        3350.75           6908          53.00       205.76
   55.33        3351.00           6912          58.00       227.55
HL scan finished at 00:56:00
end
