************************************************************
  HL Scan of (1) Internal mercury lamp
************************************************************
Integration time is 0.2294 seconds per sample
dh250518Manchester 53.47 2.23 2.804185pr1000
************************************************************
Dead Time -------------------------  3E-08 
Number of Cycles Used -------------  4 
Starting Wavelength (Angstroms) ---  3331 
Final Wavelength (Angstoms) -------  3351 
Wavelength Increment (Angstroms) --  .25 
Filter Wheel #1 Position ---------- (1) Ground quartz diffuser (ND=2.32)
Filter Wheel #2 Position ---------- 



************************************************************
HL scan start time = 00:51:56
Dark Count =  6.2 


Time (GMT)  Wavelength (Ang)  Step Number  Raw Counts  Counts/Second

   52.46        3331.00           6610          46.00       173.50
   52.68        3331.25           6614          50.00       190.93
   52.71        3331.50           6618          55.00       212.73
   52.74        3331.75           6622          44.00       164.78
   52.77        3332.00           6626          55.00       212.73
   52.81        3332.25           6629          55.00       212.73
   52.84        3332.50           6633          55.00       212.73
   52.87        3332.75           6637          56.00       217.09
   52.90        3333.00           6641          48.00       182.22
   52.93        3333.25           6644          48.00       182.22
   52.96        3333.50           6648          53.00       204.01
   52.99        3333.75           6652          53.00       204.01
   53.02        3334.00           6656          47.00       177.86
   53.05        3334.25           6659          59.00       230.17
   53.09        3334.50           6663          73.00       291.20
   53.12        3334.75           6667          79.00       317.35
   53.15        3335.00           6671         113.00       465.57
   53.18        3335.25           6674         122.00       504.80
   53.21        3335.50           6678         158.00       661.74
   53.24        3335.75           6682         173.00       727.13
   53.27        3336.00           6686         186.00       783.80
   53.30        3336.25           6689         232.00       984.34
   53.33        3336.50           6693         373.00      1599.03
   53.37        3336.75           6697        1143.00      4956.27
   53.40        3337.00           6701        2515.00     10939.95
   53.43        3337.25           6704        3530.00     15368.03
   53.46        3337.50           6708        5017.00     21857.40
   53.49        3337.75           6712        6358.00     27711.78
   53.52        3338.00           6716        7764.00     33852.15
   53.55        3338.25           6719        8824.00     38482.94
   53.58        3338.50           6723       10406.00     45396.57
   53.61        3338.75           6727       11921.00     52020.10
   53.65        3339.00           6731       13056.00     56983.99
   53.68        3339.25           6734       14218.00     62067.51
   53.71        3339.50           6738       15722.00     68649.52
   53.74        3339.75           6742       17199.00     75115.91
   53.77        3340.00           6746       18483.00     80739.36
   53.80        3340.25           6750       19972.00     87263.02
   53.83        3340.50           6753       21039.00     91939.38
   53.86        3340.75           6757       22470.00     98213.11
   53.89        3341.00           6761       23757.00    103857.50
   53.93        3341.25           6765       24798.00    108424.50
   53.96        3341.50           6768       25248.00    110399.00
   53.99        3341.75           6772       25298.00    110618.50
   54.02        3342.00           6776       25183.00    110113.80
   54.05        3342.25           6780       24540.00    107292.50
   54.08        3342.50           6783       23421.00    102383.70
   54.11        3342.75           6787       22264.00     97309.83
   54.14        3343.00           6791       20900.00     91330.11
   54.17        3343.25           6795       19475.00     85085.27
   54.21        3343.50           6798       18358.00     80191.82
   54.24        3343.75           6802       16984.00     74174.46
   54.27        3344.00           6806       15587.00     68058.61
   54.30        3344.25           6810       14088.00     61498.72
   54.33        3344.50           6814       12766.00     55715.54
   54.36        3344.75           6817       11654.00     50852.59
   54.39        3345.00           6821       10178.00     44399.99
   54.42        3345.25           6825        8727.00     38059.12
   54.45        3345.50           6829        7348.00     32035.13
   54.48        3345.75           6832        6228.00     27144.15
   54.52        3346.00           6836        4789.00     20862.23
   54.55        3346.25           6840        3379.00     14709.19
   54.58        3346.50           6844        2017.00      8767.78
   54.61        3346.75           6847        1055.00      4572.55
   54.64        3347.00           6851         349.00      1494.40
   54.67        3347.25           6855         164.00       687.90
   54.70        3347.50           6859         125.00       517.88
   54.73        3347.75           6863         121.00       500.44
   54.76        3348.00           6866          85.00       343.51
   54.79        3348.25           6870          75.00       299.92
   54.83        3348.50           6874          60.00       234.53
   54.86        3348.75           6878          51.00       195.29
   54.89        3349.00           6881          53.00       204.01
   54.92        3349.25           6885          53.00       204.01
   54.95        3349.50           6889          53.00       204.01
   54.98        3349.75           6893          57.00       221.45
   55.01        3350.00           6896          53.00       204.01
   55.04        3350.25           6900          51.00       195.29
   55.07        3350.50           6904          52.00       199.65
   55.10        3350.75           6908          48.00       182.22
   55.13        3351.00           6912          48.00       182.22
HL scan finished at 00:55:48
end
