************************************************************
  HL Scan of (1) Internal mercury lamp
************************************************************
Integration time is 0.2294 seconds per sample
dh290517El Arenosillo 37.1 6.73 3.072425pr1000
************************************************************
Dead Time -------------------------  3E-08 
Number of Cycles Used -------------  4 
Starting Wavelength (Angstroms) ---  3331 
Final Wavelength (Angstoms) -------  3351 
Wavelength Increment (Angstroms) --  .25 
Filter Wheel #1 Position ---------- (1) Ground quartz diffuser (ND=2.32)
Filter Wheel #2 Position ---------- 



************************************************************
HL scan start time = 20:31:44
Dark Count =  5.8 


Time (GMT)  Wavelength (Ang)  Step Number  Raw Counts  Counts/Second

 1232.26        3331.00           6610          59.00       231.91
 1232.48        3331.25           6614          55.00       214.47
 1232.51        3331.50           6618          54.00       210.11
 1232.54        3331.75           6622          55.00       214.47
 1232.57        3332.00           6626          54.00       210.11
 1232.60        3332.25           6629          56.00       218.83
 1232.64        3332.50           6633          53.00       205.76
 1232.67        3332.75           6637          57.00       223.19
 1232.70        3333.00           6641          57.00       223.19
 1232.73        3333.25           6644          55.00       214.47
 1232.76        3333.50           6648          60.00       236.27
 1232.79        3333.75           6652          60.00       236.27
 1232.82        3334.00           6656          64.00       253.71
 1232.85        3334.25           6659          75.00       301.66
 1232.88        3334.50           6663         101.00       415.00
 1232.91        3334.75           6667         129.00       537.06
 1232.94        3335.00           6671         155.00       650.41
 1232.98        3335.25           6674         173.00       728.87
 1233.01        3335.50           6678         193.00       816.06
 1233.04        3335.75           6682         251.00      1068.91
 1233.07        3336.00           6686         274.00      1169.18
 1233.10        3336.25           6689         375.00      1609.49
 1233.13        3336.50           6693        1045.00      4530.69
 1233.16        3336.75           6697        2588.00     11260.12
 1233.19        3337.00           6701        4275.00     18620.69
 1233.22        3337.25           6704        5656.00     24648.56
 1233.25        3337.50           6708        7331.00     31962.63
 1233.29        3337.75           6712        9042.00     39437.22
 1233.32        3338.00           6716       10792.00     47085.65
 1233.35        3338.25           6719       12103.00     52817.72
 1233.38        3338.50           6723       13779.00     60148.55
 1233.41        3338.75           6727       15552.00     67907.18
 1233.44        3339.00           6731       17043.00     74434.56
 1233.47        3339.25           6734       18493.00     80784.91
 1233.50        3339.50           6738       20482.00     89499.79
 1233.53        3339.75           6742       22310.00     97513.28
 1233.56        3340.00           6746       23937.00    104648.90
 1233.59        3340.25           6750       25558.00    111761.20
 1233.63        3340.50           6753       27035.00    118244.40
 1233.66        3340.75           6757       28477.00    124576.30
 1233.69        3341.00           6761       30118.00    131785.00
 1233.72        3341.25           6765       30784.00    134711.60
 1233.75        3341.50           6768       30807.00    134812.70
 1233.78        3341.75           6772       30926.00    135335.60
 1233.81        3342.00           6776       30143.00    131894.90
 1233.84        3342.25           6780       28768.00    125854.40
 1233.87        3342.50           6783       27609.00    120764.60
 1233.91        3342.75           6787       25941.00    113442.10
 1233.94        3343.00           6791       24231.00    105938.60
 1233.97        3343.25           6795       22450.00     98127.16
 1234.00        3343.50           6798       21001.00     91774.57
 1234.03        3343.75           6802       19409.00     84797.84
 1234.06        3344.00           6806       17495.00     76413.85
 1234.09        3344.25           6810       16001.00     69872.55
 1234.12        3344.50           6814       14246.00     62191.78
 1234.15        3344.75           6817       12966.00     56592.08
 1234.19        3345.00           6821       11245.00     49066.07
 1234.22        3345.25           6825        9430.00     41132.68
 1234.25        3345.50           6829        7544.00     32892.95
 1234.28        3345.75           6832        6081.00     26504.07
 1234.31        3346.00           6836        4457.00     19414.97
 1234.34        3346.25           6840        2924.00     12725.87
 1234.37        3346.50           6844        1399.00      6074.34
 1234.40        3346.75           6847         602.00      2599.16
 1234.43        3347.00           6851         231.00       981.72
 1234.47        3347.25           6855         152.00       637.33
 1234.50        3347.50           6859         137.00       571.94
 1234.53        3347.75           6863          91.00       371.41
 1234.56        3348.00           6866          77.00       310.38
 1234.59        3348.25           6870          60.00       236.27
 1234.62        3348.50           6874          61.00       240.63
 1234.65        3348.75           6878          55.00       214.47
 1234.68        3349.00           6881          56.00       218.83
 1234.71        3349.25           6885          55.00       214.47
 1234.74        3349.50           6889          54.00       210.11
 1234.77        3349.75           6893          55.00       214.47
 1234.81        3350.00           6896          55.00       214.47
 1234.84        3350.25           6900          60.00       236.27
 1234.87        3350.50           6904          58.00       227.55
 1234.90        3350.75           6908          57.00       223.19
 1234.93        3351.00           6912          52.00       201.40
HL scan finished at 20:35:36
end
