************************************************************
  HL Scan of (1) Internal mercury lamp
************************************************************
Integration time is 0.2294 seconds per sample
dh080617El Arenosillo 37.1 6.73 2.965129pr1000
************************************************************
Dead Time -------------------------  3E-08 
Number of Cycles Used -------------  4 
Starting Wavelength (Angstroms) ---  3331 
Final Wavelength (Angstoms) -------  3351 
Wavelength Increment (Angstroms) --  .25 
Filter Wheel #1 Position ---------- (1) Ground quartz diffuser (ND=2.32)
Filter Wheel #2 Position ---------- 



************************************************************
HL scan start time = 01:12:22
Dark Count =  4.5 


Time (GMT)  Wavelength (Ang)  Step Number  Raw Counts  Counts/Second

   72.90        3331.00           6610          67.00       272.45
   73.12        3331.25           6614          51.00       202.70
   73.15        3331.50           6618          60.00       241.94
   73.18        3331.75           6622          56.00       224.50
   73.21        3332.00           6626          59.00       237.58
   73.24        3332.25           6629          52.00       207.06
   73.27        3332.50           6633          54.00       215.78
   73.31        3332.75           6637          53.00       211.42
   73.34        3333.00           6641          56.00       224.50
   73.37        3333.25           6644          55.00       220.14
   73.40        3333.50           6648          53.00       211.42
   73.43        3333.75           6652          52.00       207.06
   73.46        3334.00           6656          56.00       224.50
   73.49        3334.25           6659          78.00       320.40
   73.52        3334.50           6663          95.00       394.51
   73.55        3334.75           6667         112.00       468.62
   73.58        3335.00           6671         140.00       590.68
   73.61        3335.25           6674         159.00       673.51
   73.64        3335.50           6678         197.00       839.17
   73.68        3335.75           6682         214.00       913.28
   73.71        3336.00           6686         244.00      1044.06
   73.74        3336.25           6689         348.00      1497.45
   73.77        3336.50           6693         710.00      3075.70
   73.80        3336.75           6697        2082.00      9058.70
   73.83        3337.00           6701        3993.00     17395.74
   73.86        3337.25           6704        5187.00     22606.87
   73.89        3337.50           6708        6951.00     30308.72
   73.92        3337.75           6712        8637.00     37673.33
   73.95        3338.00           6716       10348.00     45150.48
   73.98        3338.25           6719       11611.00     50672.01
   74.01        3338.50           6723       13251.00     57844.41
   74.05        3338.75           6727       15118.00     66013.35
   74.08        3339.00           6731       16780.00     73288.69
   74.11        3339.25           6734       18141.00     79248.78
   74.14        3339.50           6738       20033.00     87537.78
   74.17        3339.75           6742       21729.00     94971.59
   74.20        3340.00           6746       23328.00    101983.30
   74.23        3340.25           6750       24924.00    108984.80
   74.26        3340.50           6753       26133.00    114290.50
   74.29        3340.75           6757       27978.00    122390.60
   74.32        3341.00           6761       29678.00    129857.60
   74.35        3341.25           6765       30644.00    134102.10
   74.39        3341.50           6768       31118.00    136185.20
   74.42        3341.75           6772       31238.00    136712.60
   74.45        3342.00           6776       30845.00    134985.40
   74.48        3342.25           6780       29729.00    130081.60
   74.51        3342.50           6783       28639.00    125293.50
   74.54        3342.75           6787       26598.00    116331.60
   74.57        3343.00           6791       24864.00    108721.50
   74.60        3343.25           6795       23217.00    101496.50
   74.64        3343.50           6798       21823.00     95383.71
   74.67        3343.75           6802       20182.00     88190.74
   74.70        3344.00           6806       18233.00     79651.75
   74.73        3344.25           6810       16647.00     72706.37
   74.76        3344.50           6814       14889.00     65011.16
   74.79        3344.75           6817       13532.00     59073.65
   74.82        3345.00           6821       11829.00     51625.23
   74.85        3345.25           6825       10027.00     43747.44
   74.88        3345.50           6829        8259.00     36021.91
   74.92        3345.75           6832        6992.00     30487.77
   74.95        3346.00           6836        5379.00     23445.00
   74.98        3346.25           6840        3467.00     15100.56
   75.01        3346.50           6844        1822.00      7924.73
   75.04        3346.75           6847         815.00      3533.50
   75.07        3347.00           6851         296.00      1270.75
   75.10        3347.25           6855         183.00       778.14
   75.13        3347.50           6859         145.00       612.48
   75.16        3347.75           6863         125.00       525.29
   75.19        3348.00           6866          87.00       359.64
   75.22        3348.25           6870          69.00       281.17
   75.25        3348.50           6874          68.00       276.81
   75.29        3348.75           6878          59.00       237.58
   75.32        3349.00           6881          65.00       263.73
   75.35        3349.25           6885          57.00       228.86
   75.38        3349.50           6889          51.00       202.70
   75.41        3349.75           6893          55.00       220.14
   75.44        3350.00           6896          57.00       228.86
   75.47        3350.25           6900          54.00       215.78
   75.50        3350.50           6904          54.00       215.78
   75.53        3350.75           6908          56.00       224.50
   75.56        3351.00           6912          57.00       228.86
HL scan finished at 01:16:13
end
