************************************************************
  HL Scan of (1) Internal mercury lamp
************************************************************
Integration time is 0.2294 seconds per sample
dh010618Manchester 53.47 2.23 2.911481pr1000
************************************************************
Dead Time -------------------------  3E-08 
Number of Cycles Used -------------  4 
Starting Wavelength (Angstroms) ---  3331 
Final Wavelength (Angstoms) -------  3351 
Wavelength Increment (Angstroms) --  .25 
Filter Wheel #1 Position ---------- (1) Ground quartz diffuser (ND=2.32)
Filter Wheel #2 Position ---------- 



************************************************************
HL scan start time = 00:53:12
Dark Count =  5.7 


Time (GMT)  Wavelength (Ang)  Step Number  Raw Counts  Counts/Second

   53.73        3331.00           6610          52.00       201.83
   53.95        3331.25           6614          41.00       153.88
   53.98        3331.50           6618          54.00       210.55
   54.01        3331.75           6622          44.00       166.96
   54.04        3332.00           6626          49.00       188.75
   54.08        3332.25           6629          48.00       184.40
   54.11        3332.50           6633          52.00       201.83
   54.14        3332.75           6637          52.00       201.83
   54.17        3333.00           6641          59.00       232.35
   54.20        3333.25           6644          50.00       193.11
   54.23        3333.50           6648          49.00       188.75
   54.26        3333.75           6652          48.00       184.40
   54.29        3334.00           6656          53.00       206.19
   54.32        3334.25           6659          58.00       227.99
   54.35        3334.50           6663          86.00       350.05
   54.38        3334.75           6667          85.00       345.69
   54.41        3335.00           6671         120.00       498.26
   54.45        3335.25           6674         141.00       589.81
   54.48        3335.50           6678         149.00       624.68
   54.51        3335.75           6682         185.00       781.62
   54.54        3336.00           6686         213.00       903.69
   54.57        3336.25           6689         271.00      1156.54
   54.60        3336.50           6693         563.00      2429.56
   54.63        3336.75           6697        1679.00      7295.84
   54.66        3337.00           6701        3152.00     13720.99
   54.69        3337.25           6704        4358.00     18983.35
   54.72        3337.50           6708        5794.00     25251.47
   54.75        3337.75           6712        7312.00     31880.09
   54.78        3338.00           6716        8709.00     37982.66
   54.82        3338.25           6719        9717.00     42387.35
   54.85        3338.50           6723       11173.00     48751.73
   54.88        3338.75           6727       12656.00     55236.62
   54.91        3339.00           6731       14159.00     61811.55
   54.94        3339.25           6734       15336.00     66962.21
   54.97        3339.50           6738       17007.00     74277.37
   55.00        3339.75           6742       18373.00     80259.72
   55.03        3340.00           6746       19944.00     87142.52
   55.07        3340.25           6750       21442.00     93708.15
   55.10        3340.50           6753       22292.00     97434.79
   55.13        3340.75           6757       23863.00    104324.70
   55.16        3341.00           6761       25350.00    110848.80
   55.19        3341.25           6765       26385.00    115391.40
   55.22        3341.50           6768       26553.00    116128.80
   55.25        3341.75           6772       26485.00    115830.30
   55.28        3342.00           6776       26532.00    116036.60
   55.31        3342.25           6780       25605.00    111967.90
   55.35        3342.50           6783       24557.00    107369.30
   55.38        3342.75           6787       23080.00    100890.30
   55.41        3343.00           6791       21646.00     94602.46
   55.44        3343.25           6795       20159.00     88084.69
   55.47        3343.50           6798       19124.00     83549.61
   55.50        3343.75           6802       17560.00     76698.96
   55.53        3344.00           6806       15884.00     69360.83
   55.56        3344.25           6810       14333.00     62572.89
   55.59        3344.50           6814       12957.00     56553.15
   55.63        3344.75           6817       11695.00     51034.05
   55.66        3345.00           6821       10311.00     44983.51
   55.69        3345.25           6825        8922.00     38913.32
   55.72        3345.50           6829        7181.00     31307.95
   55.75        3345.75           6832        6045.00     26347.32
   55.78        3346.00           6836        4499.00     19598.71
   55.81        3346.25           6840        3063.00     13332.71
   55.84        3346.50           6844        1581.00      6868.46
   55.88        3346.75           6847         793.00      3432.35
   55.91        3347.00           6851         288.00      1230.65
   55.94        3347.25           6855         171.00       720.59
   55.97        3347.50           6859         129.00       537.50
   56.00        3347.75           6863         108.00       445.95
   56.03        3348.00           6866          88.00       358.77
   56.06        3348.25           6870          64.00       254.14
   56.09        3348.50           6874          57.00       223.63
   56.12        3348.75           6878          57.00       223.63
   56.15        3349.00           6881          56.00       219.27
   56.19        3349.25           6885          61.00       241.07
   56.22        3349.50           6889          53.00       206.19
   56.25        3349.75           6893          61.00       241.07
   56.28        3350.00           6896          60.00       236.71
   56.31        3350.25           6900          56.00       219.27
   56.34        3350.50           6904          60.00       236.71
   56.37        3350.75           6908          50.00       193.11
   56.40        3351.00           6912          56.00       219.27
HL scan finished at 00:57:04
end
