************************************************************
  HL Scan of (1) Internal mercury lamp
************************************************************
Integration time is 0.2294 seconds per sample
dh020617El Arenosillo 37.1 6.73 3.179721pr1000
************************************************************
Dead Time -------------------------  3E-08 
Number of Cycles Used -------------  4 
Starting Wavelength (Angstroms) ---  3331 
Final Wavelength (Angstoms) -------  3351 
Wavelength Increment (Angstroms) --  .25 
Filter Wheel #1 Position ---------- (1) Ground quartz diffuser (ND=2.32)
Filter Wheel #2 Position ---------- 



************************************************************
HL scan start time = 02:04:27
Dark Count =  5.2 


Time (GMT)  Wavelength (Ang)  Step Number  Raw Counts  Counts/Second

  124.97        3331.00           6610          54.00       212.73
  125.19        3331.25           6614          53.00       208.37
  125.22        3331.50           6618          59.00       234.53
  125.25        3331.75           6622          56.00       221.45
  125.28        3332.00           6626          55.00       217.09
  125.31        3332.25           6629          56.00       221.45
  125.34        3332.50           6633          62.00       247.60
  125.38        3332.75           6637          55.00       217.09
  125.41        3333.00           6641          53.00       208.37
  125.44        3333.25           6644          57.00       225.81
  125.47        3333.50           6648          55.00       217.09
  125.50        3333.75           6652          69.00       278.12
  125.53        3334.00           6656          83.00       339.15
  125.56        3334.25           6659          91.00       374.02
  125.59        3334.50           6663         130.00       544.04
  125.62        3334.75           6667         147.00       618.15
  125.65        3335.00           6671         159.00       670.46
  125.68        3335.25           6674         198.00       840.47
  125.71        3335.50           6678         217.00       923.30
  125.75        3335.75           6682         257.00      1097.68
  125.78        3336.00           6686         305.00      1306.94
  125.81        3336.25           6689         420.00      1808.29
  125.84        3336.50           6693         998.00      4328.37
  125.87        3336.75           6697        2602.00     11323.81
  125.90        3337.00           6701        4519.00     19688.17
  125.93        3337.25           6704        5799.00     25275.48
  125.96        3337.50           6708        7599.00     33135.80
  125.99        3337.75           6712        9382.00     40925.55
  126.03        3338.00           6716       10989.00     47949.49
  126.06        3338.25           6719       12491.00     54517.17
  126.09        3338.50           6723       14481.00     63222.68
  126.12        3338.75           6727       16311.00     71232.27
  126.15        3339.00           6731       17852.00     77979.96
  126.18        3339.25           6734       19235.00     84038.12
  126.21        3339.50           6738       21049.00     91987.59
  126.24        3339.75           6742       23151.00    101203.90
  126.27        3340.00           6746       24701.00    108003.30
  126.30        3340.25           6750       26589.00    116289.00
  126.34        3340.50           6753       28088.00    122870.60
  126.37        3340.75           6757       29837.00    130553.10
  126.40        3341.00           6761       31405.00    137443.50
  126.43        3341.25           6765       32531.00    142393.40
  126.46        3341.50           6768       32543.00    142446.10
  126.49        3341.75           6772       32561.00    142525.30
  126.52        3342.00           6776       32056.00    140305.10
  126.55        3342.25           6780       30649.00    134121.00
  126.58        3342.50           6783       29544.00    129265.80
  126.62        3342.75           6787       27810.00    121649.80
  126.65        3343.00           6791       26098.00    114133.80
  126.68        3343.25           6795       23961.00    104756.80
  126.71        3343.50           6798       22611.00     98835.79
  126.74        3343.75           6802       20719.00     90541.16
  126.77        3344.00           6806       18859.00     82390.85
  126.80        3344.25           6810       17157.00     74936.38
  126.83        3344.50           6814       15116.00     66001.53
  126.86        3344.75           6817       13869.00     60544.92
  126.89        3345.00           6821       12035.00     52522.98
  126.93        3345.25           6825       10058.00     43879.87
  126.96        3345.50           6829        8224.00     35865.95
  126.99        3345.75           6832        6933.00     30227.05
  127.02        3346.00           6836        5107.00     22254.61
  127.05        3346.25           6840        3381.00     14722.28
  127.08        3346.50           6844        1723.00      7489.91
  127.11        3346.75           6847         700.00      3029.05
  127.14        3347.00           6851         273.00      1167.43
  127.17        3347.25           6855         156.00       657.38
  127.20        3347.50           6859         122.00       509.16
  127.23        3347.75           6863          92.00       378.38
  127.27        3348.00           6866          75.00       304.27
  127.30        3348.25           6870          56.00       221.45
  127.33        3348.50           6874          64.00       256.32
  127.36        3348.75           6878          55.00       217.09
  127.39        3349.00           6881          65.00       260.68
  127.42        3349.25           6885          61.00       243.25
  127.45        3349.50           6889          53.00       208.37
  127.48        3349.75           6893          57.00       225.81
  127.51        3350.00           6896          53.00       208.37
  127.54        3350.25           6900          58.00       230.17
  127.57        3350.50           6904          63.00       251.96
  127.60        3350.75           6908          50.00       195.29
  127.63        3351.00           6912          75.00       304.27
HL scan finished at 02:08:18
end
************************************************************
  HL Scan of (1) Internal mercury lamp
************************************************************
Integration time is 0.2294 seconds per sample
dh020617El Arenosillo 37.1 6.73 3.179721pr1000
************************************************************
Dead Time -------------------------  3E-08 
Number of Cycles Used -------------  4 
Starting Wavelength (Angstroms) ---  3331 
Final Wavelength (Angstoms) -------  3351 
Wavelength Increment (Angstroms) --  .25 
Filter Wheel #1 Position ---------- (1) Ground quartz diffuser (ND=2.32)
Filter Wheel #2 Position ---------- 



************************************************************
HL scan start time = 21:52:25
Dark Count =  6.5 


Time (GMT)  Wavelength (Ang)  Step Number  Raw Counts  Counts/Second

 1312.94        3331.00           6610          65.00       255.02
 1313.16        3331.25           6614          54.00       207.06
 1313.19        3331.50           6618          58.00       224.50
 1313.22        3331.75           6622          59.00       228.86
 1313.25        3332.00           6626          53.00       202.70
 1313.28        3332.25           6629          48.00       180.91
 1313.31        3332.50           6633          52.00       198.34
 1313.34        3332.75           6637          56.00       215.78
 1313.37        3333.00           6641          55.00       211.42
 1313.41        3333.25           6644          57.00       220.14
 1313.44        3333.50           6648          54.00       207.06
 1313.47        3333.75           6652          58.00       224.50
 1313.50        3334.00           6656          56.00       215.78
 1313.53        3334.25           6659          87.00       350.92
 1313.56        3334.50           6663          92.00       372.72
 1313.59        3334.75           6667         105.00       429.39
 1313.62        3335.00           6671         150.00       625.56
 1313.65        3335.25           6674         165.00       690.95
 1313.68        3335.50           6678         198.00       834.81
 1313.71        3335.75           6682         220.00       930.71
 1313.74        3336.00           6686         281.00      1196.64
 1313.78        3336.25           6689         369.00      1580.28
 1313.81        3336.50           6693        1002.00      4340.15
 1313.84        3336.75           6697        2466.00     10724.90
 1313.87        3337.00           6701        4175.00     18181.23
 1313.90        3337.25           6704        5630.00     24532.00
 1313.93        3337.50           6708        7602.00     33143.23
 1313.96        3337.75           6712        9264.00     40404.22
 1313.99        3338.00           6716       11230.00     48997.44
 1314.02        3338.25           6719       12380.00     54026.03
 1314.05        3338.50           6723       14115.00     61615.53
 1314.09        3338.75           6727       15827.00     69107.83
 1314.12        3339.00           6731       17731.00     77444.32
 1314.15        3339.25           6734       19182.00     83800.22
 1314.18        3339.50           6738       20959.00     91587.39
 1314.21        3339.75           6742       22887.00    100040.40
 1314.24        3340.00           6746       24779.00    108339.80
 1314.27        3340.25           6750       26343.00    115203.50
 1314.30        3340.50           6753       27566.00    120572.70
 1314.33        3340.75           6757       29216.00    127819.20
 1314.37        3341.00           6761       30845.00    134976.60
 1314.40        3341.25           6765       31986.00    139991.70
 1314.43        3341.50           6768       32431.00    141948.00
 1314.46        3341.75           6772       32327.00    141490.80
 1314.49        3342.00           6776       31847.00    139380.60
 1314.52        3342.25           6780       30678.00    134242.70
 1314.55        3342.50           6783       29418.00    128706.60
 1314.58        3342.75           6787       27465.00    120129.20
 1314.61        3343.00           6791       25701.00    112385.70
 1314.64        3343.25           6795       23699.00    103601.80
 1314.68        3343.50           6798       22482.00     98264.41
 1314.71        3343.75           6802       20511.00     89623.83
 1314.74        3344.00           6806       18740.00     81863.85
 1314.77        3344.25           6810       16902.00     73814.11
 1314.80        3344.50           6814       15169.00     66227.80
 1314.83        3344.75           6817       13710.00     59843.62
 1314.86        3345.00           6821       12031.00     52499.80
 1314.89        3345.25           6825       10153.00     44289.41
 1314.92        3345.50           6829        8405.00     36651.00
 1314.95        3345.75           6832        7026.00     30627.52
 1314.99        3346.00           6836        5224.00     22759.65
 1315.02        3346.25           6840        3522.00     15331.81
 1315.05        3346.50           6844        1739.00      7554.02
 1315.08        3346.75           6847         710.00      3066.98
 1315.11        3347.00           6851         282.00      1201.00
 1315.14        3347.25           6855         180.00       756.34
 1315.17        3347.50           6859         144.00       599.40
 1315.20        3347.75           6863         124.00       512.21
 1315.23        3348.00           6866          80.00       320.40
 1315.26        3348.25           6870          63.00       246.30
 1315.29        3348.50           6874          80.00       320.40
 1315.32        3348.75           6878          56.00       215.78
 1315.36        3349.00           6881          58.00       224.50
 1315.39        3349.25           6885          63.00       246.30
 1315.42        3349.50           6889          58.00       224.50
 1315.45        3349.75           6893          61.00       237.58
 1315.48        3350.00           6896          52.00       198.34
 1315.51        3350.25           6900          57.00       220.14
 1315.54        3350.50           6904          55.00       211.42
 1315.57        3350.75           6908          54.00       207.06
 1315.60        3351.00           6912          62.00       241.94
HL scan finished at 21:56:16
end
