************************************************************
  HL Scan of (1) Internal mercury lamp
************************************************************
Integration time is 0.2294 seconds per sample
dh030617El Arenosillo 37.1 6.73 3.072425pr1000
************************************************************
Dead Time -------------------------  3E-08 
Number of Cycles Used -------------  4 
Starting Wavelength (Angstroms) ---  3331 
Final Wavelength (Angstoms) -------  3351 
Wavelength Increment (Angstroms) --  .25 
Filter Wheel #1 Position ---------- (1) Ground quartz diffuser (ND=2.32)
Filter Wheel #2 Position ---------- 



************************************************************
HL scan start time = 02:06:51
Dark Count =  6.1 


Time (GMT)  Wavelength (Ang)  Step Number  Raw Counts  Counts/Second

  127.37        3331.00           6610          58.00       226.24
  127.59        3331.25           6614          49.00       187.01
  127.62        3331.50           6618          57.00       221.88
  127.65        3331.75           6622          58.00       226.24
  127.68        3332.00           6626          55.00       213.17
  127.71        3332.25           6629          57.00       221.88
  127.75        3332.50           6633          47.00       178.29
  127.78        3332.75           6637          51.00       195.73
  127.81        3333.00           6641          55.00       213.17
  127.84        3333.25           6644          61.00       239.32
  127.87        3333.50           6648          55.00       213.17
  127.90        3333.75           6652          52.00       200.09
  127.93        3334.00           6656          52.00       200.09
  127.96        3334.25           6659          77.00       309.07
  127.99        3334.50           6663          94.00       383.18
  128.02        3334.75           6667         119.00       492.16
  128.05        3335.00           6671         136.00       566.27
  128.08        3335.25           6674         169.00       710.13
  128.12        3335.50           6678         193.00       814.75
  128.15        3335.75           6682         215.00       910.66
  128.18        3336.00           6686         255.00      1085.04
  128.21        3336.25           6689         319.00      1364.05
  128.24        3336.50           6693         774.00      3347.76
  128.27        3336.75           6697        2071.00      9003.74
  128.30        3337.00           6701        3689.00     16062.23
  128.33        3337.25           6704        5099.00     22215.76
  128.36        3337.50           6708        6923.00     30179.45
  128.39        3337.75           6712        8523.00     37168.28
  128.43        3338.00           6716       10104.00     44076.99
  128.46        3338.25           6719       11306.00     49331.46
  128.49        3338.50           6723       12872.00     56179.62
  128.52        3338.75           6727       14731.00     64312.72
  128.55        3339.00           6731       16485.00     71990.10
  128.58        3339.25           6734       17666.00     77161.41
  128.61        3339.50           6738       19334.00     84467.92
  128.64        3339.75           6742       20977.00     91668.06
  128.67        3340.00           6746       22758.00     99476.46
  128.71        3340.25           6750       24348.00    106450.60
  128.74        3340.50           6753       25735.00    112536.70
  128.77        3340.75           6757       27305.00    119428.40
  128.80        3341.00           6761       28927.00    126551.50
  128.83        3341.25           6765       29810.00    130430.50
  128.86        3341.50           6768       30207.00    132174.80
  128.89        3341.75           6772       30104.00    131722.20
  128.92        3342.00           6776       29790.00    130342.60
  128.95        3342.25           6780       28698.00    125545.60
  128.98        3342.50           6783       27664.00    121004.70
  129.02        3342.75           6787       25956.00    113506.60
  129.05        3343.00           6791       24273.00    106121.60
  129.08        3343.25           6795       22541.00     98524.88
  129.11        3343.50           6798       21256.00     92891.02
  129.14        3343.75           6802       19512.00     85247.83
  129.17        3344.00           6806       17801.00     77752.65
  129.20        3344.25           6810       16258.00     70996.31
  129.23        3344.50           6814       14504.00     63319.39
  129.26        3344.75           6817       13211.00     57662.44
  129.30        3345.00           6821       11546.00     50380.80
  129.33        3345.25           6825        9815.00     42813.89
  129.36        3345.50           6829        8005.00     34905.32
  129.39        3345.75           6832        6692.00     29170.68
  129.42        3346.00           6836        4981.00     21700.70
  129.45        3346.25           6840        3353.00     14596.19
  129.48        3346.50           6844        1783.00      7747.66
  129.51        3346.75           6847         807.00      3491.65
  129.54        3347.00           6851         313.00      1337.89
  129.58        3347.25           6855         175.00       736.28
  129.61        3347.50           6859         131.00       544.47
  129.64        3347.75           6863         120.00       496.52
  129.67        3348.00           6866          76.00       304.71
  129.70        3348.25           6870          63.00       248.04
  129.73        3348.50           6874          62.00       243.68
  129.76        3348.75           6878          60.00       234.96
  129.79        3349.00           6881          57.00       221.88
  129.82        3349.25           6885          55.00       213.17
  129.85        3349.50           6889          49.00       187.01
  129.88        3349.75           6893          57.00       221.88
  129.92        3350.00           6896          61.00       239.32
  129.95        3350.25           6900          59.00       230.60
  129.98        3350.50           6904          54.00       208.81
  130.01        3350.75           6908          62.00       243.68
  130.04        3351.00           6912          57.00       221.88
HL scan finished at 02:10:42
end
