************************************************************
  HL Scan of (1) Internal mercury lamp
************************************************************
Integration time is 0.2294 seconds per sample
dh010617El Arenosillo 37.1 6.73 3.018777pr1000
************************************************************
Dead Time -------------------------  3E-08 
Number of Cycles Used -------------  4 
Starting Wavelength (Angstroms) ---  3331 
Final Wavelength (Angstoms) -------  3351 
Wavelength Increment (Angstroms) --  .25 
Filter Wheel #1 Position ---------- (1) Ground quartz diffuser (ND=2.32)
Filter Wheel #2 Position ---------- 



************************************************************
HL scan start time = 01:11:08
Dark Count =  6.4 


Time (GMT)  Wavelength (Ang)  Step Number  Raw Counts  Counts/Second

   71.66        3331.00           6610          49.00       185.70
   71.88        3331.25           6614          58.00       224.94
   71.91        3331.50           6618          60.00       233.65
   71.94        3331.75           6622          54.00       207.50
   71.97        3332.00           6626          49.00       185.70
   72.00        3332.25           6629          54.00       207.50
   72.04        3332.50           6633          56.00       216.22
   72.07        3332.75           6637          57.00       220.58
   72.10        3333.00           6641          54.00       207.50
   72.13        3333.25           6644          58.00       224.94
   72.16        3333.50           6648          55.00       211.86
   72.19        3333.75           6652          57.00       220.58
   72.22        3334.00           6656          61.00       238.01
   72.25        3334.25           6659          70.00       277.25
   72.28        3334.50           6663          90.00       364.43
   72.31        3334.75           6667         103.00       421.10
   72.34        3335.00           6671         129.00       534.45
   72.37        3335.25           6674         169.00       708.82
   72.41        3335.50           6678         196.00       826.52
   72.44        3335.75           6682         220.00       931.15
   72.47        3336.00           6686         268.00      1140.41
   72.50        3336.25           6689         345.00      1476.09
   72.53        3336.50           6693         715.00      3089.21
   72.56        3336.75           6697        2080.00      9041.69
   72.59        3337.00           6701        4014.00     17479.09
   72.62        3337.25           6704        5359.00     23349.39
   72.65        3337.50           6708        7231.00     31523.26
   72.68        3337.75           6712        9027.00     39369.05
   72.71        3338.00           6716       10712.00     46733.30
   72.75        3338.25           6719       12159.00     53059.99
   72.78        3338.50           6723       13969.00     60977.18
   72.81        3338.75           6727       15734.00     68701.18
   72.84        3339.00           6731       17616.00     76941.13
   72.87        3339.25           6734       18942.00     82749.20
   72.90        3339.50           6738       20624.00     90119.52
   72.93        3339.75           6742       22548.00     98554.26
   72.96        3340.00           6746       24424.00    106782.70
   72.99        3340.25           6750       26228.00    114699.20
   73.03        3340.50           6753       27507.00    120314.10
   73.06        3340.75           6757       29219.00    127832.80
   73.09        3341.00           6761       30916.00    135289.10
   73.12        3341.25           6765       32216.00    141003.20
   73.15        3341.50           6768       32388.00    141759.40
   73.18        3341.75           6772       32391.00    141772.60
   73.21        3342.00           6776       32113.00    140550.40
   73.24        3342.25           6780       30768.00    134638.60
   73.27        3342.50           6783       29502.00    129076.00
   73.31        3342.75           6787       27644.00    120915.60
   73.34        3343.00           6791       26124.00    114242.70
   73.37        3343.25           6795       24064.00    105203.40
   73.40        3343.50           6798       22655.00     99023.47
   73.43        3343.75           6802       20929.00     91456.34
   73.46        3344.00           6806       19060.00     83266.16
   73.49        3344.25           6810       17298.00     75548.54
   73.52        3344.50           6814       15498.00     67668.19
   73.55        3344.75           6817       14058.00     61366.58
   73.59        3345.00           6821       12292.00     53641.62
   73.62        3345.25           6825       10494.00     45780.36
   73.65        3345.50           6829        8856.00     38621.88
   73.68        3345.75           6832        7313.00     31881.40
   73.71        3346.00           6836        5380.00     23441.07
   73.74        3346.25           6840        3525.00     15345.34
   73.77        3346.50           6844        1783.00      7746.35
   73.80        3346.75           6847         781.00      3376.98
   73.83        3347.00           6851         323.00      1380.18
   73.86        3347.25           6855         197.00       830.88
   73.90        3347.50           6859         157.00       656.51
   73.93        3347.75           6863         114.00       469.06
   73.96        3348.00           6866         108.00       442.90
   73.99        3348.25           6870          79.00       316.48
   74.02        3348.50           6874          60.00       233.65
   74.05        3348.75           6878          65.00       255.45
   74.08        3349.00           6881          62.00       242.37
   74.11        3349.25           6885          61.00       238.01
   74.14        3349.50           6889          61.00       238.01
   74.17        3349.75           6893          58.00       224.94
   74.21        3350.00           6896          59.00       229.30
   74.24        3350.25           6900          57.00       220.58
   74.27        3350.50           6904          54.00       207.50
   74.30        3350.75           6908          57.00       220.58
   74.33        3351.00           6912          48.00       181.34
HL scan finished at 01:15:00
end
************************************************************
  HL Scan of (1) Internal mercury lamp
************************************************************
Integration time is 0.2294 seconds per sample
dh010617El Arenosillo 37.1 6.73 3.072425pr1000
************************************************************
Dead Time -------------------------  3E-08 
Number of Cycles Used -------------  4 
Starting Wavelength (Angstroms) ---  3331 
Final Wavelength (Angstoms) -------  3351 
Wavelength Increment (Angstroms) --  .25 
Filter Wheel #1 Position ---------- (1) Ground quartz diffuser (ND=2.32)
Filter Wheel #2 Position ---------- 



************************************************************
HL scan start time = 02:13:34
Dark Count =  6.5 


Time (GMT)  Wavelength (Ang)  Step Number  Raw Counts  Counts/Second

  134.09        3331.00           6610          50.00       189.63
  134.31        3331.25           6614          60.00       233.22
  134.34        3331.50           6618          55.00       211.42
  134.37        3331.75           6622          50.00       189.63
  134.40        3332.00           6626          50.00       189.63
  134.43        3332.25           6629          53.00       202.70
  134.47        3332.50           6633          51.00       193.99
  134.50        3332.75           6637          50.00       189.63
  134.53        3333.00           6641          49.00       185.27
  134.56        3333.25           6644          49.00       185.27
  134.59        3333.50           6648          61.00       237.58
  134.62        3333.75           6652          56.00       215.78
  134.65        3334.00           6656          71.00       281.17
  134.68        3334.25           6659          84.00       337.84
  134.71        3334.50           6663         104.00       425.03
  134.74        3334.75           6667         126.00       520.93
  134.77        3335.00           6671         152.00       634.28
  134.80        3335.25           6674         181.00       760.70
  134.83        3335.50           6678         191.00       804.29
  134.86        3335.75           6682         254.00      1078.94
  134.89        3336.00           6686         285.00      1214.08
  134.92        3336.25           6689         349.00      1493.09
  134.96        3336.50           6693         933.00      4039.29
  134.99        3336.75           6697        2366.00     10288.70
  135.02        3337.00           6701        3988.00     17365.19
  135.05        3337.25           6704        5461.00     23794.23
  135.08        3337.50           6708        7083.00     30876.45
  135.11        3337.75           6712        8904.00     38831.18
  135.14        3338.00           6716       10629.00     46370.05
  135.17        3338.25           6719       11833.00     51633.98
  135.21        3338.50           6723       13481.00     58841.80
  135.24        3338.75           6727       15156.00     66170.90
  135.27        3339.00           6731       16670.00     72798.31
  135.30        3339.25           6734       17935.00     78337.78
  135.33        3339.50           6738       19617.00     85706.13
  135.36        3339.75           6742       21647.00     94603.34
  135.39        3340.00           6746       23253.00    101645.60
  135.42        3340.25           6750       24936.00    109028.70
  135.45        3340.50           6753       25951.00    113482.90
  135.49        3340.75           6757       27685.00    121095.20
  135.52        3341.00           6761       29106.00    127336.00
  135.55        3341.25           6765       30130.00    131834.70
  135.58        3341.50           6768       30225.00    132252.10
  135.61        3341.75           6772       30167.00    131997.30
  135.64        3342.00           6776       29791.00    130345.20
  135.67        3342.25           6780       28536.00    124832.40
  135.70        3342.50           6783       27267.00    119259.80
  135.73        3342.75           6787       25658.00    112197.00
  135.76        3343.00           6791       23996.00    104904.60
  135.80        3343.25           6795       22206.00     97054.19
  135.83        3343.50           6798       20725.00     90561.76
  135.86        3343.75           6802       19133.00     83585.53
  135.89        3344.00           6806       17475.00     76323.21
  135.92        3344.25           6810       15652.00     68341.81
  135.95        3344.50           6814       14007.00     61143.00
  135.98        3344.75           6817       12704.00     55443.06
  136.01        3345.00           6821       11113.00     48485.91
  136.04        3345.25           6825        9454.00     41234.50
  136.07        3345.50           6829        7790.00     33964.41
  136.10        3345.75           6832        6361.00     27723.57
  136.14        3346.00           6836        4760.00     20734.34
  136.17        3346.25           6840        3097.00     13477.55
  136.20        3346.50           6844        1560.00      6773.39
  136.23        3346.75           6847         713.00      3080.06
  136.26        3347.00           6851         259.00      1100.73
  136.29        3347.25           6855         142.00       590.68
  136.32        3347.50           6859         122.00       503.50
  136.35        3347.75           6863         100.00       407.59
  136.38        3348.00           6866          65.00       255.02
  136.41        3348.25           6870          55.00       211.42
  136.45        3348.50           6874          60.00       233.22
  136.48        3348.75           6878          54.00       207.06
  136.51        3349.00           6881          60.00       233.22
  136.54        3349.25           6885          60.00       233.22
  136.57        3349.50           6889          50.00       189.63
  136.60        3349.75           6893          55.00       211.42
  136.63        3350.00           6896          55.00       211.42
  136.66        3350.25           6900          55.00       211.42
  136.69        3350.50           6904          53.00       202.70
  136.72        3350.75           6908          61.00       237.58
  136.75        3351.00           6912          57.00       220.14
HL scan finished at 02:17:25
end
************************************************************
  HL Scan of (1) Internal mercury lamp
************************************************************
Integration time is 0.2294 seconds per sample
dh010617El Arenosillo 37.1 6.73 3.179721pr1000
************************************************************
Dead Time -------------------------  3E-08 
Number of Cycles Used -------------  4 
Starting Wavelength (Angstroms) ---  3331 
Final Wavelength (Angstoms) -------  3351 
Wavelength Increment (Angstroms) --  .25 
Filter Wheel #1 Position ---------- (1) Ground quartz diffuser (ND=2.32)
Filter Wheel #2 Position ---------- 



************************************************************
HL scan start time = 21:51:37
Dark Count =  5.4 


Time (GMT)  Wavelength (Ang)  Step Number  Raw Counts  Counts/Second

 1312.14        3331.00           6610          58.00       229.30
 1312.36        3331.25           6614          63.00       251.09
 1312.39        3331.50           6618          56.00       220.58
 1312.42        3331.75           6622          55.00       216.22
 1312.45        3332.00           6626          56.00       220.58
 1312.48        3332.25           6629          55.00       216.22
 1312.51        3332.50           6633          57.00       224.94
 1312.54        3332.75           6637          56.00       220.58
 1312.58        3333.00           6641          62.00       246.73
 1312.61        3333.25           6644          56.00       220.58
 1312.64        3333.50           6648          55.00       216.22
 1312.67        3333.75           6652          55.00       216.22
 1312.70        3334.00           6656          60.00       238.01
 1312.73        3334.25           6659          81.00       329.56
 1312.76        3334.50           6663         106.00       438.54
 1312.79        3334.75           6667         127.00       530.09
 1312.82        3335.00           6671         156.00       656.51
 1312.85        3335.25           6674         187.00       791.65
 1312.88        3335.50           6678         216.00       918.07
 1312.91        3335.75           6682         256.00      1092.45
 1312.95        3336.00           6686         283.00      1210.16
 1312.98        3336.25           6689         372.00      1598.16
 1313.01        3336.50           6693         990.00      4292.62
 1313.04        3336.75           6697        2608.00     11349.11
 1313.07        3337.00           6701        4363.00     19006.48
 1313.10        3337.25           6704        5728.00     24964.64
 1313.13        3337.50           6708        7491.00     32663.20
 1313.16        3337.75           6712        9438.00     41169.39
 1313.19        3338.00           6716       11142.00     48617.51
 1313.22        3338.25           6719       12631.00     55128.59
 1313.25        3338.50           6723       14509.00     63344.32
 1313.29        3338.75           6727       16159.00     70565.97
 1313.32        3339.00           6731       18026.00     78741.15
 1313.35        3339.25           6734       19286.00     84260.68
 1313.38        3339.50           6738       21007.00     91802.62
 1313.41        3339.75           6742       23006.00    100567.10
 1313.44        3340.00           6746       24960.00    109138.80
 1313.47        3340.25           6750       26715.00    116841.30
 1313.50        3340.50           6753       28066.00    122773.10
 1313.53        3340.75           6757       29935.00    130982.70
 1313.56        3341.00           6761       31497.00    137847.00
 1313.59        3341.25           6765       32537.00    142418.90
 1313.63        3341.50           6768       33041.00    144635.00
 1313.66        3341.75           6772       32773.00    143456.50
 1313.69        3342.00           6776       32431.00    141952.90
 1313.72        3342.25           6780       31129.00    136229.60
 1313.75        3342.50           6783       29789.00    130341.30
 1313.78        3342.75           6787       27854.00    121842.10
 1313.81        3343.00           6791       25923.00    113364.90
 1313.84        3343.25           6795       24182.00    105725.40
 1313.87        3343.50           6798       22765.00     99510.22
 1313.90        3343.75           6802       20912.00     91386.21
 1313.94        3344.00           6806       19018.00     83086.53
 1313.97        3344.25           6810       17293.00     75531.03
 1314.00        3344.50           6814       15308.00     66840.96
 1314.03        3344.75           6817       13905.00     60701.55
 1314.06        3345.00           6821       12135.00     52959.40
 1314.09        3345.25           6825       10264.00     44779.39
 1314.12        3345.50           6829        8477.00     36970.36
 1314.15        3345.75           6832        7042.00     30702.20
 1314.18        3346.00           6836        5150.00     22441.43
 1314.22        3346.25           6840        3293.00     14337.47
 1314.25        3346.50           6844        1527.00      6634.28
 1314.28        3346.75           6847         606.00      2618.34
 1314.31        3347.00           6851         247.00      1053.22
 1314.34        3347.25           6855         167.00       704.46
 1314.37        3347.50           6859         123.00       512.65
 1314.40        3347.75           6863         114.00       473.42
 1314.43        3348.00           6866          81.00       329.56
 1314.46        3348.25           6870          59.00       233.65
 1314.49        3348.50           6874          62.00       246.73
 1314.52        3348.75           6878          52.00       203.14
 1314.55        3349.00           6881          62.00       246.73
 1314.58        3349.25           6885          57.00       224.94
 1314.62        3349.50           6889          54.00       211.86
 1314.65        3349.75           6893          66.00       264.17
 1314.68        3350.00           6896          62.00       246.73
 1314.71        3350.25           6900          60.00       238.01
 1314.74        3350.50           6904          50.00       194.42
 1314.77        3350.75           6908          55.00       216.22
 1314.80        3351.00           6912          59.00       233.65
HL scan finished at 21:55:28
end
