************************************************************
  HL Scan of (1) Internal mercury lamp
************************************************************
Integration time is 0.2294 seconds per sample
dh300517El Arenosillo 37.1 6.73 2.965129pr1000
************************************************************
Dead Time -------------------------  3E-08 
Number of Cycles Used -------------  4 
Starting Wavelength (Angstroms) ---  3331 
Final Wavelength (Angstoms) -------  3351 
Wavelength Increment (Angstroms) --  .25 
Filter Wheel #1 Position ---------- (1) Ground quartz diffuser (ND=2.32)
Filter Wheel #2 Position ---------- 



************************************************************
HL scan start time = 03:37:23
Dark Count =  5.1 


Time (GMT)  Wavelength (Ang)  Step Number  Raw Counts  Counts/Second

  217.91        3331.00           6610          53.00       208.81
  218.14        3331.25           6614          57.00       226.24
  218.17        3331.50           6618          50.00       195.73
  218.20        3331.75           6622          56.00       221.88
  218.23        3332.00           6626          53.00       208.81
  218.26        3332.25           6629          51.00       200.09
  218.29        3332.50           6633          59.00       234.96
  218.32        3332.75           6637          60.00       239.32
  218.35        3333.00           6641          54.00       213.17
  218.38        3333.25           6644          53.00       208.81
  218.41        3333.50           6648          52.00       204.45
  218.44        3333.75           6652          56.00       221.88
  218.48        3334.00           6656          66.00       265.48
  218.51        3334.25           6659          73.00       295.99
  218.54        3334.50           6663         100.00       413.69
  218.57        3334.75           6667         108.00       448.57
  218.60        3335.00           6671         128.00       535.75
  218.63        3335.25           6674         169.00       714.49
  218.66        3335.50           6678         197.00       836.55
  218.69        3335.75           6682         213.00       906.30
  218.72        3336.00           6686         255.00      1089.40
  218.75        3336.25           6689         372.00      1599.47
  218.78        3336.50           6693         957.00      4150.04
  218.81        3336.75           6697        2307.00     10037.46
  218.84        3337.00           6701        3849.00     16764.75
  218.88        3337.25           6704        5129.00     22351.08
  218.91        3337.50           6708        6567.00     28629.20
  218.94        3337.75           6712        8019.00     34970.85
  218.97        3338.00           6716        9455.00     41244.99
  219.00        3338.25           6719       10512.00     45864.73
  219.03        3338.50           6723       12141.00     52986.96
  219.06        3338.75           6727       13648.00     59578.50
  219.09        3339.00           6731       15049.00     65708.75
  219.12        3339.25           6734       16412.00     71674.88
  219.15        3339.50           6738       18061.00     78895.76
  219.18        3339.75           6742       19461.00     85028.74
  219.21        3340.00           6746       20963.00     91611.07
  219.24        3340.25           6750       22340.00     97647.88
  219.27        3340.50           6753       23418.00    102375.40
  219.31        3340.75           6757       24867.00    108732.10
  219.34        3341.00           6761       26260.00    114845.30
  219.37        3341.25           6765       27124.00    118638.20
  219.40        3341.50           6768       27412.00    119902.60
  219.43        3341.75           6772       27241.00    119151.80
  219.46        3342.00           6776       26770.00    117084.00
  219.49        3342.25           6780       25566.00    111799.40
  219.52        3342.50           6783       24235.00    105959.20
  219.55        3342.75           6787       22811.00     99713.28
  219.59        3343.00           6791       21458.00     93780.91
  219.62        3343.25           6795       19766.00     86365.16
  219.65        3343.50           6798       18555.00     81059.56
  219.68        3343.75           6802       17138.00     74853.61
  219.71        3344.00           6806       15464.00     67525.06
  219.74        3344.25           6810       14059.00     61376.64
  219.77        3344.50           6814       12611.00     55042.43
  219.80        3344.75           6817       11441.00     49926.08
  219.83        3345.00           6821        9854.00     42988.71
  219.86        3345.25           6825        8363.00     36473.63
  219.90        3345.50           6829        6714.00     29271.12
  219.93        3345.75           6832        5590.00     24363.49
  219.96        3346.00           6836        4034.00     17572.03
  219.99        3346.25           6840        2511.00     10927.30
  220.02        3346.50           6844        1121.00      4865.14
  220.05        3346.75           6847         488.00      2105.19
  220.08        3347.00           6851         228.00       971.69
  220.11        3347.25           6855         152.00       640.38
  220.14        3347.50           6859         132.00       553.19
  220.17        3347.75           6863          85.00       348.30
  220.21        3348.00           6866          64.00       256.76
  220.24        3348.25           6870          60.00       239.32
  220.27        3348.50           6874          57.00       226.24
  220.30        3348.75           6878          50.00       195.73
  220.33        3349.00           6881          53.00       208.81
  220.36        3349.25           6885          63.00       252.40
  220.39        3349.50           6889          56.00       221.88
  220.42        3349.75           6893          53.00       208.81
  220.45        3350.00           6896          53.00       208.81
  220.49        3350.25           6900          52.00       204.45
  220.52        3350.50           6904          52.00       204.45
  220.55        3350.75           6908          54.00       213.17
  220.58        3351.00           6912          60.00       239.32
HL scan finished at 03:41:14
end
************************************************************
  HL Scan of (1) Internal mercury lamp
************************************************************
Integration time is 0.2294 seconds per sample
dh300517El Arenosillo 37.1 6.73 3.179721pr1000
************************************************************
Dead Time -------------------------  3E-08 
Number of Cycles Used -------------  4 
Starting Wavelength (Angstroms) ---  3331 
Final Wavelength (Angstoms) -------  3351 
Wavelength Increment (Angstroms) --  .25 
Filter Wheel #1 Position ---------- (1) Ground quartz diffuser (ND=2.32)
Filter Wheel #2 Position ---------- 



************************************************************
HL scan start time = 20:32:10
Dark Count =  3.9 


Time (GMT)  Wavelength (Ang)  Step Number  Raw Counts  Counts/Second

 1232.70        3331.00           6610          61.00       248.91
 1232.92        3331.25           6614          49.00       196.60
 1232.95        3331.50           6618          62.00       253.27
 1232.98        3331.75           6622          58.00       235.83
 1233.01        3332.00           6626          52.00       209.68
 1233.04        3332.25           6629          55.00       222.76
 1233.07        3332.50           6633          57.00       231.48
 1233.10        3332.75           6637          49.00       196.60
 1233.13        3333.00           6641          59.00       240.19
 1233.16        3333.25           6644          56.00       227.12
 1233.19        3333.50           6648          57.00       231.48
 1233.23        3333.75           6652          58.00       235.83
 1233.26        3334.00           6656          57.00       231.48
 1233.29        3334.25           6659          73.00       301.22
 1233.32        3334.50           6663         105.00       440.72
 1233.35        3334.75           6667         116.00       488.67
 1233.38        3335.00           6671         148.00       628.17
 1233.41        3335.25           6674         175.00       745.88
 1233.44        3335.50           6678         187.00       798.19
 1233.47        3335.75           6682         230.00       985.64
 1233.50        3336.00           6686         287.00      1234.13
 1233.53        3336.25           6689         370.00      1595.98
 1233.57        3336.50           6693         935.00      4059.34
 1233.60        3336.75           6697        2550.00     11102.65
 1233.63        3337.00           6701        4294.00     18711.90
 1233.66        3337.25           6704        5593.00     24381.82
 1233.69        3337.50           6708        7265.00     31682.67
 1233.72        3337.75           6712        8729.00     38077.91
 1233.75        3338.00           6716       10590.00     46210.92
 1233.78        3338.25           6719       11997.00     52362.49
 1233.81        3338.50           6723       13859.00     60506.86
 1233.84        3338.75           6727       15482.00     67609.10
 1233.88        3339.00           6731       17371.00     75879.16
 1233.91        3339.25           6734       18595.00     81240.04
 1233.94        3339.50           6738       20338.00     88877.02
 1233.97        3339.75           6742       22194.00     97012.98
 1234.00        3340.00           6746       23842.00    104240.50
 1234.03        3340.25           6750       25668.00    112252.30
 1234.06        3340.50           6753       26711.00    116830.30
 1234.09        3340.75           6757       28439.00    124417.80
 1234.12        3341.00           6761       30230.00    132285.50
 1234.16        3341.25           6765       31327.00    137106.40
 1234.19        3341.50           6768       31809.00    139225.00
 1234.22        3341.75           6772       31479.00    137774.50
 1234.25        3342.00           6776       31062.00    135941.70
 1234.28        3342.25           6780       29573.00    129398.90
 1234.31        3342.50           6783       28646.00    125326.90
 1234.34        3342.75           6787       26730.00    116913.70
 1234.37        3343.00           6791       25096.00    109742.10
 1234.40        3343.25           6795       23063.00    100823.70
 1234.44        3343.50           6798       21930.00     95855.47
 1234.47        3343.75           6802       20145.00     88031.22
 1234.50        3344.00           6806       18354.00     80184.37
 1234.53        3344.25           6810       16585.00     72437.54
 1234.56        3344.50           6814       14633.00     63893.50
 1234.59        3344.75           6817       13362.00     58332.60
 1234.62        3345.00           6821       11580.00     50539.08
 1234.65        3345.25           6825        9974.00     43518.42
 1234.68        3345.50           6829        8198.00     35758.04
 1234.72        3345.75           6832        6818.00     29730.52
 1234.75        3346.00           6836        4983.00     21719.03
 1234.78        3346.25           6840        3106.00     13528.16
 1234.81        3346.50           6844        1554.00      6758.56
 1234.84        3346.75           6847         616.00      2668.48
 1234.87        3347.00           6851         255.00      1094.63
 1234.90        3347.25           6855         164.00       697.92
 1234.93        3347.50           6859         132.00       558.42
 1234.96        3347.75           6863         115.00       484.31
 1234.99        3348.00           6866          83.00       344.82
 1235.02        3348.25           6870          65.00       266.35
 1235.05        3348.50           6874          58.00       235.83
 1235.09        3348.75           6878          54.00       218.40
 1235.12        3349.00           6881          56.00       227.12
 1235.15        3349.25           6885          65.00       266.35
 1235.18        3349.50           6889          50.00       200.96
 1235.21        3349.75           6893          59.00       240.19
 1235.24        3350.00           6896          63.00       257.63
 1235.27        3350.25           6900          63.00       257.63
 1235.30        3350.50           6904          54.00       218.40
 1235.33        3350.75           6908          67.00       275.07
 1235.36        3351.00           6912          59.00       240.19
HL scan finished at 20:36:02
end
