************************************************************
  HL Scan of (1) Internal mercury lamp
************************************************************
Integration time is 0.2294 seconds per sample
dh080618Manchester 53.47 2.23 2.804185pr1000
************************************************************
Dead Time -------------------------  3E-08 
Number of Cycles Used -------------  4 
Starting Wavelength (Angstroms) ---  3331 
Final Wavelength (Angstoms) -------  3351 
Wavelength Increment (Angstroms) --  .25 
Filter Wheel #1 Position ---------- (1) Ground quartz diffuser (ND=2.32)
Filter Wheel #2 Position ---------- 



************************************************************
HL scan start time = 00:54:30
Dark Count =  7.6 


Time (GMT)  Wavelength (Ang)  Step Number  Raw Counts  Counts/Second

   55.02        3331.00           6610          52.00       193.55
   55.25        3331.25           6614          49.00       180.47
   55.28        3331.50           6618          49.00       180.47
   55.31        3331.75           6622          47.00       171.75
   55.34        3332.00           6626          51.00       189.19
   55.37        3332.25           6629          50.00       184.83
   55.40        3332.50           6633          53.00       197.91
   55.43        3332.75           6637          54.00       202.27
   55.46        3333.00           6641          61.00       232.78
   55.50        3333.25           6644          47.00       171.75
   55.53        3333.50           6648          42.00       149.96
   55.56        3333.75           6652          52.00       193.55
   55.59        3334.00           6656          50.00       184.83
   55.62        3334.25           6659          66.00       254.58
   55.65        3334.50           6663          77.00       302.53
   55.68        3334.75           6667         101.00       407.15
   55.71        3335.00           6671         119.00       485.62
   55.74        3335.25           6674         148.00       612.04
   55.77        3335.50           6678         153.00       633.84
   55.80        3335.75           6682         179.00       747.18
   55.84        3336.00           6686         231.00       973.87
   55.87        3336.25           6689         256.00      1082.86
   55.90        3336.50           6693         598.00      2573.87
   55.93        3336.75           6697        1813.00      7871.95
   55.96        3337.00           6701        3119.00     13568.73
   55.99        3337.25           6704        4121.00     17940.78
   56.02        3337.50           6708        5420.00     23610.44
   56.06        3337.75           6712        6639.00     28932.69
   56.09        3338.00           6716        8097.00     35300.66
   56.12        3338.25           6719        9199.00     40115.38
   56.15        3338.50           6723       10513.00     45858.17
   56.18        3338.75           6727       11916.00     51992.10
   56.21        3339.00           6731       13455.00     58723.24
   56.24        3339.25           6734       14445.00     63054.65
   56.27        3339.50           6738       15819.00     69068.00
   56.30        3339.75           6742       17157.00     74925.86
   56.34        3340.00           6746       18547.00     81013.58
   56.37        3340.25           6750       20093.00     87787.12
   56.40        3340.50           6753       20901.00     91328.35
   56.43        3340.75           6757       22206.00     97049.38
   56.46        3341.00           6761       23450.00    102504.80
   56.49        3341.25           6765       24701.00    107992.70
   56.52        3341.50           6768       24920.00    108953.60
   56.55        3341.75           6772       24823.00    108528.00
   56.58        3342.00           6776       24764.00    108269.20
   56.62        3342.25           6780       23689.00    103553.10
   56.65        3342.50           6783       22782.00     99575.13
   56.68        3342.75           6787       21488.00     93901.47
   56.71        3343.00           6791       19979.00     87287.56
   56.74        3343.25           6795       18686.00     81622.46
   56.77        3343.50           6798       17461.00     76257.09
   56.80        3343.75           6802       16006.00     69886.56
   56.83        3344.00           6806       14707.00     64201.13
   56.86        3344.25           6810       13322.00     58141.44
   56.90        3344.50           6814       11840.00     51659.78
   56.93        3344.75           6817       10924.00     47654.83
   56.96        3345.00           6821        9407.00     41024.31
   56.99        3345.25           6825        8127.00     35431.71
   57.02        3345.50           6829        6654.00     28998.19
   57.05        3345.75           6832        5538.00     24125.56
   57.08        3346.00           6836        4174.00     18172.07
   57.11        3346.25           6840        2728.00     11862.98
   57.14        3346.50           6844        1454.00      6306.34
   57.18        3346.75           6847         672.00      2896.50
   57.21        3347.00           6851         228.00       960.79
   57.24        3347.25           6855         131.00       537.93
   57.27        3347.50           6859         109.00       442.03
   57.30        3347.75           6863          92.00       367.92
   57.33        3348.00           6866          75.00       293.81
   57.36        3348.25           6870          58.00       219.71
   57.39        3348.50           6874          55.00       206.63
   57.43        3348.75           6878          53.00       197.91
   57.46        3349.00           6881          48.00       176.11
   57.49        3349.25           6885          52.00       193.55
   57.52        3349.50           6889          50.00       184.83
   57.55        3349.75           6893          58.00       219.71
   57.58        3350.00           6896          51.00       189.19
   57.61        3350.25           6900          54.00       202.27
   57.64        3350.50           6904          50.00       184.83
   57.67        3350.75           6908          58.00       219.71
   57.71        3351.00           6912          48.00       176.11
HL scan finished at 00:58:22
end
