************************************************************
  HL Scan of (1) Internal mercury lamp
************************************************************
Integration time is 0.2294 seconds per sample
dh310517El Arenosillo 37.1 6.73 3.018777pr1000
************************************************************
Dead Time -------------------------  3E-08 
Number of Cycles Used -------------  4 
Starting Wavelength (Angstroms) ---  3331 
Final Wavelength (Angstoms) -------  3351 
Wavelength Increment (Angstroms) --  .25 
Filter Wheel #1 Position ---------- (1) Ground quartz diffuser (ND=2.32)
Filter Wheel #2 Position ---------- 



************************************************************
HL scan start time = 02:55:26
Dark Count =  5.8 


Time (GMT)  Wavelength (Ang)  Step Number  Raw Counts  Counts/Second

  175.96        3331.00           6610          61.00       240.63
  176.18        3331.25           6614          54.00       210.11
  176.21        3331.50           6618          54.00       210.11
  176.24        3331.75           6622          54.00       210.11
  176.27        3332.00           6626          57.00       223.19
  176.30        3332.25           6629          48.00       183.96
  176.33        3332.50           6633          57.00       223.19
  176.37        3332.75           6637          52.00       201.40
  176.40        3333.00           6641          55.00       214.47
  176.43        3333.25           6644          57.00       223.19
  176.46        3333.50           6648          50.00       192.68
  176.49        3333.75           6652          49.00       188.32
  176.52        3334.00           6656          62.00       244.99
  176.55        3334.25           6659          85.00       345.25
  176.58        3334.50           6663         102.00       419.36
  176.61        3334.75           6667         117.00       484.75
  176.64        3335.00           6671         147.00       615.53
  176.67        3335.25           6674         177.00       746.31
  176.70        3335.50           6678         189.00       798.62
  176.73        3335.75           6682         228.00       968.64
  176.76        3336.00           6686         273.00      1164.82
  176.80        3336.25           6689         355.00      1522.30
  176.83        3336.50           6693         943.00      4085.94
  176.86        3336.75           6697        2246.00      9768.34
  176.89        3337.00           6701        3932.00     17123.88
  176.92        3337.25           6704        5109.00     22260.72
  176.95        3337.50           6708        6767.00     29499.51
  176.98        3337.75           6712        8447.00     36837.55
  177.01        3338.00           6716       10106.00     44087.05
  177.04        3338.25           6719       11248.00     49079.19
  177.07        3338.50           6723       13013.00     56797.66
  177.11        3338.75           6727       14535.00     63456.35
  177.14        3339.00           6731       16223.00     70844.40
  177.17        3339.25           6734       17456.00     76243.06
  177.20        3339.50           6738       19227.00     84000.43
  177.23        3339.75           6742       20752.00     90683.16
  177.26        3340.00           6746       22407.00     97938.60
  177.29        3340.25           6750       24244.00    105995.60
  177.32        3340.50           6753       25272.00    110506.10
  177.35        3340.75           6757       26888.00    117599.00
  177.38        3341.00           6761       28356.00    124044.90
  177.41        3341.25           6765       29172.00    127629.00
  177.45        3341.50           6768       29023.00    126974.50
  177.48        3341.75           6772       29029.00    127000.80
  177.51        3342.00           6776       28643.00    125305.40
  177.54        3342.25           6780       27158.00    118784.40
  177.57        3342.50           6783       26216.00    114649.10
  177.60        3342.75           6787       24696.00    107978.70
  177.63        3343.00           6791       23091.00    100938.10
  177.66        3343.25           6795       21420.00     93611.26
  177.69        3343.50           6798       20021.00     87479.50
  177.72        3343.75           6802       18476.00     80710.45
  177.76        3344.00           6806       16900.00     73808.41
  177.79        3344.25           6810       15151.00     66152.08
  177.82        3344.50           6814       13601.00     59369.82
  177.85        3344.75           6817       12221.00     53333.75
  177.88        3345.00           6821       10639.00     46416.82
  177.91        3345.25           6825        9060.00     39515.87
  177.94        3345.50           6829        7361.00     32093.66
  177.97        3345.75           6832        6027.00     26268.30
  178.00        3346.00           6836        4569.00     19903.77
  178.04        3346.25           6840        2979.00     12965.81
  178.07        3346.50           6844        1381.00      5995.85
  178.10        3346.75           6847         630.00      2721.23
  178.13        3347.00           6851         254.00      1081.99
  178.16        3347.25           6855         155.00       650.41
  178.19        3347.50           6859         115.00       476.03
  178.22        3347.75           6863          85.00       345.25
  178.25        3348.00           6866          66.00       262.43
  178.28        3348.25           6870          59.00       231.91
  178.31        3348.50           6874          64.00       253.71
  178.35        3348.75           6878          48.00       183.96
  178.38        3349.00           6881          62.00       244.99
  178.41        3349.25           6885          59.00       231.91
  178.44        3349.50           6889          58.00       227.55
  178.47        3349.75           6893          56.00       218.83
  178.50        3350.00           6896          57.00       223.19
  178.53        3350.25           6900          55.00       214.47
  178.56        3350.50           6904          54.00       210.11
  178.59        3350.75           6908          56.00       218.83
  178.62        3351.00           6912          59.00       231.91
HL scan finished at 02:59:17
end
************************************************************
  HL Scan of (1) Internal mercury lamp
************************************************************
Integration time is 0.2294 seconds per sample
dh310517El Arenosillo 37.1 6.73 3.126073pr1000
************************************************************
Dead Time -------------------------  3E-08 
Number of Cycles Used -------------  4 
Starting Wavelength (Angstroms) ---  3331 
Final Wavelength (Angstoms) -------  3351 
Wavelength Increment (Angstroms) --  .25 
Filter Wheel #1 Position ---------- (1) Ground quartz diffuser (ND=2.32)
Filter Wheel #2 Position ---------- 



************************************************************
HL scan start time = 21:52:24
Dark Count =  5.5 


Time (GMT)  Wavelength (Ang)  Step Number  Raw Counts  Counts/Second

 1312.93        3331.00           6610          57.00       224.50
 1313.15        3331.25           6614          49.00       189.63
 1313.18        3331.50           6618          57.00       224.50
 1313.21        3331.75           6622          56.00       220.14
 1313.24        3332.00           6626          57.00       224.50
 1313.27        3332.25           6629          55.00       215.78
 1313.30        3332.50           6633          54.00       211.42
 1313.34        3332.75           6637          53.00       207.06
 1313.37        3333.00           6641          47.00       180.91
 1313.40        3333.25           6644          54.00       211.42
 1313.43        3333.50           6648          48.00       185.27
 1313.46        3333.75           6652          52.00       202.70
 1313.49        3334.00           6656          60.00       237.58
 1313.52        3334.25           6659          71.00       285.53
 1313.55        3334.50           6663          98.00       403.23
 1313.58        3334.75           6667         116.00       481.70
 1313.61        3335.00           6671         146.00       612.48
 1313.64        3335.25           6674         166.00       699.67
 1313.67        3335.50           6678         191.00       808.65
 1313.70        3335.75           6682         224.00       952.51
 1313.73        3336.00           6686         254.00      1083.30
 1313.77        3336.25           6689         363.00      1558.49
 1313.80        3336.50           6693         934.00      4048.01
 1313.83        3336.75           6697        2426.00     10554.78
 1313.86        3337.00           6701        4210.00     18338.33
 1313.89        3337.25           6704        5551.00     24191.49
 1313.92        3337.50           6708        7391.00     32226.00
 1313.95        3337.75           6712        9020.00     39342.40
 1313.98        3338.00           6716       10858.00     47375.48
 1314.01        3338.25           6719       12286.00     53619.32
 1314.04        3338.50           6723       13932.00     60819.24
 1314.07        3338.75           6727       15725.00     68665.72
 1314.11        3339.00           6731       17305.00     75583.15
 1314.14        3339.25           6734       18636.00     81412.63
 1314.17        3339.50           6738       20400.00     89141.72
 1314.20        3339.75           6742       22276.00     97365.52
 1314.23        3340.00           6746       24007.00    104957.30
 1314.26        3340.25           6750       25663.00    112223.30
 1314.29        3340.50           6753       27024.00    118197.40
 1314.32        3340.75           6757       28912.00    126488.20
 1314.35        3341.00           6761       30413.00    133082.60
 1314.38        3341.25           6765       31490.00    137815.80
 1314.42        3341.50           6768       31565.00    138145.50
 1314.45        3341.75           6772       31479.00    137767.40
 1314.48        3342.00           6776       30848.00    134994.20
 1314.51        3342.25           6780       29838.00    130556.10
 1314.54        3342.50           6783       28480.00    124590.80
 1314.57        3342.75           6787       26860.00    117477.40
 1314.60        3343.00           6791       24984.00    109243.70
 1314.63        3343.25           6795       23180.00    101329.80
 1314.66        3343.50           6798       21925.00     95826.52
 1314.69        3343.75           6802       20095.00     87805.09
 1314.72        3344.00           6806       18287.00     79883.90
 1314.76        3344.25           6810       16552.00     72286.06
 1314.79        3344.50           6814       14607.00     63772.72
 1314.82        3344.75           6817       13377.00     58391.22
 1314.85        3345.00           6821       11471.00     50055.50
 1314.88        3345.25           6825        9696.00     42296.45
 1314.91        3345.50           6829        7965.00     34733.21
 1314.94        3345.75           6832        6539.00     28505.19
 1314.97        3346.00           6836        4698.00     20468.10
 1315.00        3346.25           6840        3053.00     13289.95
 1315.03        3346.50           6844        1388.00      6027.68
 1315.06        3346.75           6847         531.00      2290.92
 1315.09        3347.00           6851         255.00      1087.66
 1315.12        3347.25           6855         162.00       682.23
 1315.16        3347.50           6859         139.00       581.96
 1315.19        3347.75           6863         104.00       429.39
 1315.22        3348.00           6866          87.00       355.28
 1315.25        3348.25           6870          73.00       294.25
 1315.28        3348.50           6874          60.00       237.58
 1315.31        3348.75           6878          67.00       268.09
 1315.34        3349.00           6881          56.00       220.14
 1315.37        3349.25           6885          57.00       224.50
 1315.40        3349.50           6889          58.00       228.86
 1315.43        3349.75           6893          59.00       233.22
 1315.46        3350.00           6896          53.00       207.06
 1315.50        3350.25           6900          59.00       233.22
 1315.53        3350.50           6904          56.00       220.14
 1315.56        3350.75           6908          57.00       224.50
 1315.59        3351.00           6912          57.00       224.50
HL scan finished at 21:56:15
end
