************************************************************
  HL Scan of (1) Internal mercury lamp
************************************************************
Integration time is 0.2294 seconds per sample
dh080619Manchester 53.47 2.23 2.804185pr1000
************************************************************
Dead Time -------------------------  3E-08 
Number of Cycles Used -------------  4 
Starting Wavelength (Angstroms) ---  3331 
Final Wavelength (Angstoms) -------  3351 
Wavelength Increment (Angstroms) --  .25 
Filter Wheel #1 Position ---------- (1) Ground quartz diffuser (ND=2.32)
Filter Wheel #2 Position ---------- 



************************************************************
HL scan start time = 00:54:02
Dark Count =  6.7 


Time (GMT)  Wavelength (Ang)  Step Number  Raw Counts  Counts/Second

   54.55        3331.00           6610          52.00       197.47
   54.77        3331.25           6614          43.00       158.24
   54.81        3331.50           6618          52.00       197.47
   54.84        3331.75           6622          42.00       153.88
   54.87        3332.00           6626          46.00       171.32
   54.90        3332.25           6629          47.00       175.68
   54.93        3332.50           6633          50.00       188.75
   54.96        3332.75           6637          48.00       180.04
   54.99        3333.00           6641          55.00       210.55
   55.02        3333.25           6644          43.00       158.24
   55.05        3333.50           6648          46.00       171.32
   55.08        3333.75           6652          55.00       210.55
   55.12        3334.00           6656          46.00       171.32
   55.15        3334.25           6659          58.00       223.63
   55.18        3334.50           6663          58.00       223.63
   55.21        3334.75           6667          74.00       293.38
   55.24        3335.00           6671          90.00       363.13
   55.27        3335.25           6674         108.00       441.59
   55.30        3335.50           6678         136.00       563.65
   55.33        3335.75           6682         135.00       559.29
   55.37        3336.00           6686         175.00       733.67
   55.40        3336.25           6689         213.00       899.33
   55.43        3336.50           6693         332.00      1418.11
   55.46        3336.75           6697        1126.00      4879.97
   55.49        3337.00           6701        2248.00      9773.14
   55.52        3337.25           6704        3209.00     13965.31
   55.55        3337.50           6708        4329.00     18852.42
   55.58        3337.75           6712        5503.00     23976.70
   55.62        3338.00           6716        6646.00     28967.19
   55.65        3338.25           6719        7491.00     32657.53
   55.68        3338.50           6723        8775.00     38266.66
   55.71        3338.75           6727        9953.00     43414.40
   55.74        3339.00           6731       11032.00     48130.91
   55.77        3339.25           6734       12087.00     52743.81
   55.80        3339.50           6738       13134.00     57322.99
   55.83        3339.75           6742       14441.00     63041.09
   55.86        3340.00           6746       15701.00     68555.41
   55.90        3340.25           6750       16895.00     73782.59
   55.93        3340.50           6753       17694.00     77281.41
   55.96        3340.75           6757       18830.00     82257.23
   55.99        3341.00           6761       20006.00     87409.83
   56.02        3341.25           6765       20923.00     91428.72
   56.05        3341.50           6768       21210.00     92686.76
   56.08        3341.75           6772       21365.00     93366.21
   56.11        3342.00           6776       21206.00     92669.22
   56.14        3342.25           6780       20663.00     90289.14
   56.18        3342.50           6783       19729.00     86196.02
   56.21        3342.75           6787       18589.00     81201.50
   56.24        3343.00           6791       17651.00     77093.10
   56.27        3343.25           6795       16210.00     70783.54
   56.30        3343.50           6798       15340.00     66975.33
   56.33        3343.75           6802       14131.00     61684.67
   56.36        3344.00           6806       12853.00     56093.88
   56.39        3344.25           6810       11740.00     51226.44
   56.42        3344.50           6814       10595.00     46220.55
   56.46        3344.75           6817        9601.00     41876.03
   56.49        3345.00           6821        8303.00     36204.52
   56.52        3345.25           6825        7173.00     31268.64
   56.55        3345.50           6829        5936.00     25867.06
   56.58        3345.75           6832        5029.00     21907.59
   56.61        3346.00           6836        3909.00     17019.59
   56.64        3346.25           6840        2702.00     11753.49
   56.67        3346.50           6844        1634.00      7095.23
   56.70        3346.75           6847         793.00      3427.99
   56.73        3347.00           6851         272.00      1156.54
   56.77        3347.25           6855         150.00       624.68
   56.80        3347.50           6859         118.00       485.19
   56.83        3347.75           6863          95.00       384.92
   56.86        3348.00           6866          75.00       297.74
   56.89        3348.25           6870          62.00       241.07
   56.92        3348.50           6874          47.00       175.68
   56.95        3348.75           6878          52.00       197.47
   56.98        3349.00           6881          45.00       166.96
   57.01        3349.25           6885          46.00       171.32
   57.05        3349.50           6889          43.00       158.24
   57.08        3349.75           6893          43.00       158.24
   57.11        3350.00           6896          48.00       180.04
   57.14        3350.25           6900          49.00       184.40
   57.17        3350.50           6904          44.00       162.60
   57.20        3350.75           6908          41.00       149.52
   57.23        3351.00           6912          59.00       227.99
HL scan finished at 00:57:53
end
