************************************************************
  HL Scan of (1) Internal mercury lamp
************************************************************
Integration time is 0.2294 seconds per sample
dh150618Manchester 53.47 2.23 2.804185pr1000
************************************************************
Dead Time -------------------------  3E-08 
Number of Cycles Used -------------  4 
Starting Wavelength (Angstroms) ---  3331 
Final Wavelength (Angstoms) -------  3351 
Wavelength Increment (Angstroms) --  .25 
Filter Wheel #1 Position ---------- (1) Ground quartz diffuser (ND=2.32)
Filter Wheel #2 Position ---------- 



************************************************************
HL scan start time = 00:55:30
Dark Count =  7.1 


Time (GMT)  Wavelength (Ang)  Step Number  Raw Counts  Counts/Second

   56.02        3331.00           6610          51.00       191.37
   56.24        3331.25           6614          45.00       165.21
   56.28        3331.50           6618          50.00       187.01
   56.31        3331.75           6622          52.00       195.73
   56.34        3332.00           6626          50.00       187.01
   56.37        3332.25           6629          54.00       204.45
   56.40        3332.50           6633          45.00       165.21
   56.43        3332.75           6637          50.00       187.01
   56.46        3333.00           6641          46.00       169.57
   56.49        3333.25           6644          52.00       195.73
   56.52        3333.50           6648          50.00       187.01
   56.55        3333.75           6652          57.00       217.53
   56.58        3334.00           6656          47.00       173.93
   56.61        3334.25           6659          59.00       226.24
   56.64        3334.50           6663          78.00       309.07
   56.67        3334.75           6667          83.00       330.87
   56.71        3335.00           6671         103.00       418.05
   56.74        3335.25           6674         116.00       474.72
   56.77        3335.50           6678         161.00       670.89
   56.80        3335.75           6682         170.00       710.13
   56.83        3336.00           6686         200.00       840.91
   56.86        3336.25           6689         231.00       976.05
   56.89        3336.50           6693         364.00      1555.87
   56.92        3336.75           6697        1101.00      4769.21
   56.96        3337.00           6701        2435.00     10587.06
   56.99        3337.25           6704        3511.00     15281.20
   57.02        3337.50           6708        4951.00     21565.39
   57.05        3337.75           6712        6305.00     27476.43
   57.08        3338.00           6716        7741.00     33747.75
   57.11        3338.25           6719        8755.00     38177.53
   57.14        3338.50           6723       10188.00     44439.77
   57.17        3338.75           6727       11432.00     49877.99
   57.20        3339.00           6731       12905.00     56319.58
   57.23        3339.25           6734       13861.00     60501.61
   57.27        3339.50           6738       15246.00     66562.18
   57.30        3339.75           6742       16817.00     73439.31
   57.33        3340.00           6746       18283.00     79859.36
   57.36        3340.25           6750       19620.00     85716.65
   57.39        3340.50           6753       20671.00     90322.44
   57.42        3340.75           6757       21953.00     95942.27
   57.45        3341.00           6761       23232.00    101550.80
   57.48        3341.25           6765       24365.00    106520.80
   57.51        3341.50           6768       24633.00    107696.60
   57.54        3341.75           6772       24724.00    108095.80
   57.57        3342.00           6776       24592.00    107516.70
   57.60        3342.25           6780       23696.00    103586.00
   57.64        3342.50           6783       22759.00     99476.46
   57.67        3342.75           6787       21350.00     93298.71
   57.70        3343.00           6791       20132.00     87960.24
   57.73        3343.25           6795       18753.00     81918.16
   57.76        3343.50           6798       17556.00     76675.30
   57.79        3343.75           6802       16228.00     70860.60
   57.82        3344.00           6806       14820.00     64697.83
   57.85        3344.25           6810       13399.00     58480.46
   57.88        3344.50           6814       12031.00     52497.18
   57.91        3344.75           6817       11074.00     48312.78
   57.94        3345.00           6821        9682.00     42228.27
   57.98        3345.25           6825        8286.00     36128.51
   58.01        3345.50           6829        6987.00     30454.58
   58.04        3345.75           6832        5861.00     25537.87
   58.07        3346.00           6836        4358.00     18977.24
   58.10        3346.25           6840        2932.00     12755.10
   58.13        3346.50           6844        1501.00      6513.48
   58.16        3346.75           6847         739.00      3190.80
   58.19        3347.00           6851         252.00      1067.60
   58.22        3347.25           6855         159.00       662.18
   58.25        3347.50           6859         134.00       553.19
   58.28        3347.75           6863          96.00       387.54
   58.31        3348.00           6866          82.00       326.51
   58.34        3348.25           6870          65.00       252.40
   58.37        3348.50           6874          52.00       195.73
   58.40        3348.75           6878          45.00       165.21
   58.44        3349.00           6881          53.00       200.09
   58.47        3349.25           6885          52.00       195.73
   58.50        3349.50           6889          48.00       178.29
   58.53        3349.75           6893          50.00       187.01
   58.56        3350.00           6896          50.00       187.01
   58.59        3350.25           6900          55.00       208.81
   58.62        3350.50           6904          53.00       200.09
   58.65        3350.75           6908          49.00       182.65
   58.68        3351.00           6912          55.00       208.81
HL scan finished at 00:59:21
end
