************************************************************
  HL Scan of (1) Internal mercury lamp
************************************************************
Integration time is 0.2294 seconds per sample
dh180619El Arenosillo 37.1 6.73 3.072425pr1000
************************************************************
Dead Time -------------------------  3E-08 
Number of Cycles Used -------------  4 
Starting Wavelength (Angstroms) ---  3331 
Final Wavelength (Angstoms) -------  3351 
Wavelength Increment (Angstroms) --  .25 
Filter Wheel #1 Position ---------- (1) Ground quartz diffuser (ND=2.32)
Filter Wheel #2 Position ---------- 



************************************************************
HL scan start time = 21:48:45
Dark Count =  4.1 


Time (GMT)  Wavelength (Ang)  Step Number  Raw Counts  Counts/Second

 1309.27        3331.00           6610          45.00       178.29
 1309.49        3331.25           6614          41.00       160.86
 1309.52        3331.50           6618          43.00       169.57
 1309.55        3331.75           6622          49.00       195.73
 1309.58        3332.00           6626          50.00       200.09
 1309.61        3332.25           6629          57.00       230.60
 1309.64        3332.50           6633          44.00       173.93
 1309.68        3332.75           6637          44.00       173.93
 1309.71        3333.00           6641          47.00       187.01
 1309.74        3333.25           6644          40.00       156.50
 1309.77        3333.50           6648          47.00       187.01
 1309.80        3333.75           6652          42.00       165.21
 1309.83        3334.00           6656          44.00       173.93
 1309.86        3334.25           6659          54.00       217.53
 1309.89        3334.50           6663          70.00       287.27
 1309.92        3334.75           6667          81.00       335.23
 1309.95        3335.00           6671         104.00       435.49
 1309.99        3335.25           6674         135.00       570.63
 1310.02        3335.50           6678         145.00       614.22
 1310.05        3335.75           6682         152.00       644.74
 1310.08        3336.00           6686         193.00       823.47
 1310.11        3336.25           6689         229.00       980.41
 1310.14        3336.50           6693         404.00      1743.33
 1310.17        3336.75           6697        1240.00      5388.40
 1310.21        3337.00           6701        2438.00     10613.23
 1310.24        3337.25           6704        3318.00     14452.21
 1310.27        3337.50           6708        4544.00     19802.08
 1310.30        3337.75           6712        5709.00     24887.36
 1310.33        3338.00           6716        6976.00     30419.64
 1310.36        3338.25           6719        7899.00     34451.02
 1310.39        3338.50           6723        9162.00     39969.00
 1310.42        3338.75           6727       10309.00     44981.76
 1310.45        3339.00           6731       11571.00     50498.86
 1310.48        3339.25           6734       12428.00     54246.46
 1310.51        3339.50           6738       13787.00     60190.98
 1310.54        3339.75           6742       15146.00     66137.65
 1310.58        3340.00           6746       16386.00     71565.43
 1310.61        3340.25           6750       17506.00     76469.48
 1310.64        3340.50           6753       18429.00     80512.02
 1310.67        3340.75           6757       19714.00     86141.68
 1310.70        3341.00           6761       20887.00     91282.32
 1310.73        3341.25           6765       21495.00     93947.50
 1310.76        3341.50           6768       22007.00     96192.19
 1310.79        3341.75           6772       22022.00     96257.96
 1310.82        3342.00           6776       21859.00     95543.31
 1310.86        3342.25           6780       20937.00     91501.49
 1310.89        3342.50           6783       20126.00     87947.09
 1310.92        3342.75           6787       18943.00     82763.66
 1310.95        3343.00           6791       17819.00     77840.25
 1310.98        3343.25           6795       16461.00     71893.78
 1311.01        3343.50           6798       15731.00     68698.11
 1311.04        3343.75           6802       14427.00     62991.20
 1311.07        3344.00           6806       13181.00     57539.96
 1311.10        3344.25           6810       12049.00     52589.01
 1311.13        3344.50           6814       10773.00     47010.03
 1311.16        3344.75           6817        9686.00     42258.87
 1311.20        3345.00           6821        8582.00     37434.78
 1311.23        3345.25           6825        7273.00     31716.74
 1311.26        3345.50           6829        6015.00     26223.33
 1311.29        3345.75           6832        5030.00     21923.31
 1311.32        3346.00           6836        3792.00     16520.39
 1311.35        3346.25           6840        2536.00     11040.71
 1311.38        3346.50           6844        1413.00      6142.81
 1311.41        3346.75           6847         634.00      2746.09
 1311.44        3347.00           6851         219.00       936.82
 1311.48        3347.25           6855         123.00       518.32
 1311.51        3347.50           6859         104.00       435.49
 1311.54        3347.75           6863          77.00       317.79
 1311.57        3348.00           6866          62.00       252.40
 1311.60        3348.25           6870          46.00       182.65
 1311.63        3348.50           6874          50.00       200.09
 1311.66        3348.75           6878          47.00       187.01
 1311.69        3349.00           6881          46.00       182.65
 1311.72        3349.25           6885          49.00       195.73
 1311.75        3349.50           6889          42.00       165.21
 1311.78        3349.75           6893          42.00       165.21
 1311.82        3350.00           6896          45.00       178.29
 1311.85        3350.25           6900          50.00       200.09
 1311.88        3350.50           6904          44.00       173.93
 1311.91        3350.75           6908          53.00       213.17
 1311.94        3351.00           6912          49.00       195.73
HL scan finished at 21:52:36
end
