************************************************************
  HL Scan of (1) Internal mercury lamp
************************************************************
Integration time is 0.2294 seconds per sample
dh150617Manchester 53.47 2.23 2.911481pr1000
************************************************************
Dead Time -------------------------  3E-08 
Number of Cycles Used -------------  4 
Starting Wavelength (Angstroms) ---  3331 
Final Wavelength (Angstoms) -------  3351 
Wavelength Increment (Angstroms) --  .25 
Filter Wheel #1 Position ---------- (1) Ground quartz diffuser (ND=2.32)
Filter Wheel #2 Position ---------- 



************************************************************
HL scan start time = 00:55:54
Dark Count =  6.9 


Time (GMT)  Wavelength (Ang)  Step Number  Raw Counts  Counts/Second

   56.43        3331.00           6610          51.00       192.24
   56.65        3331.25           6614          51.00       192.24
   56.68        3331.50           6618          53.00       200.96
   56.71        3331.75           6622          53.00       200.96
   56.75        3332.00           6626          52.00       196.60
   56.78        3332.25           6629          49.00       183.52
   56.81        3332.50           6633          56.00       214.04
   56.84        3332.75           6637          45.00       166.09
   56.87        3333.00           6641          53.00       200.96
   56.90        3333.25           6644          59.00       227.12
   56.93        3333.50           6648          55.00       209.68
   56.96        3333.75           6652          58.00       222.76
   56.99        3334.00           6656          55.00       209.68
   57.02        3334.25           6659          71.00       279.43
   57.05        3334.50           6663          86.00       344.82
   57.08        3334.75           6667         104.00       423.28
   57.11        3335.00           6671         129.00       532.27
   57.14        3335.25           6674         154.00       641.25
   57.18        3335.50           6678         176.00       737.16
   57.21        3335.75           6682         206.00       867.94
   57.24        3336.00           6686         242.00      1024.88
   57.27        3336.25           6689         266.00      1129.51
   57.30        3336.50           6693         471.00      2023.23
   57.33        3336.75           6697        1313.00      5694.52
   57.36        3337.00           6701        2962.00     12886.85
   57.39        3337.25           6704        4175.00     18179.49
   57.42        3337.50           6708        5884.00     25639.16
   57.45        3337.75           6712        7559.00     32953.67
   57.49        3338.00           6716        9241.00     40301.97
   57.52        3338.25           6719       10489.00     45756.32
   57.55        3338.50           6723       12156.00     53044.68
   57.58        3338.75           6727       13803.00     60248.73
   57.61        3339.00           6731       15481.00     67591.58
   57.64        3339.25           6734       16701.00     72932.28
   57.67        3339.50           6738       18184.00     79426.61
   57.70        3339.75           6742       20037.00     87544.79
   57.73        3340.00           6746       21908.00     95745.85
   57.76        3340.25           6750       23625.00    103275.50
   57.80        3340.50           6753       24966.00    109158.60
   57.83        3340.75           6757       26420.00    115539.70
   57.86        3341.00           6761       28001.00    122481.00
   57.89        3341.25           6765       29484.00    128994.70
   57.92        3341.50           6768       29521.00    129157.30
   57.95        3341.75           6772       29922.00    130919.00
   57.98        3342.00           6776       29475.00    128955.20
   58.01        3342.25           6780       28973.00    126750.00
   58.04        3342.50           6783       27856.00    121844.30
   58.08        3342.75           6787       26143.00    114323.90
   58.11        3343.00           6791       24610.00    107596.50
   58.14        3343.25           6795       22822.00     99753.61
   58.17        3343.50           6798       21674.00     94719.96
   58.20        3343.75           6802       19908.00     86979.51
   58.23        3344.00           6806       18107.00     79089.35
   58.26        3344.25           6810       16502.00     72061.02
   58.29        3344.50           6814       14885.00     64983.14
   58.32        3344.75           6817       13697.00     59784.99
   58.36        3345.00           6821       12039.00     52533.03
   58.39        3345.25           6825       10159.00     44313.89
   58.42        3345.50           6829        8447.00     36832.74
   58.45        3345.75           6832        7163.00     31224.09
   58.48        3346.00           6836        5555.00     24202.84
   58.51        3346.25           6840        3796.00     16525.63
   58.54        3346.50           6844        2260.00      9824.61
   58.57        3346.75           6847        1151.00      4988.10
   58.60        3347.00           6851         375.00      1604.70
   58.63        3347.25           6855         205.00       863.58
   58.66        3347.50           6859         148.00       615.09
   58.69        3347.75           6863         117.00       479.95
   58.73        3348.00           6866          86.00       344.82
   58.76        3348.25           6870          70.00       275.07
   58.79        3348.50           6874          54.00       205.32
   58.82        3348.75           6878          55.00       209.68
   58.85        3349.00           6881          54.00       205.32
   58.88        3349.25           6885          61.00       235.83
   58.91        3349.50           6889          52.00       196.60
   58.94        3349.75           6893          49.00       183.52
   58.97        3350.00           6896          61.00       235.83
   59.00        3350.25           6900          57.00       218.40
   59.03        3350.50           6904          52.00       196.60
   59.06        3350.75           6908          54.00       205.32
   59.09        3351.00           6912          56.00       214.04
HL scan finished at 00:59:45
end
