************************************************************
  HL Scan of (1) Internal mercury lamp
************************************************************
Integration time is 0.2294 seconds per sample
dh280619El Arenosillo 37.1 6.73 3.179721pr1000
************************************************************
Dead Time -------------------------  3E-08 
Number of Cycles Used -------------  4 
Starting Wavelength (Angstroms) ---  3331 
Final Wavelength (Angstoms) -------  3351 
Wavelength Increment (Angstroms) --  .25 
Filter Wheel #1 Position ---------- (1) Ground quartz diffuser (ND=2.32)
Filter Wheel #2 Position ---------- 



************************************************************
HL scan start time = 02:49:33
Dark Count =  5.8 


Time (GMT)  Wavelength (Ang)  Step Number  Raw Counts  Counts/Second

  170.08        3331.00           6610          45.00       170.88
  170.30        3331.25           6614          47.00       179.60
  170.33        3331.50           6618          53.00       205.76
  170.37        3331.75           6622          43.00       162.16
  170.40        3332.00           6626          44.00       166.52
  170.43        3332.25           6629          43.00       162.16
  170.46        3332.50           6633          46.00       175.24
  170.49        3332.75           6637          50.00       192.68
  170.52        3333.00           6641          43.00       162.16
  170.55        3333.25           6644          37.00       136.01
  170.58        3333.50           6648          47.00       179.60
  170.61        3333.75           6652          40.00       149.09
  170.64        3334.00           6656          57.00       223.19
  170.67        3334.25           6659          81.00       327.81
  170.71        3334.50           6663          88.00       358.33
  170.74        3334.75           6667          97.00       397.56
  170.77        3335.00           6671         125.00       519.62
  170.80        3335.25           6674         143.00       598.09
  170.83        3335.50           6678         160.00       672.20
  170.86        3335.75           6682         190.00       802.98
  170.89        3336.00           6686         228.00       968.64
  170.92        3336.25           6689         266.00      1134.30
  170.95        3336.50           6693         445.00      1914.67
  170.98        3336.75           6697        1370.00      5947.88
  171.01        3337.00           6701        2704.00     11766.14
  171.05        3337.25           6704        3696.00     16094.08
  171.08        3337.50           6708        5071.00     22094.85
  171.11        3337.75           6712        6492.00     28298.65
  171.14        3338.00           6716        7807.00     34041.72
  171.17        3338.25           6719        8847.00     38585.18
  171.20        3338.50           6723       10196.00     44480.42
  171.23        3338.75           6727       11707.00     51086.08
  171.26        3339.00           6731       13213.00     57672.50
  171.29        3339.25           6734       14211.00     62038.64
  171.33        3339.50           6738       15418.00     67320.66
  171.36        3339.75           6742       16967.00     74101.78
  171.39        3340.00           6746       18211.00     79549.69
  171.42        3340.25           6750       19823.00     86611.85
  171.45        3340.50           6753       20723.00     90556.05
  171.48        3340.75           6757       22186.00     96969.57
  171.51        3341.00           6761       23483.00    102657.40
  171.54        3341.25           6765       24587.00    107500.50
  171.57        3341.50           6768       24618.00    107636.50
  171.60        3341.75           6772       24818.00    108514.00
  171.64        3342.00           6776       24592.00    107522.40
  171.67        3342.25           6780       23957.00    104736.60
  171.70        3342.50           6783       22828.00     99784.74
  171.73        3342.75           6787       21440.00     93698.94
  171.76        3343.00           6791       20123.00     87926.49
  171.79        3343.25           6795       18693.00     81661.02
  171.82        3343.50           6798       17874.00     78073.66
  171.85        3343.75           6802       16603.00     72508.03
  171.88        3344.00           6806       14979.00     65399.33
  171.92        3344.25           6810       13562.00     59199.21
  171.95        3344.50           6814       12013.00     52424.15
  171.98        3344.75           6817       11152.00     48659.47
  172.01        3345.00           6821        9920.00     43274.10
  172.04        3345.25           6825        8472.00     36946.77
  172.07        3345.50           6829        7069.00     30818.37
  172.10        3345.75           6832        5901.00     25718.18
  172.13        3346.00           6836        4375.00     19057.10
  172.16        3346.25           6840        3008.00     13092.33
  172.20        3346.50           6844        1674.00      7273.60
  172.23        3346.75           6847         848.00      3671.72
  172.26        3347.00           6851         268.00      1143.02
  172.29        3347.25           6855         130.00       541.42
  172.32        3347.50           6859          96.00       393.20
  172.35        3347.75           6863          72.00       288.58
  172.38        3348.00           6866          50.00       192.68
  172.41        3348.25           6870          46.00       175.24
  172.44        3348.50           6874          52.00       201.40
  172.47        3348.75           6878          53.00       205.76
  172.50        3349.00           6881          49.00       188.32
  172.53        3349.25           6885          50.00       192.68
  172.56        3349.50           6889          46.00       175.24
  172.59        3349.75           6893          43.00       162.16
  172.62        3350.00           6896          49.00       188.32
  172.66        3350.25           6900          50.00       192.68
  172.69        3350.50           6904          48.00       183.96
  172.72        3350.75           6908          50.00       192.68
  172.75        3351.00           6912          47.00       179.60
HL scan finished at 02:53:25
end
