************************************************************
  HL Scan of (1) Internal mercury lamp
************************************************************
Integration time is 0.2294 seconds per sample
dh220617Manchester 53.47 2.23 3.126073pr1000
************************************************************
Dead Time -------------------------  3E-08 
Number of Cycles Used -------------  4 
Starting Wavelength (Angstroms) ---  3331 
Final Wavelength (Angstoms) -------  3351 
Wavelength Increment (Angstroms) --  .25 
Filter Wheel #1 Position ---------- (1) Ground quartz diffuser (ND=2.32)
Filter Wheel #2 Position ---------- 



************************************************************
HL scan start time = 00:57:52
Dark Count =  6.1 


Time (GMT)  Wavelength (Ang)  Step Number  Raw Counts  Counts/Second

   58.39        3331.00           6610          54.00       208.81
   58.61        3331.25           6614          59.00       230.60
   58.64        3331.50           6618          57.00       221.88
   58.67        3331.75           6622          61.00       239.32
   58.70        3332.00           6626          59.00       230.60
   58.73        3332.25           6629          58.00       226.24
   58.76        3332.50           6633          51.00       195.73
   58.80        3332.75           6637          67.00       265.48
   58.83        3333.00           6641          53.00       204.45
   58.86        3333.25           6644          51.00       195.73
   58.89        3333.50           6648          57.00       221.88
   58.92        3333.75           6652          59.00       230.60
   58.95        3334.00           6656          60.00       234.96
   58.98        3334.25           6659          71.00       282.91
   59.01        3334.50           6663          93.00       378.82
   59.04        3334.75           6667         113.00       466.00
   59.07        3335.00           6671         135.00       561.91
   59.10        3335.25           6674         189.00       797.32
   59.14        3335.50           6678         201.00       849.63
   59.17        3335.75           6682         237.00      1006.57
   59.20        3336.00           6686         276.00      1176.59
   59.23        3336.25           6689         366.00      1568.95
   59.26        3336.50           6693         727.00      3142.84
   59.29        3336.75           6697        2212.00      9618.73
   59.32        3337.00           6701        3981.00     17336.39
   59.35        3337.25           6704        5717.00     24913.56
   59.38        3337.50           6708        7657.00     33385.21
   59.42        3337.75           6712        9646.00     42075.31
   59.45        3338.00           6716       11574.00     50503.23
   59.48        3338.25           6719       13030.00     56870.71
   59.51        3338.50           6723       14702.00     64185.82
   59.54        3338.75           6727       16579.00     72401.65
   59.57        3339.00           6731       18543.00     81002.63
   59.60        3339.25           6734       20232.00     88402.84
   59.63        3339.50           6738       22124.00     96696.41
   59.67        3339.75           6742       24265.00    106086.50
   59.70        3340.00           6746       26255.00    114819.00
   59.73        3340.25           6750       28061.00    122748.10
   59.76        3340.50           6753       29455.00    128870.90
   59.79        3340.75           6757       31294.00    136951.70
   59.82        3341.00           6761       33067.00    144746.20
   59.85        3341.25           6765       34351.00    150393.20
   59.88        3341.50           6768       34923.00    152909.50
   59.91        3341.75           6772       35013.00    153305.50
   59.95        3342.00           6776       34806.00    152394.80
   59.98        3342.25           6780       33586.00    147028.50
   60.01        3342.50           6783       32354.00    141611.20
   60.04        3342.75           6787       30458.00    133277.70
   60.07        3343.00           6791       28330.00    123929.40
   60.10        3343.25           6795       26257.00    114827.80
   60.13        3343.50           6798       24889.00    108824.20
   60.16        3343.75           6802       22869.00     99963.24
   60.19        3344.00           6806       21053.00     92001.19
   60.23        3344.25           6810       18787.00     82071.49
   60.26        3344.50           6814       16920.00     73894.68
   60.29        3344.75           6817       15449.00     67455.03
   60.32        3345.00           6821       13598.00     59355.39
   60.35        3345.25           6825       11530.00     50310.85
   60.38        3345.50           6829        9614.00     41935.47
   60.41        3345.75           6832        8208.00     35792.12
   60.44        3346.00           6836        6302.00     27467.70
   60.47        3346.25           6840        4418.00     19243.45
   60.51        3346.50           6844        2419.00     10521.63
   60.54        3346.75           6847        1190.00      5161.65
   60.57        3347.00           6851         374.00      1603.83
   60.60        3347.25           6855         208.00       880.15
   60.63        3347.50           6859         163.00       683.97
   60.66        3347.75           6863         117.00       483.44
   60.69        3348.00           6866          96.00       391.90
   60.72        3348.25           6870          79.00       317.79
   60.75        3348.50           6874          49.00       187.01
   60.78        3348.75           6878          59.00       230.60
   60.81        3349.00           6881          57.00       221.88
   60.85        3349.25           6885          52.00       200.09
   60.88        3349.50           6889          58.00       226.24
   60.91        3349.75           6893          60.00       234.96
   60.94        3350.00           6896          61.00       239.32
   60.97        3350.25           6900          52.00       200.09
   61.00        3350.50           6904          60.00       234.96
   61.03        3350.75           6908          53.00       204.45
   61.06        3351.00           6912          58.00       226.24
HL scan finished at 01:01:43
end
