************************************************************
  HL Scan of (1) Internal mercury lamp
************************************************************
Integration time is 0.2294 seconds per sample
dh190619El Arenosillo 37.1 6.73 3.072425pr1000
************************************************************
Dead Time -------------------------  3E-08 
Number of Cycles Used -------------  4 
Starting Wavelength (Angstroms) ---  3331 
Final Wavelength (Angstoms) -------  3351 
Wavelength Increment (Angstroms) --  .25 
Filter Wheel #1 Position ---------- (1) Ground quartz diffuser (ND=2.32)
Filter Wheel #2 Position ---------- 



************************************************************
HL scan start time = 02:21:13
Dark Count =  8.5 


Time (GMT)  Wavelength (Ang)  Step Number  Raw Counts  Counts/Second

  141.74        3331.00           6610          44.00       154.75
  141.97        3331.25           6614          30.00        93.72
  142.00        3331.50           6618          48.00       172.19
  142.03        3331.75           6622          43.00       150.39
  142.06        3332.00           6626          49.00       176.55
  142.09        3332.25           6629          44.00       154.75
  142.12        3332.50           6633          40.00       137.32
  142.15        3332.75           6637          48.00       172.19
  142.18        3333.00           6641          42.00       146.03
  142.21        3333.25           6644          41.00       141.67
  142.25        3333.50           6648          40.00       137.32
  142.28        3333.75           6652          43.00       150.39
  142.31        3334.00           6656          53.00       193.99
  142.34        3334.25           6659          56.00       207.06
  142.37        3334.50           6663          82.00       320.40
  142.40        3334.75           6667          87.00       342.20
  142.43        3335.00           6671         114.00       459.90
  142.46        3335.25           6674         122.00       494.78
  142.49        3335.50           6678         150.00       616.84
  142.52        3335.75           6682         170.00       704.03
  142.55        3336.00           6686         187.00       778.14
  142.58        3336.25           6689         228.00       956.87
  142.61        3336.50           6693         579.00      2487.11
  142.65        3336.75           6697        1572.00      6817.00
  142.68        3337.00           6701        2696.00     11719.47
  142.71        3337.25           6704        3635.00     15816.13
  142.74        3337.50           6708        4752.00     20690.70
  142.77        3337.75           6712        6001.00     26142.99
  142.80        3338.00           6716        7247.00     31583.97
  142.83        3338.25           6719        8183.00     35672.42
  142.86        3338.50           6723        9330.00     40683.89
  142.89        3338.75           6727       10601.00     46238.90
  142.93        3339.00           6731       11780.00     51393.48
  142.96        3339.25           6734       12666.00     55268.11
  142.99        3339.50           6738       13804.00     60246.11
  143.02        3339.75           6742       15112.00     65969.58
  143.05        3340.00           6746       16330.00     71301.00
  143.08        3340.25           6750       17640.00     77037.03
  143.11        3340.50           6753       18503.00     80816.90
  143.14        3340.75           6757       19501.00     85189.10
  143.17        3341.00           6761       20670.00     90311.93
  143.20        3341.25           6765       21566.00     94239.47
  143.24        3341.50           6768       21881.00     95620.47
  143.27        3341.75           6772       21785.00     95199.58
  143.30        3342.00           6776       21465.00     93796.69
  143.33        3342.25           6780       20525.00     89676.41
  143.36        3342.50           6783       19727.00     86179.37
  143.39        3342.75           6787       18488.00     80751.18
  143.42        3343.00           6791       17350.00     75767.06
  143.45        3343.25           6795       16279.00     71077.73
  143.48        3343.50           6798       15274.00     66678.59
  143.52        3343.75           6802       13964.00     60946.12
  143.55        3344.00           6806       12765.00     55701.11
  143.58        3344.25           6810       11449.00     49946.19
  143.61        3344.50           6814       10335.00     45076.17
  143.64        3344.75           6817        9442.00     41173.32
  143.67        3345.00           6821        8132.00     35449.63
  143.70        3345.25           6825        6925.00     30177.70
  143.73        3345.50           6829        5711.00     24876.89
  143.76        3345.75           6832        4779.00     20808.54
  143.79        3346.00           6836        3540.00     15401.62
  143.82        3346.25           6840        2384.00     10358.49
  143.85        3346.50           6844        1186.00      5133.75
  143.89        3346.75           6847         501.00      2147.04
  143.92        3347.00           6851         179.00       743.26
  143.95        3347.25           6855         126.00       512.21
  143.98        3347.50           6859         103.00       411.95
  144.01        3347.75           6863          78.00       302.97
  144.04        3348.00           6866          61.00       228.86
  144.07        3348.25           6870          50.00       180.91
  144.10        3348.50           6874          48.00       172.19
  144.13        3348.75           6878          42.00       146.03
  144.16        3349.00           6881          44.00       154.75
  144.19        3349.25           6885          44.00       154.75
  144.23        3349.50           6889          43.00       150.39
  144.26        3349.75           6893          40.00       137.32
  144.29        3350.00           6896          51.00       185.27
  144.32        3350.25           6900          46.00       163.47
  144.35        3350.50           6904          44.00       154.75
  144.38        3350.75           6908          51.00       185.27
  144.41        3351.00           6912          46.00       163.47
HL scan finished at 02:25:04
end
