************************************************************
  HL Scan of (1) Internal mercury lamp
************************************************************
Integration time is 0.2294 seconds per sample
dh220619El Arenosillo 37.1 6.73 3.072425pr1000
************************************************************
Dead Time -------------------------  3E-08 
Number of Cycles Used -------------  4 
Starting Wavelength (Angstroms) ---  3331 
Final Wavelength (Angstoms) -------  3351 
Wavelength Increment (Angstroms) --  .25 
Filter Wheel #1 Position ---------- (1) Ground quartz diffuser (ND=2.32)
Filter Wheel #2 Position ---------- 



************************************************************
HL scan start time = 01:14:02
Dark Count =  6 


Time (GMT)  Wavelength (Ang)  Step Number  Raw Counts  Counts/Second

   74.57        3331.00           6610          45.00       170.01
   74.79        3331.25           6614          47.00       178.73
   74.82        3331.50           6618          45.00       170.01
   74.85        3331.75           6622          48.00       183.09
   74.88        3332.00           6626          52.00       200.52
   74.91        3332.25           6629          47.00       178.73
   74.94        3332.50           6633          47.00       178.73
   74.97        3332.75           6637          42.00       156.93
   75.00        3333.00           6641          45.00       170.01
   75.04        3333.25           6644          50.00       191.81
   75.07        3333.50           6648          53.00       204.88
   75.10        3333.75           6652          42.00       156.93
   75.13        3334.00           6656          47.00       178.73
   75.16        3334.25           6659          56.00       217.96
   75.19        3334.50           6663          79.00       318.22
   75.22        3334.75           6667          99.00       405.41
   75.25        3335.00           6671         116.00       479.52
   75.28        3335.25           6674         137.00       571.06
   75.31        3335.50           6678         167.00       701.85
   75.34        3335.75           6682         172.00       723.64
   75.37        3336.00           6686         217.00       919.82
   75.41        3336.25           6689         271.00      1155.23
   75.44        3336.50           6693         472.00      2031.51
   75.47        3336.75           6697        1411.00      6125.80
   75.50        3337.00           6701        2774.00     12070.63
   75.53        3337.25           6704        3869.00     16848.10
   75.56        3337.50           6708        5260.00     22918.98
   75.59        3337.75           6712        6641.00     28948.41
   75.62        3338.00           6716        8010.00     34927.60
   75.65        3338.25           6719        9071.00     39563.06
   75.69        3338.50           6723       10436.00     45528.58
   75.72        3338.75           6727       11714.00     51115.82
   75.75        3339.00           6731       13017.00     56814.28
   75.78        3339.25           6734       14115.00     61617.73
   75.81        3339.50           6738       15441.00     67420.45
   75.84        3339.75           6742       16924.00     73912.63
   75.87        3340.00           6746       18188.00     79448.08
   75.90        3340.25           6750       19609.00     85673.28
   75.93        3340.50           6753       20659.00     90274.68
   75.96        3340.75           6757       22108.00     96626.69
   76.00        3341.00           6761       23366.00    102143.40
   76.03        3341.25           6765       24429.00    106806.40
   76.06        3341.50           6768       24769.00    108298.10
   76.09        3341.75           6772       24624.00    107661.90
   76.12        3342.00           6776       24533.00    107262.70
   76.15        3342.25           6780       23580.00    103082.00
   76.18        3342.50           6783       22717.00     99297.10
   76.21        3342.75           6787       21488.00     93908.48
   76.24        3343.00           6791       19957.00     87198.18
   76.27        3343.25           6795       18574.00     81138.85
   76.30        3343.50           6798       17487.00     76377.95
   76.34        3343.75           6802       16168.00     70602.75
   76.37        3344.00           6806       14738.00     64343.79
   76.40        3344.25           6810       13437.00     58651.50
   76.43        3344.50           6814       11981.00     52283.34
   76.46        3344.75           6817       10979.00     47902.28
   76.49        3345.00           6821        9464.00     41280.38
   76.52        3345.25           6825        8054.00     35119.81
   76.55        3345.50           6829        6790.00     29599.07
   76.58        3345.75           6832        5789.00     25228.33
   76.62        3346.00           6836        4331.00     18864.21
   76.65        3346.25           6840        2794.00     12157.88
   76.68        3346.50           6844        1458.00      6330.76
   76.71        3346.75           6847         600.00      2589.56
   76.74        3347.00           6851         222.00       941.61
   76.77        3347.25           6855         131.00       544.91
   76.81        3347.50           6859         104.00       427.21
   76.85        3347.75           6863          77.00       309.51
   76.88        3348.00           6866          73.00       292.07
   76.91        3348.25           6870          45.00       170.01
   76.94        3348.50           6874          48.00       183.09
   76.97        3348.75           6878          44.00       165.65
   77.00        3349.00           6881          47.00       178.73
   77.03        3349.25           6885          43.00       161.29
   77.06        3349.50           6889          46.00       174.37
   77.10        3349.75           6893          51.00       196.17
   77.13        3350.00           6896          50.00       191.81
   77.16        3350.25           6900          47.00       178.73
   77.19        3350.50           6904          47.00       178.73
   77.22        3350.75           6908          44.00       165.65
   77.25        3351.00           6912          47.00       178.73
HL scan finished at 01:17:55
end
************************************************************
  HL Scan of (1) Internal mercury lamp
************************************************************
Integration time is 0.2294 seconds per sample
dh220619El Arenosillo 37.1 6.73 3.126073pr1000
************************************************************
Dead Time -------------------------  3E-08 
Number of Cycles Used -------------  4 
Starting Wavelength (Angstroms) ---  3331 
Final Wavelength (Angstoms) -------  3351 
Wavelength Increment (Angstroms) --  .25 
Filter Wheel #1 Position ---------- (1) Ground quartz diffuser (ND=2.32)
Filter Wheel #2 Position ---------- 



************************************************************
HL scan start time = 02:15:11
Dark Count =  6 


Time (GMT)  Wavelength (Ang)  Step Number  Raw Counts  Counts/Second

  135.71        3331.00           6610          40.00       148.21
  135.94        3331.25           6614          43.00       161.29
  135.97        3331.50           6618          46.00       174.37
  136.00        3331.75           6622          46.00       174.37
  136.03        3332.00           6626          41.00       152.57
  136.06        3332.25           6629          46.00       174.37
  136.09        3332.50           6633          42.00       156.93
  136.12        3332.75           6637          47.00       178.73
  136.15        3333.00           6641          42.00       156.93
  136.18        3333.25           6644          47.00       178.73
  136.21        3333.50           6648          46.00       174.37
  136.25        3333.75           6652          39.00       143.85
  136.28        3334.00           6656          50.00       191.81
  136.31        3334.25           6659          57.00       222.32
  136.34        3334.50           6663          75.00       300.79
  136.37        3334.75           6667          95.00       387.97
  136.40        3335.00           6671         111.00       457.72
  136.43        3335.25           6674         127.00       527.47
  136.46        3335.50           6678         149.00       623.38
  136.49        3335.75           6682         168.00       706.21
  136.52        3336.00           6686         206.00       871.86
  136.55        3336.25           6689         243.00      1033.16
  136.58        3336.50           6693         455.00      1957.39
  136.62        3336.75           6697        1440.00      6252.26
  136.65        3337.00           6701        2661.00     11577.69
  136.68        3337.25           6704        3682.00     16032.12
  136.71        3337.50           6708        4942.00     21530.91
  136.74        3337.75           6712        6146.00     26787.00
  136.77        3338.00           6716        7322.00     31922.45
  136.80        3338.25           6719        8260.00     36019.72
  136.83        3338.50           6723        9320.00     40651.11
  136.86        3338.75           6727       10689.00     46634.51
  136.89        3339.00           6731       11950.00     52147.78
  136.93        3339.25           6734       12961.00     56569.33
  136.96        3339.50           6738       14146.00     61753.36
  137.00        3339.75           6742       15479.00     67586.77
  137.03        3340.00           6746       16638.00     72660.40
  137.07        3340.25           6750       17958.00     78440.69
  137.10        3340.50           6753       18965.00     82851.71
  137.13        3340.75           6757       20188.00     88210.46
  137.16        3341.00           6761       21318.00     93163.24
  137.19        3341.25           6765       22125.00     96701.22
  137.22        3341.50           6768       22727.00     99340.96
  137.25        3341.75           6772       22498.00     98336.76
  137.28        3342.00           6776       22521.00     98437.61
  137.31        3342.25           6780       21745.00     95035.18
  137.35        3342.50           6783       20718.00     90533.26
  137.38        3342.75           6787       19522.00     85292.07
  137.41        3343.00           6791       18219.00     79583.85
  137.44        3343.25           6795       16783.00     73295.26
  137.47        3343.50           6798       16052.00     70094.95
  137.50        3343.75           6802       14666.00     64028.72
  137.53        3344.00           6806       13414.00     58550.89
  137.56        3344.25           6810       12272.00     53555.90
  137.59        3344.50           6814       10898.00     47548.16
  137.62        3344.75           6817       10003.00     43635.99
  137.66        3345.00           6821        8805.00     38400.79
  137.69        3345.25           6825        7428.00     32385.42
  137.72        3345.50           6829        6264.00     27302.22
  137.75        3345.75           6832        5379.00     23438.45
  137.78        3346.00           6836        4068.00     17716.48
  137.81        3346.25           6840        2713.00     11804.53
  137.84        3346.50           6844        1467.00      6370.01
  137.87        3346.75           6847         641.00      2768.32
  137.90        3347.00           6851         208.00       880.58
  137.93        3347.25           6855         125.00       518.75
  137.97        3347.50           6859          98.00       401.05
  138.00        3347.75           6863          76.00       305.15
  138.03        3348.00           6866          65.00       257.19
  138.06        3348.25           6870          49.00       187.45
  138.09        3348.50           6874          48.00       183.09
  138.12        3348.75           6878          42.00       156.93
  138.15        3349.00           6881          55.00       213.60
  138.18        3349.25           6885          47.00       178.73
  138.21        3349.50           6889          41.00       152.57
  138.24        3349.75           6893          45.00       170.01
  138.27        3350.00           6896          51.00       196.17
  138.30        3350.25           6900          64.00       252.84
  138.34        3350.50           6904          44.00       165.65
  138.37        3350.75           6908          43.00       161.29
  138.40        3351.00           6912          44.00       165.65
HL scan finished at 02:19:04
end
************************************************************
  HL Scan of (1) Internal mercury lamp
************************************************************
Integration time is 0.2294 seconds per sample
dh220619El Arenosillo 37.1 6.73 2.965129pr1000
************************************************************
Dead Time -------------------------  3E-08 
Number of Cycles Used -------------  4 
Starting Wavelength (Angstroms) ---  3331 
Final Wavelength (Angstoms) -------  3351 
Wavelength Increment (Angstroms) --  .25 
Filter Wheel #1 Position ---------- (1) Ground quartz diffuser (ND=2.32)
Filter Wheel #2 Position ---------- 



************************************************************
HL scan start time = 21:50:03
Dark Count =  8.3 


Time (GMT)  Wavelength (Ang)  Step Number  Raw Counts  Counts/Second

 1310.57        3331.00           6610          44.00       155.62
 1310.79        3331.25           6614          42.00       146.91
 1310.83        3331.50           6618          41.00       142.55
 1310.86        3331.75           6622          40.00       138.19
 1310.89        3332.00           6626          48.00       173.06
 1310.92        3332.25           6629          48.00       173.06
 1310.95        3332.50           6633          40.00       138.19
 1310.98        3332.75           6637          51.00       186.14
 1311.01        3333.00           6641          39.00       133.83
 1311.04        3333.25           6644          44.00       155.62
 1311.07        3333.50           6648          45.00       159.98
 1311.11        3333.75           6652          50.00       181.78
 1311.14        3334.00           6656          51.00       186.14
 1311.17        3334.25           6659          49.00       177.42
 1311.20        3334.50           6663          70.00       268.96
 1311.23        3334.75           6667          78.00       303.84
 1311.26        3335.00           6671          97.00       386.67
 1311.29        3335.25           6674         108.00       434.62
 1311.32        3335.50           6678         130.00       530.52
 1311.35        3335.75           6682         144.00       591.55
 1311.38        3336.00           6686         160.00       661.30
 1311.41        3336.25           6689         215.00       901.07
 1311.44        3336.50           6693         367.00      1563.72
 1311.48        3336.75           6697        1091.00      4720.37
 1311.51        3337.00           6701        2244.00      9748.71
 1311.54        3337.25           6704        3083.00     13408.62
 1311.57        3337.50           6708        4229.00     18409.03
 1311.60        3337.75           6712        5455.00     23760.18
 1311.63        3338.00           6716        6527.00     28440.56
 1311.66        3338.25           6719        7423.00     32353.53
 1311.69        3338.50           6723        8546.00     37259.15
 1311.72        3338.75           6727        9802.00     42747.47
 1311.76        3339.00           6731       10888.00     47494.39
 1311.79        3339.25           6734       11757.00     51293.78
 1311.82        3339.50           6738       12844.00     56047.53
 1311.85        3339.75           6742       14179.00     61887.69
 1311.88        3340.00           6746       15251.00     66578.80
 1311.91        3340.25           6750       16398.00     71599.58
 1311.94        3340.50           6753       17338.00     75715.38
 1311.97        3340.75           6757       18515.00     80870.33
 1312.00        3341.00           6761       19564.00     85466.02
 1312.03        3341.25           6765       20366.00     88980.46
 1312.07        3341.50           6768       20783.00     90808.08
 1312.10        3341.75           6772       20817.00     90957.09
 1312.13        3342.00           6776       20608.00     90041.06
 1312.16        3342.25           6780       19950.00     87157.41
 1312.19        3342.50           6783       19158.00     83687.18
 1312.22        3342.75           6787       18132.00     79192.72
 1312.25        3343.00           6791       16887.00     73740.55
 1312.28        3343.25           6795       15731.00     68679.74
 1312.31        3343.50           6798       14897.00     65029.53
 1312.35        3343.75           6802       13724.00     59896.99
 1312.38        3344.00           6806       12469.00     54407.39
 1312.41        3344.25           6810       11315.00     49361.19
 1312.44        3344.50           6814       10212.00     44539.42
 1312.47        3344.75           6817        9324.00     40658.54
 1312.50        3345.00           6821        8111.00     35358.76
 1312.53        3345.25           6825        6956.00     30313.96
 1312.56        3345.50           6829        5842.00     25449.68
 1312.59        3345.75           6832        4974.00     21660.54
 1312.63        3346.00           6836        3809.00     16576.25
 1312.66        3346.25           6840        2562.00     11135.80
 1312.69        3346.50           6844        1388.00      6015.47
 1312.72        3346.75           6847         619.00      2662.38
 1312.75        3347.00           6851         219.00       918.51
 1312.78        3347.25           6855         126.00       513.09
 1312.81        3347.50           6859         105.00       421.54
 1312.84        3347.75           6863          93.00       369.23
 1312.87        3348.00           6866          64.00       242.81
 1312.90        3348.25           6870          60.00       225.37
 1312.94        3348.50           6874          47.00       168.70
 1312.97        3348.75           6878          47.00       168.70
 1313.00        3349.00           6881          47.00       168.70
 1313.03        3349.25           6885          47.00       168.70
 1313.06        3349.50           6889          48.00       173.06
 1313.09        3349.75           6893          52.00       190.50
 1313.12        3350.00           6896          44.00       155.62
 1313.15        3350.25           6900          44.00       155.62
 1313.18        3350.50           6904          48.00       173.06
 1313.22        3350.75           6908          47.00       168.70
 1313.25        3351.00           6912          42.00       146.91
HL scan finished at 21:53:54
end
