************************************************************
  HL Scan of (1) Internal mercury lamp
************************************************************
Integration time is 0.2294 seconds per sample
dh230619El Arenosillo 37.1 6.73 2.965129pr1000
************************************************************
Dead Time -------------------------  3E-08 
Number of Cycles Used -------------  4 
Starting Wavelength (Angstroms) ---  3331 
Final Wavelength (Angstoms) -------  3351 
Wavelength Increment (Angstroms) --  .25 
Filter Wheel #1 Position ---------- (1) Ground quartz diffuser (ND=2.32)
Filter Wheel #2 Position ---------- 



************************************************************
HL scan start time = 02:09:17
Dark Count =  7.5 


Time (GMT)  Wavelength (Ang)  Step Number  Raw Counts  Counts/Second

  129.81        3331.00           6610          43.00       154.75
  130.03        3331.25           6614          59.00       224.50
  130.07        3331.50           6618          42.00       150.39
  130.10        3331.75           6622          48.00       176.55
  130.13        3332.00           6626          45.00       163.47
  130.16        3332.25           6629          43.00       154.75
  130.19        3332.50           6633          42.00       150.39
  130.22        3332.75           6637          41.00       146.03
  130.25        3333.00           6641          42.00       150.39
  130.28        3333.25           6644          47.00       172.19
  130.31        3333.50           6648          45.00       163.47
  130.34        3333.75           6652          49.00       180.91
  130.37        3334.00           6656          51.00       189.63
  130.41        3334.25           6659          58.00       220.14
  130.44        3334.50           6663          76.00       298.61
  130.47        3334.75           6667          85.00       337.84
  130.50        3335.00           6671         109.00       442.46
  130.53        3335.25           6674         112.00       455.54
  130.56        3335.50           6678         134.00       551.45
  130.59        3335.75           6682         153.00       634.28
  130.62        3336.00           6686         191.00       799.93
  130.65        3336.25           6689         225.00       948.15
  130.68        3336.50           6693         497.00      2133.96
  130.71        3336.75           6697        1379.00      5979.71
  130.75        3337.00           6701        2484.00     10799.05
  130.78        3337.25           6704        3421.00     14886.77
  130.81        3337.50           6708        4586.00     19970.55
  130.84        3337.75           6712        5737.00     24994.76
  130.87        3338.00           6716        6871.00     29946.25
  130.90        3338.25           6719        7709.00     33606.23
  130.93        3338.50           6723        8645.00     37695.18
  130.96        3338.75           6727        9881.00     43096.23
  130.99        3339.00           6731       11144.00     48617.07
  131.02        3339.25           6734       11863.00     51760.79
  131.06        3339.50           6738       13207.00     57638.82
  131.09        3339.75           6742       14184.00     61913.06
  131.12        3340.00           6746       15418.00     67313.22
  131.15        3340.25           6750       16475.00     71940.19
  131.18        3340.50           6753       17268.00     75412.36
  131.21        3340.75           6757       18312.00     79984.63
  131.24        3341.00           6761       19309.00     84352.25
  131.27        3341.25           6765       20169.00     88120.62
  131.30        3341.50           6768       20404.00     89150.49
  131.34        3341.75           6772       20343.00     88883.16
  131.37        3342.00           6776       20182.00     88177.59
  131.40        3342.25           6780       19456.00     84996.31
  131.43        3342.50           6783       18602.00     81254.94
  131.46        3342.75           6787       17570.00     76734.86
  131.49        3343.00           6791       16401.00     71616.22
  131.52        3343.25           6795       15255.00     66599.81
  131.55        3343.50           6798       14416.00     62928.19
  131.58        3343.75           6802       13202.00     57616.94
  131.61        3344.00           6806       12009.00     52399.22
  131.65        3344.25           6810       10876.00     47445.43
  131.68        3344.50           6814        9768.00     42602.37
  131.71        3344.75           6817        8878.00     38713.20
  131.74        3345.00           6821        7810.00     34047.40
  131.77        3345.25           6825        6665.00     29046.66
  131.80        3345.50           6829        5585.00     24331.18
  131.83        3345.75           6832        4728.00     20590.31
  131.86        3346.00           6836        3596.00     15650.33
  131.89        3346.25           6840        2411.00     10480.63
  131.93        3346.50           6844        1250.00      5417.18
  131.96        3346.75           6847         580.00      2495.83
  131.99        3347.00           6851         216.00       908.92
  132.02        3347.25           6855         111.00       451.18
  132.05        3347.50           6859          85.00       337.84
  132.08        3347.75           6863          77.00       302.97
  132.11        3348.00           6866          56.00       211.42
  132.14        3348.25           6870          51.00       189.63
  132.17        3348.50           6874          56.00       211.42
  132.20        3348.75           6878          45.00       163.47
  132.23        3349.00           6881          45.00       163.47
  132.26        3349.25           6885          45.00       163.47
  132.30        3349.50           6889          44.00       159.11
  132.33        3349.75           6893          46.00       167.83
  132.36        3350.00           6896          47.00       172.19
  132.39        3350.25           6900          45.00       163.47
  132.42        3350.50           6904          49.00       180.91
  132.45        3350.75           6908          42.00       150.39
  132.48        3351.00           6912          50.00       185.27
HL scan finished at 02:13:09
end
