************************************************************
  HL Scan of (1) Internal mercury lamp
************************************************************
Integration time is 0.2294 seconds per sample
dh250619El Arenosillo 37.1 6.73 3.072425pr1000
************************************************************
Dead Time -------------------------  3E-08 
Number of Cycles Used -------------  4 
Starting Wavelength (Angstroms) ---  3331 
Final Wavelength (Angstoms) -------  3351 
Wavelength Increment (Angstroms) --  .25 
Filter Wheel #1 Position ---------- (1) Ground quartz diffuser (ND=2.32)
Filter Wheel #2 Position ---------- 



************************************************************
HL scan start time = 02:21:14
Dark Count =  5.7 


Time (GMT)  Wavelength (Ang)  Step Number  Raw Counts  Counts/Second

  141.75        3331.00           6610          53.00       206.19
  141.98        3331.25           6614          57.00       223.63
  142.01        3331.50           6618          48.00       184.40
  142.04        3331.75           6622          39.00       145.16
  142.07        3332.00           6626          46.00       175.68
  142.10        3332.25           6629          41.00       153.88
  142.13        3332.50           6633          43.00       162.60
  142.16        3332.75           6637          43.00       162.60
  142.19        3333.00           6641          50.00       193.11
  142.22        3333.25           6644          46.00       175.68
  142.25        3333.50           6648          43.00       162.60
  142.28        3333.75           6652          44.00       166.96
  142.32        3334.00           6656          45.00       171.32
  142.35        3334.25           6659          62.00       245.42
  142.38        3334.50           6663          77.00       310.81
  142.41        3334.75           6667          87.00       354.41
  142.44        3335.00           6671         106.00       437.23
  142.47        3335.25           6674         125.00       520.06
  142.50        3335.50           6678         150.00       629.04
  142.53        3335.75           6682         174.00       733.67
  142.56        3336.00           6686         198.00       838.29
  142.59        3336.25           6689         235.00       999.59
  142.62        3336.50           6693         511.00      2202.85
  142.66        3336.75           6697        1454.00      6314.62
  142.69        3337.00           6701        2655.00     11552.83
  142.72        3337.25           6704        3602.00     15684.36
  142.75        3337.50           6708        4830.00     21043.36
  142.78        3337.75           6712        6035.00     26303.66
  142.81        3338.00           6716        7351.00     32050.42
  142.84        3338.25           6719        8239.00     35929.29
  142.87        3338.50           6723        9536.00     41596.35
  142.90        3338.75           6727       10760.00     46946.20
  142.94        3339.00           6731       12120.00     52892.49
  142.97        3339.25           6734       13008.00     56776.22
  143.00        3339.50           6738       14229.00     62117.83
  143.03        3339.75           6742       15447.00     67448.02
  143.06        3340.00           6746       16598.00     72486.59
  143.09        3340.25           6750       17771.00     77623.01
  143.12        3340.50           6753       18777.00     82029.44
  143.15        3340.75           6757       20132.00     87966.37
  143.18        3341.00           6761       21145.00     92406.21
  143.22        3341.25           6765       21994.00     96128.18
  143.25        3341.50           6768       22234.00     97180.47
  143.28        3341.75           6772       22439.00     98079.37
  143.31        3342.00           6776       22126.00     96706.93
  143.34        3342.25           6780       21260.00     92910.31
  143.37        3342.50           6783       20382.00     89061.97
  143.40        3342.75           6787       19228.00     84005.25
  143.43        3343.00           6791       18007.00     78656.63
  143.46        3343.25           6795       16724.00     73038.25
  143.49        3343.50           6798       15759.00     68813.66
  143.52        3343.75           6802       14501.00     63308.01
  143.56        3344.00           6806       13193.00     57585.45
  143.59        3344.25           6810       11960.00     52192.82
  143.62        3344.50           6814       10667.00     46539.65
  143.65        3344.75           6817        9826.00     42863.72
  143.68        3345.00           6821        8515.00     37135.07
  143.71        3345.25           6825        7319.00     31910.65
  143.74        3345.50           6829        6092.00     26552.53
  143.77        3345.75           6832        4997.00     21772.28
  143.80        3346.00           6836        3809.00     16587.59
  143.83        3346.25           6840        2483.00     10802.54
  143.86        3346.50           6844        1297.00      5629.98
  143.90        3346.75           6847         541.00      2333.64
  143.93        3347.00           6851         209.00       886.25
  143.96        3347.25           6855         118.00       489.55
  143.99        3347.50           6859          99.00       406.72
  144.02        3347.75           6863          81.00       328.25
  144.05        3348.00           6866          60.00       236.71
  144.08        3348.25           6870          55.00       214.91
  144.11        3348.50           6874          45.00       171.32
  144.14        3348.75           6878          48.00       184.40
  144.17        3349.00           6881          39.00       145.16
  144.20        3349.25           6885          49.00       188.75
  144.23        3349.50           6889          52.00       201.83
  144.26        3349.75           6893          49.00       188.75
  144.29        3350.00           6896          53.00       206.19
  144.32        3350.25           6900          49.00       188.75
  144.35        3350.50           6904          47.00       180.04
  144.39        3350.75           6908          49.00       188.75
  144.42        3351.00           6912          48.00       184.40
HL scan finished at 02:25:05
end
