************************************************************
  HL Scan of (1) Internal mercury lamp
************************************************************
Integration time is 0.2294 seconds per sample
dh260619El Arenosillo 37.1 6.73 3.072425pr1000
************************************************************
Dead Time -------------------------  3E-08 
Number of Cycles Used -------------  4 
Starting Wavelength (Angstroms) ---  3331 
Final Wavelength (Angstoms) -------  3351 
Wavelength Increment (Angstroms) --  .25 
Filter Wheel #1 Position ---------- (1) Ground quartz diffuser (ND=2.32)
Filter Wheel #2 Position ---------- 



************************************************************
HL scan start time = 02:09:14
Dark Count =  7.3 


Time (GMT)  Wavelength (Ang)  Step Number  Raw Counts  Counts/Second

  129.75        3331.00           6610          58.00       221.01
  129.97        3331.25           6614          48.00       177.42
  130.01        3331.50           6618          44.00       159.98
  130.04        3331.75           6622          44.00       159.98
  130.07        3332.00           6626          49.00       181.78
  130.10        3332.25           6629          45.00       164.34
  130.13        3332.50           6633          44.00       159.98
  130.16        3332.75           6637          48.00       177.42
  130.19        3333.00           6641          53.00       199.22
  130.22        3333.25           6644          49.00       181.78
  130.25        3333.50           6648          51.00       190.50
  130.28        3333.75           6652          38.00       133.83
  130.31        3334.00           6656          51.00       190.50
  130.34        3334.25           6659          55.00       207.94
  130.37        3334.50           6663          68.00       264.61
  130.40        3334.75           6667         101.00       408.46
  130.44        3335.00           6671         111.00       452.05
  130.47        3335.25           6674         129.00       530.52
  130.50        3335.50           6678         148.00       613.35
  130.53        3335.75           6682         178.00       744.13
  130.56        3336.00           6686         196.00       822.60
  130.59        3336.25           6689         238.00      1005.70
  130.62        3336.50           6693         432.00      1851.45
  130.65        3336.75           6697        1368.00      5932.62
  130.68        3337.00           6701        2634.00     11454.24
  130.71        3337.25           6704        3699.00     16100.63
  130.74        3337.50           6708        4945.00     21538.33
  130.77        3337.75           6712        6341.00     27632.75
  130.80        3338.00           6716        7659.00     33388.71
  130.83        3338.25           6719        8728.00     38058.69
  130.86        3338.50           6723        9929.00     43306.89
  130.90        3338.75           6727       11355.00     49540.45
  130.93        3339.00           6731       12496.00     54529.85
  130.96        3339.25           6734       13709.00     59835.74
  130.99        3339.50           6738       15023.00     65585.32
  131.02        3339.75           6742       16337.00     71336.91
  131.05        3340.00           6746       17664.00     77147.40
  131.08        3340.25           6750       18957.00     82810.97
  131.11        3340.50           6753       20135.00     87972.49
  131.14        3340.75           6757       21463.00     93793.19
  131.17        3341.00           6761       22688.00     99164.22
  131.20        3341.25           6765       23748.00    103813.20
  131.24        3341.50           6768       23922.00    104576.50
  131.27        3341.75           6772       23915.00    104545.80
  131.30        3342.00           6776       23803.00    104054.50
  131.33        3342.25           6780       23007.00    100563.20
  131.36        3342.50           6783       22020.00     96235.15
  131.39        3342.75           6787       20680.00     90361.02
  131.42        3343.00           6791       19343.00     84502.09
  131.45        3343.25           6795       18062.00     78890.50
  131.48        3343.50           6798       17209.00     75154.87
  131.51        3343.75           6802       15691.00     68509.02
  131.54        3344.00           6806       14487.00     63239.74
  131.57        3344.25           6810       13106.00     57197.90
  131.60        3344.50           6814       11600.00     50611.67
  131.64        3344.75           6817       10666.00     46528.29
  131.67        3345.00           6821        9435.00     41147.98
  131.70        3345.25           6825        8070.00     35184.02
  131.73        3345.50           6829        6626.00     28877.23
  131.76        3345.75           6832        5582.00     24318.96
  131.79        3346.00           6836        4132.00     17990.09
  131.82        3346.25           6840        2724.00     11846.84
  131.85        3346.50           6844        1480.00      6421.03
  131.88        3346.75           6847         636.00      2740.85
  131.91        3347.00           6851         258.00      1092.89
  131.94        3347.25           6855         136.00       561.04
  131.98        3347.50           6859         112.00       456.41
  132.01        3347.75           6863          87.00       347.43
  132.04        3348.00           6866          67.00       260.25
  132.07        3348.25           6870          50.00       186.14
  132.10        3348.50           6874          47.00       173.06
  132.13        3348.75           6878          51.00       190.50
  132.16        3349.00           6881          44.00       159.98
  132.19        3349.25           6885          44.00       159.98
  132.22        3349.50           6889          47.00       173.06
  132.25        3349.75           6893          47.00       173.06
  132.28        3350.00           6896          45.00       164.34
  132.31        3350.25           6900          47.00       173.06
  132.34        3350.50           6904          46.00       168.70
  132.37        3350.75           6908          42.00       151.26
  132.41        3351.00           6912          43.00       155.62
HL scan finished at 02:13:04
end
