************************************************************
  HL Scan of (1) Internal mercury lamp
************************************************************
Integration time is 0.2294 seconds per sample
dh250619El Arenosillo 37.1 6.73 3.072425pr1000
************************************************************
Dead Time -------------------------  3E-08 
Number of Cycles Used -------------  4 
Starting Wavelength (Angstroms) ---  3331 
Final Wavelength (Angstoms) -------  3351 
Wavelength Increment (Angstroms) --  .25 
Filter Wheel #1 Position ---------- (1) Ground quartz diffuser (ND=2.32)
Filter Wheel #2 Position ---------- 



************************************************************
HL scan start time = 02:21:14
Dark Count =  5.7 


Time (GMT)  Wavelength (Ang)  Step Number  Raw Counts  Counts/Second

  141.75        3331.00           6610          53.00       206.19
  141.98        3331.25           6614          57.00       223.63
  142.01        3331.50           6618          48.00       184.40
  142.04        3331.75           6622          39.00       145.16
  142.07        3332.00           6626          46.00       175.68
  142.10        3332.25           6629          41.00       153.88
  142.13        3332.50           6633          43.00       162.60
  142.16        3332.75           6637          43.00       162.60
  142.19        3333.00           6641          50.00       193.11
  142.22        3333.25           6644          46.00       175.68
  142.25        3333.50           6648          43.00       162.60
  142.28        3333.75           6652          44.00       166.96
  142.32        3334.00           6656          45.00       171.32
  142.35        3334.25           6659          62.00       245.42
  142.38        3334.50           6663          77.00       310.81
  142.41        3334.75           6667          87.00       354.41
  142.44        3335.00           6671         106.00       437.23
  142.47        3335.25           6674         125.00       520.06
  142.50        3335.50           6678         150.00       629.04
  142.53        3335.75           6682         174.00       733.67
  142.56        3336.00           6686         198.00       838.29
  142.59        3336.25           6689         235.00       999.59
  142.62        3336.50           6693         511.00      2202.85
  142.66        3336.75           6697        1454.00      6314.62
  142.69        3337.00           6701        2655.00     11552.83
  142.72        3337.25           6704        3602.00     15684.36
  142.75        3337.50           6708        4830.00     21043.36
  142.78        3337.75           6712        6035.00     26303.66
  142.81        3338.00           6716        7351.00     32050.42
  142.84        3338.25           6719        8239.00     35929.29
  142.87        3338.50           6723        9536.00     41596.35
  142.90        3338.75           6727       10760.00     46946.20
  142.94        3339.00           6731       12120.00     52892.49
  142.97        3339.25           6734       13008.00     56776.22
  143.00        3339.50           6738       14229.00     62117.83
  143.03        3339.75           6742       15447.00     67448.02
  143.06        3340.00           6746       16598.00     72486.59
  143.09        3340.25           6750       17771.00     77623.01
  143.12        3340.50           6753       18777.00     82029.44
  143.15        3340.75           6757       20132.00     87966.37
  143.18        3341.00           6761       21145.00     92406.21
  143.22        3341.25           6765       21994.00     96128.18
  143.25        3341.50           6768       22234.00     97180.47
  143.28        3341.75           6772       22439.00     98079.37
  143.31        3342.00           6776       22126.00     96706.93
  143.34        3342.25           6780       21260.00     92910.31
  143.37        3342.50           6783       20382.00     89061.97
  143.40        3342.75           6787       19228.00     84005.25
  143.43        3343.00           6791       18007.00     78656.63
  143.46        3343.25           6795       16724.00     73038.25
  143.49        3343.50           6798       15759.00     68813.66
  143.52        3343.75           6802       14501.00     63308.01
  143.56        3344.00           6806       13193.00     57585.45
  143.59        3344.25           6810       11960.00     52192.82
  143.62        3344.50           6814       10667.00     46539.65
  143.65        3344.75           6817        9826.00     42863.72
  143.68        3345.00           6821        8515.00     37135.07
  143.71        3345.25           6825        7319.00     31910.65
  143.74        3345.50           6829        6092.00     26552.53
  143.77        3345.75           6832        4997.00     21772.28
  143.80        3346.00           6836        3809.00     16587.59
  143.83        3346.25           6840        2483.00     10802.54
  143.86        3346.50           6844        1297.00      5629.98
  143.90        3346.75           6847         541.00      2333.64
  143.93        3347.00           6851         209.00       886.25
  143.96        3347.25           6855         118.00       489.55
  143.99        3347.50           6859          99.00       406.72
  144.02        3347.75           6863          81.00       328.25
  144.05        3348.00           6866          60.00       236.71
  144.08        3348.25           6870          55.00       214.91
  144.11        3348.50           6874          45.00       171.32
  144.14        3348.75           6878          48.00       184.40
  144.17        3349.00           6881          39.00       145.16
  144.20        3349.25           6885          49.00       188.75
  144.23        3349.50           6889          52.00       201.83
  144.26        3349.75           6893          49.00       188.75
  144.29        3350.00           6896          53.00       206.19
  144.32        3350.25           6900          49.00       188.75
  144.35        3350.50           6904          47.00       180.04
  144.39        3350.75           6908          49.00       188.75
  144.42        3351.00           6912          48.00       184.40
HL scan finished at 02:25:05
end
************************************************************
  HL Scan of (1) Internal mercury lamp
************************************************************
Integration time is 0.2294 seconds per sample
dh250619El Arenosillo 37.1 6.73 3.179721pr1000
************************************************************
Dead Time -------------------------  3E-08 
Number of Cycles Used -------------  4 
Starting Wavelength (Angstroms) ---  3331 
Final Wavelength (Angstoms) -------  3351 
Wavelength Increment (Angstroms) --  .25 
Filter Wheel #1 Position ---------- (1) Ground quartz diffuser (ND=2.32)
Filter Wheel #2 Position ---------- 



************************************************************
HL scan start time = 20:41:01
Dark Count =  7.1 


Time (GMT)  Wavelength (Ang)  Step Number  Raw Counts  Counts/Second

 1241.54        3331.00           6610          41.00       147.78
 1241.76        3331.25           6614          46.00       169.57
 1241.79        3331.50           6618          42.00       152.14
 1241.82        3331.75           6622          50.00       187.01
 1241.85        3332.00           6626          43.00       156.50
 1241.88        3332.25           6629          48.00       178.29
 1241.91        3332.50           6633          45.00       165.21
 1241.95        3332.75           6637          46.00       169.57
 1241.98        3333.00           6641          48.00       178.29
 1242.01        3333.25           6644          42.00       152.14
 1242.04        3333.50           6648          48.00       178.29
 1242.07        3333.75           6652          40.00       143.42
 1242.10        3334.00           6656          48.00       178.29
 1242.13        3334.25           6659          57.00       217.53
 1242.16        3334.50           6663          82.00       326.51
 1242.19        3334.75           6667          87.00       348.30
 1242.22        3335.00           6671         124.00       509.60
 1242.26        3335.25           6674         131.00       540.11
 1242.29        3335.50           6678         159.00       662.18
 1242.32        3335.75           6682         181.00       758.08
 1242.35        3336.00           6686         218.00       919.38
 1242.38        3336.25           6689         264.00      1119.92
 1242.41        3336.50           6693         501.00      2153.15
 1242.44        3336.75           6697        1532.00      6648.67
 1242.47        3337.00           6701        2917.00     12689.66
 1242.50        3337.25           6704        3900.00     16978.57
 1242.53        3337.50           6708        5263.00     22927.27
 1242.56        3337.75           6712        6577.00     28664.13
 1242.59        3338.00           6716        7908.00     34477.23
 1242.63        3338.25           6719        9007.00     39278.61
 1242.66        3338.50           6723       10473.00     45685.51
 1242.69        3338.75           6727       11842.00     51670.71
 1242.72        3339.00           6731       13005.00     56756.99
 1242.75        3339.25           6734       14408.00     62894.94
 1242.78        3339.50           6738       15612.00     68164.10
 1242.81        3339.75           6742       16948.00     74012.90
 1242.84        3340.00           6746       18461.00     80639.05
 1242.87        3340.25           6750       19625.00     85738.56
 1242.91        3340.50           6753       20706.00     90475.85
 1242.94        3340.75           6757       21942.00     95894.05
 1242.97        3341.00           6761       23416.00    102357.90
 1243.00        3341.25           6765       24409.00    106713.80
 1243.03        3341.50           6768       24770.00    108297.70
 1243.06        3341.75           6772       24885.00    108802.30
 1243.09        3342.00           6776       24798.00    108420.50
 1243.12        3342.25           6780       23824.00    104147.50
 1243.15        3342.50           6783       22846.00     99857.99
 1243.19        3342.75           6787       21369.00     93381.99
 1243.22        3343.00           6791       20054.00     87618.41
 1243.25        3343.25           6795       18733.00     81830.55
 1243.28        3343.50           6798       17623.00     76968.71
 1243.31        3343.75           6802       16291.00     71136.40
 1243.34        3344.00           6806       14977.00     65384.90
 1243.37        3344.25           6810       13527.00     59040.40
 1243.40        3344.50           6814       12011.00     52409.72
 1243.43        3344.75           6817       11137.00     48588.22
 1243.47        3345.00           6821        9700.00     42306.94
 1243.50        3345.25           6825        8186.00     35691.64
 1243.53        3345.50           6829        6865.00     29921.79
 1243.56        3345.75           6832        5731.00     24970.31
 1243.59        3346.00           6836        4336.00     18881.22
 1243.62        3346.25           6840        2916.00     12685.30
 1243.65        3346.50           6844        1670.00      7250.49
 1243.68        3346.75           6847         711.00      3068.72
 1243.71        3347.00           6851         238.00      1006.57
 1243.75        3347.25           6855         135.00       557.55
 1243.78        3347.50           6859         119.00       487.80
 1243.81        3347.75           6863          82.00       326.51
 1243.84        3348.00           6866          64.00       248.04
 1243.87        3348.25           6870          60.00       230.60
 1243.90        3348.50           6874          57.00       217.53
 1243.93        3348.75           6878          48.00       178.29
 1243.96        3349.00           6881          52.00       195.73
 1243.99        3349.25           6885          50.00       187.01
 1244.02        3349.50           6889          47.00       173.93
 1244.06        3349.75           6893          45.00       165.21
 1244.09        3350.00           6896          49.00       182.65
 1244.12        3350.25           6900          51.00       191.37
 1244.15        3350.50           6904          45.00       165.21
 1244.18        3350.75           6908          56.00       213.17
 1244.21        3351.00           6912          52.00       195.73
HL scan finished at 20:44:53
end
