************************************************************
  HL Scan of (1) Internal mercury lamp
************************************************************
Integration time is 0.2294 seconds per sample
dh270619El Arenosillo 37.1 6.73 3.072425pr1000
************************************************************
Dead Time -------------------------  3E-08 
Number of Cycles Used -------------  4 
Starting Wavelength (Angstroms) ---  3331 
Final Wavelength (Angstoms) -------  3351 
Wavelength Increment (Angstroms) --  .25 
Filter Wheel #1 Position ---------- (1) Ground quartz diffuser (ND=2.32)
Filter Wheel #2 Position ---------- 



************************************************************
HL scan start time = 02:10:14
Dark Count =  3.4 


Time (GMT)  Wavelength (Ang)  Step Number  Raw Counts  Counts/Second

  130.76        3331.00           6610          47.00       190.06
  130.98        3331.25           6614          48.00       194.42
  131.01        3331.50           6618          47.00       190.06
  131.04        3331.75           6622          48.00       194.42
  131.07        3332.00           6626          46.00       185.70
  131.10        3332.25           6629          46.00       185.70
  131.13        3332.50           6633          40.00       159.55
  131.16        3332.75           6637          46.00       185.70
  131.19        3333.00           6641          49.00       198.78
  131.23        3333.25           6644          44.00       176.98
  131.26        3333.50           6648          42.00       168.27
  131.29        3333.75           6652          45.00       181.34
  131.32        3334.00           6656          51.00       207.50
  131.35        3334.25           6659          62.00       255.45
  131.38        3334.50           6663          83.00       347.00
  131.41        3334.75           6667          92.00       386.23
  131.44        3335.00           6671         111.00       469.06
  131.47        3335.25           6674         144.00       612.91
  131.51        3335.50           6678         145.00       617.27
  131.54        3335.75           6682         173.00       739.34
  131.57        3336.00           6686         207.00       887.56
  131.60        3336.25           6689         254.00      1092.45
  131.63        3336.50           6693         564.00      2443.95
  131.66        3336.75           6697        1511.00      6573.22
  131.69        3337.00           6701        2671.00     11632.66
  131.72        3337.25           6704        3726.00     16235.46
  131.75        3337.50           6708        5049.00     22009.30
  131.78        3337.75           6712        6372.00     27785.14
  131.81        3338.00           6716        7666.00     33436.32
  131.84        3338.25           6719        8672.00     37831.05
  131.87        3338.50           6723        9947.00     43402.60
  131.90        3338.75           6727       11138.00     48608.76
  131.94        3339.00           6731       12483.00     54490.05
  131.97        3339.25           6734       13465.00     58785.36
  132.00        3339.50           6738       14774.00     64512.71
  132.03        3339.75           6742       15848.00     69213.31
  132.06        3340.00           6746       17112.00     74747.21
  132.09        3340.25           6750       18633.00     81408.70
  132.12        3340.50           6753       19483.00     85132.58
  132.15        3340.75           6757       20799.00     90899.68
  132.18        3341.00           6761       21817.00     95362.22
  132.21        3341.25           6765       22758.00     99488.30
  132.24        3341.50           6768       22934.00    100260.10
  132.28        3341.75           6772       22896.00    100093.50
  132.31        3342.00           6776       22597.00     98782.28
  132.34        3342.25           6780       21564.00     94253.06
  132.37        3342.50           6783       20815.00     90969.81
  132.40        3342.75           6787       19515.00     85272.80
  132.43        3343.00           6791       18271.00     79823.01
  132.46        3343.25           6795       17073.00     74576.43
  132.49        3343.50           6798       16062.00     70150.09
  132.52        3343.75           6802       14699.00     64184.50
  132.55        3344.00           6806       13429.00     58627.87
  132.59        3344.25           6810       12225.00     53361.73
  132.62        3344.50           6814       10858.00     47384.66
  132.65        3344.75           6817       10010.00     43677.95
  132.68        3345.00           6821        8725.00     38062.62
  132.71        3345.25           6825        7411.00     32322.52
  132.74        3345.50           6829        6082.00     26518.91
  132.77        3345.75           6832        5157.00     22480.72
  132.80        3346.00           6836        3900.00     16994.71
  132.83        3346.25           6840        2622.00     11418.91
  132.87        3346.50           6844        1389.00      6041.20
  132.90        3346.75           6847         629.00      2727.34
  132.93        3347.00           6851         216.00       926.79
  132.96        3347.25           6855         120.00       508.29
  132.99        3347.50           6859          94.00       394.95
  133.02        3347.75           6863          75.00       312.12
  133.05        3348.00           6866          53.00       216.22
  133.08        3348.25           6870          53.00       216.22
  133.11        3348.50           6874          46.00       185.70
  133.14        3348.75           6878          45.00       181.34
  133.17        3349.00           6881          46.00       185.70
  133.20        3349.25           6885          42.00       168.27
  133.23        3349.50           6889          51.00       207.50
  133.27        3349.75           6893          50.00       203.14
  133.30        3350.00           6896          46.00       185.70
  133.33        3350.25           6900          55.00       224.94
  133.36        3350.50           6904          43.00       172.63
  133.39        3350.75           6908          45.00       181.34
  133.42        3351.00           6912          50.00       203.14
HL scan finished at 02:14:05
end
************************************************************
  HL Scan of (1) Internal mercury lamp
************************************************************
Integration time is 0.2294 seconds per sample
dh270619El Arenosillo 37.1 6.73 3.233369pr1000
************************************************************
Dead Time -------------------------  3E-08 
Number of Cycles Used -------------  4 
Starting Wavelength (Angstroms) ---  3331 
Final Wavelength (Angstoms) -------  3351 
Wavelength Increment (Angstroms) --  .25 
Filter Wheel #1 Position ---------- (1) Ground quartz diffuser (ND=2.32)
Filter Wheel #2 Position ---------- 



************************************************************
HL scan start time = 20:41:00
Dark Count =  6.5 


Time (GMT)  Wavelength (Ang)  Step Number  Raw Counts  Counts/Second

 1241.52        3331.00           6610          41.00       150.39
 1241.74        3331.25           6614          41.00       150.39
 1241.77        3331.50           6618          47.00       176.55
 1241.80        3331.75           6622          46.00       172.19
 1241.83        3332.00           6626          46.00       172.19
 1241.86        3332.25           6629          41.00       150.39
 1241.89        3332.50           6633          49.00       185.27
 1241.93        3332.75           6637          45.00       167.83
 1241.96        3333.00           6641          42.00       154.75
 1241.99        3333.25           6644          52.00       198.34
 1242.02        3333.50           6648          48.00       180.91
 1242.05        3333.75           6652          52.00       198.34
 1242.08        3334.00           6656          54.00       207.06
 1242.11        3334.25           6659          57.00       220.14
 1242.14        3334.50           6663          84.00       337.84
 1242.17        3334.75           6667          98.00       398.87
 1242.20        3335.00           6671         110.00       451.18
 1242.23        3335.25           6674         158.00       660.43
 1242.27        3335.50           6678         154.00       642.99
 1242.30        3335.75           6682         190.00       799.93
 1242.33        3336.00           6686         218.00       922.00
 1242.36        3336.25           6689         265.00      1126.89
 1242.39        3336.50           6693         494.00      2125.24
 1242.42        3336.75           6697        1582.00      6869.33
 1242.45        3337.00           6701        3052.00     13281.23
 1242.48        3337.25           6704        4173.00     18172.50
 1242.51        3337.50           6708        5583.00     24326.82
 1242.55        3337.75           6712        6939.00     30247.58
 1242.58        3338.00           6716        8243.00     35943.27
 1242.61        3338.25           6719        9365.00     40845.58
 1242.64        3338.50           6723       10710.00     46724.13
 1242.67        3338.75           6727       12124.00     52906.49
 1242.70        3339.00           6731       13509.00     58964.28
 1242.73        3339.25           6734       14543.00     63488.29
 1242.76        3339.50           6738       16019.00     69948.29
 1242.79        3339.75           6742       17426.00     76108.63
 1242.82        3340.00           6746       19109.00     83480.40
 1242.86        3340.25           6750       20277.00     88598.30
 1242.89        3340.50           6753       21292.00     93047.09
 1242.92        3340.75           6757       22636.00     98939.71
 1242.95        3341.00           6761       24000.00    104922.20
 1242.98        3341.25           6765       24991.00    109270.00
 1243.01        3341.50           6768       25539.00    111674.70
 1243.04        3341.75           6772       25462.00    111336.80
 1243.07        3342.00           6776       25205.00    110209.00
 1243.10        3342.25           6780       24401.00    106681.30
 1243.13        3342.50           6783       23502.00    102737.70
 1243.17        3342.75           6787       21915.00     95778.30
 1243.20        3343.00           6791       20504.00     89593.15
 1243.23        3343.25           6795       19155.00     83681.93
 1243.26        3343.50           6798       17947.00     78390.33
 1243.29        3343.75           6802       16388.00     71563.68
 1243.32        3344.00           6806       15111.00     65973.96
 1243.35        3344.25           6810       13708.00     59834.86
 1243.38        3344.50           6814       12362.00     53947.31
 1243.42        3344.75           6817       11241.00     49045.53
 1243.45        3345.00           6821        9803.00     42759.70
 1243.48        3345.25           6825        8334.00     36340.82
 1243.51        3345.50           6829        7039.00     30684.30
 1243.54        3345.75           6832        5978.00     26051.31
 1243.57        3346.00           6836        4555.00     19839.62
 1243.60        3346.25           6840        3030.00     13185.25
 1243.63        3346.50           6844        1681.00      7301.08
 1243.66        3346.75           6847         767.00      3315.50
 1243.70        3347.00           6851         267.00      1135.61
 1243.73        3347.25           6855         140.00       581.96
 1243.76        3347.50           6859         110.00       451.18
 1243.79        3347.75           6863          93.00       377.07
 1243.82        3348.00           6866          68.00       268.09
 1243.85        3348.25           6870          56.00       215.78
 1243.88        3348.50           6874          45.00       167.83
 1243.91        3348.75           6878          53.00       202.70
 1243.94        3349.00           6881          51.00       193.99
 1243.97        3349.25           6885          63.00       246.30
 1244.01        3349.50           6889          52.00       198.34
 1244.04        3349.75           6893          49.00       185.27
 1244.07        3350.00           6896          46.00       172.19
 1244.10        3350.25           6900          49.00       185.27
 1244.13        3350.50           6904          41.00       150.39
 1244.16        3350.75           6908          49.00       185.27
 1244.19        3351.00           6912          57.00       220.14
HL scan finished at 20:44:51
end
