************************************************************
  HL Scan of (1) Internal mercury lamp
************************************************************
Integration time is 0.2294 seconds per sample
dh220619El Arenosillo 37.1 6.73 3.072425pr1000
************************************************************
Dead Time -------------------------  3E-08 
Number of Cycles Used -------------  4 
Starting Wavelength (Angstroms) ---  3331 
Final Wavelength (Angstoms) -------  3351 
Wavelength Increment (Angstroms) --  .25 
Filter Wheel #1 Position ---------- (1) Ground quartz diffuser (ND=2.32)
Filter Wheel #2 Position ---------- 



************************************************************
HL scan start time = 01:14:02
Dark Count =  6 


Time (GMT)  Wavelength (Ang)  Step Number  Raw Counts  Counts/Second

   74.57        3331.00           6610          45.00       170.01
   74.79        3331.25           6614          47.00       178.73
   74.82        3331.50           6618          45.00       170.01
   74.85        3331.75           6622          48.00       183.09
   74.88        3332.00           6626          52.00       200.52
   74.91        3332.25           6629          47.00       178.73
   74.94        3332.50           6633          47.00       178.73
   74.97        3332.75           6637          42.00       156.93
   75.00        3333.00           6641          45.00       170.01
   75.04        3333.25           6644          50.00       191.81
   75.07        3333.50           6648          53.00       204.88
   75.10        3333.75           6652          42.00       156.93
   75.13        3334.00           6656          47.00       178.73
   75.16        3334.25           6659          56.00       217.96
   75.19        3334.50           6663          79.00       318.22
   75.22        3334.75           6667          99.00       405.41
   75.25        3335.00           6671         116.00       479.52
   75.28        3335.25           6674         137.00       571.06
   75.31        3335.50           6678         167.00       701.85
   75.34        3335.75           6682         172.00       723.64
   75.37        3336.00           6686         217.00       919.82
   75.41        3336.25           6689         271.00      1155.23
   75.44        3336.50           6693         472.00      2031.51
   75.47        3336.75           6697        1411.00      6125.80
   75.50        3337.00           6701        2774.00     12070.63
   75.53        3337.25           6704        3869.00     16848.10
   75.56        3337.50           6708        5260.00     22918.98
   75.59        3337.75           6712        6641.00     28948.41
   75.62        3338.00           6716        8010.00     34927.60
   75.65        3338.25           6719        9071.00     39563.06
   75.69        3338.50           6723       10436.00     45528.58
   75.72        3338.75           6727       11714.00     51115.82
   75.75        3339.00           6731       13017.00     56814.28
   75.78        3339.25           6734       14115.00     61617.73
   75.81        3339.50           6738       15441.00     67420.45
   75.84        3339.75           6742       16924.00     73912.63
   75.87        3340.00           6746       18188.00     79448.08
   75.90        3340.25           6750       19609.00     85673.28
   75.93        3340.50           6753       20659.00     90274.68
   75.96        3340.75           6757       22108.00     96626.69
   76.00        3341.00           6761       23366.00    102143.40
   76.03        3341.25           6765       24429.00    106806.40
   76.06        3341.50           6768       24769.00    108298.10
   76.09        3341.75           6772       24624.00    107661.90
   76.12        3342.00           6776       24533.00    107262.70
   76.15        3342.25           6780       23580.00    103082.00
   76.18        3342.50           6783       22717.00     99297.10
   76.21        3342.75           6787       21488.00     93908.48
   76.24        3343.00           6791       19957.00     87198.18
   76.27        3343.25           6795       18574.00     81138.85
   76.30        3343.50           6798       17487.00     76377.95
   76.34        3343.75           6802       16168.00     70602.75
   76.37        3344.00           6806       14738.00     64343.79
   76.40        3344.25           6810       13437.00     58651.50
   76.43        3344.50           6814       11981.00     52283.34
   76.46        3344.75           6817       10979.00     47902.28
   76.49        3345.00           6821        9464.00     41280.38
   76.52        3345.25           6825        8054.00     35119.81
   76.55        3345.50           6829        6790.00     29599.07
   76.58        3345.75           6832        5789.00     25228.33
   76.62        3346.00           6836        4331.00     18864.21
   76.65        3346.25           6840        2794.00     12157.88
   76.68        3346.50           6844        1458.00      6330.76
   76.71        3346.75           6847         600.00      2589.56
   76.74        3347.00           6851         222.00       941.61
   76.77        3347.25           6855         131.00       544.91
   76.81        3347.50           6859         104.00       427.21
   76.85        3347.75           6863          77.00       309.51
   76.88        3348.00           6866          73.00       292.07
   76.91        3348.25           6870          45.00       170.01
   76.94        3348.50           6874          48.00       183.09
   76.97        3348.75           6878          44.00       165.65
   77.00        3349.00           6881          47.00       178.73
   77.03        3349.25           6885          43.00       161.29
   77.06        3349.50           6889          46.00       174.37
   77.10        3349.75           6893          51.00       196.17
   77.13        3350.00           6896          50.00       191.81
   77.16        3350.25           6900          47.00       178.73
   77.19        3350.50           6904          47.00       178.73
   77.22        3350.75           6908          44.00       165.65
   77.25        3351.00           6912          47.00       178.73
HL scan finished at 01:17:55
end
