************************************************************
  HL Scan of (1) Internal mercury lamp
************************************************************
Integration time is 0.2294 seconds per sample
dh210619El Arenosillo 37.1 6.73 2.911481pr1000
************************************************************
Dead Time -------------------------  3E-08 
Number of Cycles Used -------------  4 
Starting Wavelength (Angstroms) ---  3331 
Final Wavelength (Angstoms) -------  3351 
Wavelength Increment (Angstroms) --  .25 
Filter Wheel #1 Position ---------- (1) Ground quartz diffuser (ND=2.32)
Filter Wheel #2 Position ---------- 



************************************************************
HL scan start time = 02:59:03
Dark Count =  5.6 


Time (GMT)  Wavelength (Ang)  Step Number  Raw Counts  Counts/Second

  179.58        3331.00           6610          39.00       145.60
  179.80        3331.25           6614          43.00       163.03
  179.83        3331.50           6618          40.00       149.96
  179.86        3331.75           6622          40.00       149.96
  179.89        3332.00           6626          43.00       163.03
  179.93        3332.25           6629          43.00       163.03
  179.96        3332.50           6633          40.00       149.96
  179.99        3332.75           6637          46.00       176.11
  180.02        3333.00           6641          40.00       149.96
  180.05        3333.25           6644          45.00       171.75
  180.08        3333.50           6648          45.00       171.75
  180.11        3333.75           6652          49.00       189.19
  180.14        3334.00           6656          42.00       158.68
  180.17        3334.25           6659          45.00       171.75
  180.20        3334.50           6663          68.00       272.02
  180.23        3334.75           6667          72.00       289.45
  180.27        3335.00           6671          94.00       385.36
  180.30        3335.25           6674         101.00       415.87
  180.33        3335.50           6678         130.00       542.29
  180.36        3335.75           6682         146.00       612.04
  180.39        3336.00           6686         158.00       664.36
  180.42        3336.25           6689         204.00       864.89
  180.45        3336.50           6693         445.00      1915.54
  180.48        3336.75           6697        1224.00      5312.09
  180.51        3337.00           6701        2188.00      9516.23
  180.54        3337.25           6704        2996.00     13040.85
  180.58        3337.50           6708        4078.00     17761.86
  180.61        3337.75           6712        5129.00     22348.89
  180.64        3338.00           6716        6006.00     26177.48
  180.67        3338.25           6719        6638.00     28937.05
  180.70        3338.50           6723        7777.00     33911.55
  180.73        3338.75           6727        8733.00     38087.96
  180.76        3339.00           6731        9826.00     42864.16
  180.79        3339.25           6734       10522.00     45906.25
  180.82        3339.50           6738       11587.00     50562.26
  180.85        3339.75           6742       12608.00     55027.12
  180.89        3340.00           6746       13638.00     59532.56
  180.92        3340.25           6750       14519.00     63387.21
  180.95        3340.50           6753       15284.00     66735.04
  180.98        3340.75           6757       16274.00     71068.54
  181.01        3341.00           6761       17069.00     74549.28
  181.04        3341.25           6765       17913.00     78245.36
  181.07        3341.50           6768       17888.00     78135.87
  181.10        3341.75           6772       17826.00     77864.33
  181.13        3342.00           6776       17754.00     77549.00
  181.17        3342.25           6780       16872.00     73686.69
  181.20        3342.50           6783       16195.00     70722.70
  181.23        3342.75           6787       15136.00     66087.31
  181.26        3343.00           6791       14214.00     62052.64
  181.29        3343.25           6795       13141.00     57358.43
  181.32        3343.50           6798       12431.00     54253.01
  181.35        3343.75           6802       11453.00     49976.36
  181.38        3344.00           6806       10456.00     45617.75
  181.41        3344.25           6810        9448.00     41212.22
  181.44        3344.50           6814        8378.00     36536.98
  181.48        3344.75           6817        7677.00     33474.75
  181.51        3345.00           6821        6738.00     29373.74
  181.54        3345.25           6825        5750.00     25059.81
  181.57        3345.50           6829        4708.00     20511.31
  181.60        3345.75           6832        3878.00     16889.11
  181.63        3346.00           6836        2875.00     12512.98
  181.66        3346.25           6840        1970.00      8565.41
  181.69        3346.50           6844        1036.00      4492.32
  181.72        3346.75           6847         494.00      2129.17
  181.75        3347.00           6851         187.00       790.78
  181.79        3347.25           6855         109.00       450.75
  181.82        3347.50           6859          87.00       354.84
  181.85        3347.75           6863          68.00       272.02
  181.88        3348.00           6866          51.00       197.91
  181.91        3348.25           6870          48.00       184.83
  181.94        3348.50           6874          39.00       145.60
  181.97        3348.75           6878          40.00       149.96
  182.00        3349.00           6881          41.00       154.32
  182.03        3349.25           6885          44.00       167.39
  182.06        3349.50           6889          50.00       193.55
  182.09        3349.75           6893          42.00       158.68
  182.13        3350.00           6896          43.00       163.03
  182.16        3350.25           6900          45.00       171.75
  182.19        3350.50           6904          44.00       167.39
  182.22        3350.75           6908          40.00       149.96
  182.25        3351.00           6912          48.00       184.83
HL scan finished at 03:02:55
end
************************************************************
  HL Scan of (1) Internal mercury lamp
************************************************************
Integration time is 0.2294 seconds per sample
dh210619El Arenosillo 37.1 6.73 3.126073pr1000
************************************************************
Dead Time -------------------------  3E-08 
Number of Cycles Used -------------  4 
Starting Wavelength (Angstroms) ---  3331 
Final Wavelength (Angstoms) -------  3351 
Wavelength Increment (Angstroms) --  .25 
Filter Wheel #1 Position ---------- (1) Ground quartz diffuser (ND=2.32)
Filter Wheel #2 Position ---------- 



************************************************************
HL scan start time = 22:04:31
Dark Count =  6.6 


Time (GMT)  Wavelength (Ang)  Step Number  Raw Counts  Counts/Second

 1325.05        3331.00           6610          48.00       180.47
 1325.27        3331.25           6614          45.00       167.39
 1325.30        3331.50           6618          43.00       158.68
 1325.33        3331.75           6622          37.00       132.52
 1325.36        3332.00           6626          47.00       176.11
 1325.39        3332.25           6629          41.00       149.96
 1325.42        3332.50           6633          47.00       176.11
 1325.46        3332.75           6637          46.00       171.75
 1325.49        3333.00           6641          43.00       158.68
 1325.52        3333.25           6644          46.00       171.75
 1325.55        3333.50           6648          44.00       163.03
 1325.58        3333.75           6652          44.00       163.03
 1325.61        3334.00           6656          48.00       180.47
 1325.64        3334.25           6659          63.00       245.86
 1325.67        3334.50           6663          73.00       289.45
 1325.70        3334.75           6667          98.00       398.44
 1325.74        3335.00           6671         118.00       485.62
 1325.77        3335.25           6674         134.00       555.37
 1325.80        3335.50           6678         154.00       642.56
 1325.83        3335.75           6682         177.00       742.82
 1325.86        3336.00           6686         205.00       864.89
 1325.89        3336.25           6689         254.00      1078.50
 1325.92        3336.50           6693         592.00      2552.07
 1325.95        3336.75           6697        1630.00      7078.22
 1325.98        3337.00           6701        2782.00     12102.91
 1326.01        3337.25           6704        3830.00     16675.30
 1326.04        3337.50           6708        5087.00     22161.20
 1326.08        3337.75           6712        6422.00     27989.49
 1326.11        3338.00           6716        7847.00     34212.95
 1326.14        3338.25           6719        8761.00     38205.93
 1326.17        3338.50           6723        9986.00     43559.07
 1326.20        3338.75           6727       11346.00     49504.16
 1326.23        3339.00           6731       12621.00     55079.61
 1326.26        3339.25           6734       13728.00     59921.92
 1326.29        3339.50           6738       14913.00     65107.00
 1326.32        3339.75           6742       16414.00     71677.08
 1326.35        3340.00           6746       17540.00     76607.43
 1326.38        3340.25           6750       18712.00     81740.75
 1326.41        3340.50           6753       19802.00     86516.34
 1326.45        3340.75           6757       21104.00     92222.54
 1326.48        3341.00           6761       22115.00     96654.75
 1326.51        3341.25           6765       22859.00     99917.19
 1326.54        3341.50           6768       23038.00    100702.20
 1326.57        3341.75           6772       23183.00    101338.10
 1326.60        3342.00           6776       22752.00     99447.96
 1326.63        3342.25           6780       21785.00     95207.91
 1326.66        3342.50           6783       20992.00     91731.61
 1326.69        3342.75           6787       19551.00     85416.51
 1326.73        3343.00           6791       18312.00     79988.58
 1326.76        3343.25           6795       17059.00     74501.12
 1326.79        3343.50           6798       16053.00     70096.69
 1326.82        3343.75           6802       14699.00     64170.50
 1326.85        3344.00           6806       13389.00     58438.90
 1326.88        3344.25           6810       12184.00     53168.44
 1326.91        3344.50           6814       10872.00     47431.88
 1326.94        3344.75           6817        9837.00     42907.86
 1326.97        3345.00           6821        8542.00     37249.10
 1327.01        3345.25           6825        7265.00     31670.88
 1327.04        3345.50           6829        5955.00     25950.45
 1327.07        3345.75           6832        5011.00     21829.46
 1327.10        3346.00           6836        3780.00     16457.12
 1327.13        3346.25           6840        2532.00     11012.36
 1327.16        3346.50           6844        1233.00      5346.98
 1327.19        3346.75           6847         550.00      2368.96
 1327.22        3347.00           6851         207.00       873.61
 1327.25        3347.25           6855         136.00       564.09
 1327.28        3347.50           6859          91.00       367.92
 1327.32        3347.75           6863          76.00       302.53
 1327.35        3348.00           6866          53.00       202.27
 1327.38        3348.25           6870          50.00       189.19
 1327.41        3348.50           6874          49.00       184.83
 1327.44        3348.75           6878          44.00       163.03
 1327.47        3349.00           6881          52.00       197.91
 1327.50        3349.25           6885          44.00       163.03
 1327.53        3349.50           6889          49.00       184.83
 1327.56        3349.75           6893          43.00       158.68
 1327.59        3350.00           6896          48.00       180.47
 1327.62        3350.25           6900          53.00       202.27
 1327.65        3350.50           6904          52.00       197.91
 1327.69        3350.75           6908          43.00       158.68
 1327.72        3351.00           6912          50.00       189.19
HL scan finished at 22:08:23
end
