************************************************************
  HL Scan of (1) Internal mercury lamp
************************************************************
Integration time is 0.2294 seconds per sample
dh200619El Arenosillo 37.1 6.73 2.911481pr1000
************************************************************
Dead Time -------------------------  3E-08 
Number of Cycles Used -------------  4 
Starting Wavelength (Angstroms) ---  3331 
Final Wavelength (Angstoms) -------  3351 
Wavelength Increment (Angstroms) --  .25 
Filter Wheel #1 Position ---------- (1) Ground quartz diffuser (ND=2.32)
Filter Wheel #2 Position ---------- 



************************************************************
HL scan start time = 02:18:06
Dark Count =  5.4 


Time (GMT)  Wavelength (Ang)  Step Number  Raw Counts  Counts/Second

  138.63        3331.00           6610          46.00       176.98
  138.85        3331.25           6614          48.00       185.70
  138.88        3331.50           6618          39.00       146.47
  138.91        3331.75           6622          41.00       155.19
  138.94        3332.00           6626          45.00       172.63
  138.97        3332.25           6629          42.00       159.55
  139.00        3332.50           6633          47.00       181.34
  139.03        3332.75           6637          44.00       168.27
  139.06        3333.00           6641          41.00       155.19
  139.09        3333.25           6644          45.00       172.63
  139.12        3333.50           6648          47.00       181.34
  139.16        3333.75           6652          43.00       163.91
  139.19        3334.00           6656          46.00       176.98
  139.22        3334.25           6659          54.00       211.86
  139.25        3334.50           6663          70.00       281.61
  139.28        3334.75           6667          92.00       377.51
  139.31        3335.00           6671          89.00       364.43
  139.34        3335.25           6674         115.00       477.77
  139.37        3335.50           6678         141.00       591.12
  139.40        3335.75           6682         140.00       586.76
  139.43        3336.00           6686         173.00       730.62
  139.46        3336.25           6689         217.00       922.43
  139.50        3336.50           6693         484.00      2086.44
  139.53        3336.75           6697        1335.00      5797.00
  139.56        3337.00           6701        2400.00     10441.81
  139.59        3337.25           6704        3233.00     14075.69
  139.62        3337.50           6708        4448.00     19377.44
  139.65        3337.75           6712        5468.00     23829.59
  139.68        3338.00           6716        6557.00     28584.23
  139.71        3338.25           6719        7443.00     32453.55
  139.74        3338.50           6723        8386.00     36572.80
  139.77        3338.75           6727        9614.00     41938.52
  139.80        3339.00           6731       10667.00     46540.96
  139.84        3339.25           6734       11547.00     50388.23
  139.87        3339.50           6738       12662.00     55264.17
  139.90        3339.75           6742       13696.00     59787.17
  139.93        3340.00           6746       14968.00     65352.94
  139.96        3340.25           6750       16036.00     70027.52
  139.99        3340.50           6753       16865.00     73656.91
  140.02        3340.75           6757       17912.00     78241.85
  140.05        3341.00           6761       18795.00     82109.60
  140.08        3341.25           6765       19531.00     85334.13
  140.12        3341.50           6768       19698.00     86065.87
  140.15        3341.75           6772       19786.00     86451.47
  140.18        3342.00           6776       19502.00     85207.06
  140.21        3342.25           6780       18752.00     81921.24
  140.24        3342.50           6783       17962.00     78460.85
  140.27        3342.75           6787       16977.00     74147.32
  140.30        3343.00           6791       15945.00     69629.16
  140.33        3343.25           6795       14835.00     64770.90
  140.36        3343.50           6798       13924.00     60784.68
  140.39        3343.75           6802       12750.00     55649.06
  140.43        3344.00           6806       11723.00     51157.79
  140.46        3344.25           6810       10642.00     46431.68
  140.49        3344.50           6814        9504.00     41457.81
  140.52        3344.75           6817        8740.00     38119.42
  140.55        3345.00           6821        7580.00     33051.94
  140.58        3345.25           6825        6463.00     28173.76
  140.61        3345.50           6829        5256.00     22904.14
  140.64        3345.75           6832        4367.00     19023.93
  140.67        3346.00           6836        3328.00     14490.17
  140.70        3346.25           6840        2239.00      9739.55
  140.73        3346.50           6844        1203.00      5221.39
  140.77        3346.75           6847         587.00      2535.50
  140.80        3347.00           6851         187.00       791.65
  140.83        3347.25           6855         128.00       534.45
  140.86        3347.50           6859          81.00       329.56
  140.89        3347.75           6863          75.00       303.40
  140.92        3348.00           6866          54.00       211.86
  140.95        3348.25           6870          48.00       185.70
  140.98        3348.50           6874          52.00       203.14
  141.01        3348.75           6878          40.00       150.83
  141.04        3349.00           6881          45.00       172.63
  141.08        3349.25           6885          48.00       185.70
  141.11        3349.50           6889          48.00       185.70
  141.14        3349.75           6893          48.00       185.70
  141.17        3350.00           6896          44.00       168.27
  141.20        3350.25           6900          48.00       185.70
  141.23        3350.50           6904          46.00       176.98
  141.26        3350.75           6908          50.00       194.42
  141.29        3351.00           6912          49.00       190.06
HL scan finished at 02:21:57
end
