************************************************************
  HL Scan of (1) Internal mercury lamp
************************************************************
Integration time is 0.2294 seconds per sample
dh240619El Arenosillo 37.1 6.73 2.965129pr1000
************************************************************
Dead Time -------------------------  3E-08 
Number of Cycles Used -------------  4 
Starting Wavelength (Angstroms) ---  3331 
Final Wavelength (Angstoms) -------  3351 
Wavelength Increment (Angstroms) --  .25 
Filter Wheel #1 Position ---------- (1) Ground quartz diffuser (ND=2.32)
Filter Wheel #2 Position ---------- 



************************************************************
HL scan start time = 02:10:36
Dark Count =  7.2 


Time (GMT)  Wavelength (Ang)  Step Number  Raw Counts  Counts/Second

  131.12        3331.00           6610          49.00       182.22
  131.35        3331.25           6614          44.00       160.42
  131.38        3331.50           6618          55.00       208.37
  131.41        3331.75           6622          47.00       173.50
  131.44        3332.00           6626          45.00       164.78
  131.47        3332.25           6629          43.00       156.06
  131.50        3332.50           6633          44.00       160.42
  131.53        3332.75           6637          44.00       160.42
  131.56        3333.00           6641          42.00       151.70
  131.59        3333.25           6644          38.00       134.26
  131.62        3333.50           6648          44.00       160.42
  131.65        3333.75           6652          48.00       177.86
  131.69        3334.00           6656          50.00       186.57
  131.72        3334.25           6659          58.00       221.45
  131.75        3334.50           6663          79.00       312.99
  131.78        3334.75           6667          81.00       321.71
  131.81        3335.00           6671         106.00       430.69
  131.84        3335.25           6674         124.00       509.16
  131.87        3335.50           6678         147.00       609.43
  131.90        3335.75           6682         152.00       631.22
  131.93        3336.00           6686         185.00       775.08
  131.96        3336.25           6689         228.00       962.54
  131.99        3336.50           6693         490.00      2104.75
  132.02        3336.75           6697        1376.00      5967.94
  132.05        3337.00           6701        2583.00     11232.21
  132.09        3337.25           6704        3422.00     14892.44
  132.12        3337.50           6708        4607.00     20063.51
  132.15        3337.75           6712        5709.00     24873.83
  132.18        3338.00           6716        6905.00     30096.04
  132.21        3338.25           6719        7819.00     34088.03
  132.24        3338.50           6723        9035.00     39400.51
  132.27        3338.75           6727       10099.00     44050.33
  132.30        3339.00           6731       11403.00     49750.75
  132.33        3339.25           6734       12389.00     54062.33
  132.36        3339.50           6738       13521.00     59013.71
  132.40        3339.75           6742       14639.00     63905.32
  132.43        3340.00           6746       15808.00     69021.59
  132.46        3340.25           6750       16962.00     74073.76
  132.49        3340.50           6753       17784.00     77673.38
  132.52        3340.75           6757       19107.00     83468.56
  132.55        3341.00           6761       20062.00     87653.05
  132.58        3341.25           6765       21007.00     91794.74
  132.61        3341.50           6768       21135.00     92355.80
  132.64        3341.75           6772       21197.00     92627.58
  132.67        3342.00           6776       20981.00     91680.77
  132.70        3342.25           6780       20168.00     88117.56
  132.74        3342.50           6783       19391.00     84712.84
  132.77        3342.75           6787       18216.00     79565.46
  132.80        3343.00           6791       16897.00     73789.15
  132.83        3343.25           6795       15816.00     69056.61
  132.86        3343.50           6798       14787.00     64552.97
  132.89        3343.75           6802       13774.00     60120.54
  132.92        3344.00           6806       12597.00     54972.02
  132.95        3344.25           6810       11246.00     49064.32
  132.98        3344.50           6814       10065.00     43901.73
  133.01        3344.75           6817        9222.00     40217.63
  133.05        3345.00           6821        8097.00     35302.41
  133.08        3345.25           6825        6863.00     29912.62
  133.11        3345.50           6829        5820.00     25358.43
  133.14        3345.75           6832        4725.00     20578.52
  133.17        3346.00           6836        3525.00     15341.85
  133.20        3346.25           6840        2313.00     10054.47
  133.23        3346.50           6844        1204.00      5217.91
  133.26        3346.75           6847         482.00      2069.88
  133.29        3347.00           6851         177.00       740.21
  133.33        3347.25           6855         112.00       456.85
  133.36        3347.50           6859          90.00       360.95
  133.39        3347.75           6863          79.00       312.99
  133.42        3348.00           6866          52.00       195.29
  133.45        3348.25           6870          48.00       177.86
  133.48        3348.50           6874          47.00       173.50
  133.51        3348.75           6878          48.00       177.86
  133.54        3349.00           6881          50.00       186.57
  133.57        3349.25           6885          43.00       156.06
  133.60        3349.50           6889          49.00       182.22
  133.63        3349.75           6893          51.00       190.93
  133.66        3350.00           6896          41.00       147.34
  133.69        3350.25           6900          46.00       169.14
  133.72        3350.50           6904          46.00       169.14
  133.75        3350.75           6908          45.00       164.78
  133.78        3351.00           6912          50.00       186.57
HL scan finished at 02:14:27
end
************************************************************
  HL Scan of (1) Internal mercury lamp
************************************************************
Integration time is 0.2294 seconds per sample
dh240619El Arenosillo 37.1 6.73 3.072425pr1000
************************************************************
Dead Time -------------------------  3E-08 
Number of Cycles Used -------------  4 
Starting Wavelength (Angstroms) ---  3331 
Final Wavelength (Angstoms) -------  3351 
Wavelength Increment (Angstroms) --  .25 
Filter Wheel #1 Position ---------- (1) Ground quartz diffuser (ND=2.32)
Filter Wheel #2 Position ---------- 



************************************************************
HL scan start time = 21:49:59
Dark Count =  6.2 


Time (GMT)  Wavelength (Ang)  Step Number  Raw Counts  Counts/Second

 1310.50        3331.00           6610          43.00       160.42
 1310.72        3331.25           6614          42.00       156.06
 1310.75        3331.50           6618          44.00       164.78
 1310.79        3331.75           6622          39.00       142.98
 1310.82        3332.00           6626          36.00       129.90
 1310.85        3332.25           6629          42.00       156.06
 1310.88        3332.50           6633          39.00       142.98
 1310.91        3332.75           6637          42.00       156.06
 1310.94        3333.00           6641          44.00       164.78
 1310.97        3333.25           6644          43.00       160.42
 1311.00        3333.50           6648          44.00       164.78
 1311.03        3333.75           6652          44.00       164.78
 1311.06        3334.00           6656          50.00       190.93
 1311.09        3334.25           6659          57.00       221.45
 1311.13        3334.50           6663          84.00       339.15
 1311.16        3334.75           6667          80.00       321.71
 1311.19        3335.00           6671         107.00       439.41
 1311.22        3335.25           6674         121.00       500.44
 1311.25        3335.50           6678         147.00       613.79
 1311.28        3335.75           6682         164.00       687.90
 1311.31        3336.00           6686         171.00       718.41
 1311.34        3336.25           6689         239.00      1014.85
 1311.37        3336.50           6693         412.00      1769.06
 1311.40        3336.75           6697        1237.00      5366.17
 1311.44        3337.00           6701        2554.00     11110.07
 1311.47        3337.25           6704        3509.00     15276.40
 1311.50        3337.50           6708        4718.00     20552.34
 1311.53        3337.75           6712        5910.00     25755.73
 1311.56        3338.00           6716        7125.00     31061.19
 1311.59        3338.25           6719        8127.00     35437.83
 1311.62        3338.50           6723        9466.00     41288.25
 1311.65        3338.75           6727       10801.00     47123.24
 1311.68        3339.00           6731       11949.00     52142.53
 1311.71        3339.25           6734       12894.00     56275.40
 1311.74        3339.50           6738       14250.00     62207.53
 1311.78        3339.75           6742       15575.00     68006.09
 1311.81        3340.00           6746       16719.00     73014.16
 1311.84        3340.25           6750       18093.00     79031.10
 1311.87        3340.50           6753       18909.00     82605.51
 1311.90        3340.75           6757       20081.00     87740.68
 1311.93        3341.00           6761       21287.00     93026.49
 1311.96        3341.25           6765       22329.00     97594.84
 1311.99        3341.50           6768       22349.00     97682.54
 1312.02        3341.75           6772       22315.00     97533.44
 1312.06        3342.00           6776       22441.00     98085.94
 1312.09        3342.25           6780       21555.00     94201.33
 1312.12        3342.50           6783       20891.00     91290.66
 1312.15        3342.75           6787       19516.00     85264.91
 1312.18        3343.00           6791       18367.00     80231.25
 1312.21        3343.25           6795       17077.00     74581.69
 1312.24        3343.50           6798       16120.00     70391.74
 1312.27        3343.75           6802       14893.00     65021.22
 1312.30        3344.00           6806       13550.00     59144.96
 1312.34        3344.25           6810       12405.00     54136.68
 1312.37        3344.50           6814       11138.00     48596.52
 1312.40        3344.75           6817       10169.00     44360.65
 1312.43        3345.00           6821        9032.00     39391.77
 1312.46        3345.25           6825        7679.00     33480.87
 1312.49        3345.50           6829        6409.00     27934.47
 1312.52        3345.75           6832        5386.00     23468.13
 1312.55        3346.00           6836        4147.00     18060.35
 1312.58        3346.25           6840        2852.00     12410.03
 1312.62        3346.50           6844        1668.00      7245.69
 1312.65        3346.75           6847         877.00      3796.42
 1312.68        3347.00           6851         290.00      1237.19
 1312.71        3347.25           6855         151.00       631.22
 1312.74        3347.50           6859         106.00       435.05
 1312.77        3347.75           6863          92.00       374.02
 1312.80        3348.00           6866          76.00       304.27
 1312.83        3348.25           6870          49.00       186.57
 1312.86        3348.50           6874          47.00       177.86
 1312.90        3348.75           6878          45.00       169.14
 1312.93        3349.00           6881          50.00       190.93
 1312.96        3349.25           6885          45.00       169.14
 1312.99        3349.50           6889          51.00       195.29
 1313.02        3349.75           6893          43.00       160.42
 1313.05        3350.00           6896          45.00       169.14
 1313.08        3350.25           6900          46.00       173.50
 1313.11        3350.50           6904          42.00       156.06
 1313.14        3350.75           6908          45.00       169.14
 1313.17        3351.00           6912          46.00       173.50
HL scan finished at 21:53:50
end
