************************************************************
  HL Scan of (1) Internal mercury lamp
************************************************************
Integration time is 0.2294 seconds per sample
dh230619El Arenosillo 37.1 6.73 2.965129pr1000
************************************************************
Dead Time -------------------------  3E-08 
Number of Cycles Used -------------  4 
Starting Wavelength (Angstroms) ---  3331 
Final Wavelength (Angstoms) -------  3351 
Wavelength Increment (Angstroms) --  .25 
Filter Wheel #1 Position ---------- (1) Ground quartz diffuser (ND=2.32)
Filter Wheel #2 Position ---------- 



************************************************************
HL scan start time = 02:09:17
Dark Count =  7.5 


Time (GMT)  Wavelength (Ang)  Step Number  Raw Counts  Counts/Second

  129.81        3331.00           6610          43.00       154.75
  130.03        3331.25           6614          59.00       224.50
  130.07        3331.50           6618          42.00       150.39
  130.10        3331.75           6622          48.00       176.55
  130.13        3332.00           6626          45.00       163.47
  130.16        3332.25           6629          43.00       154.75
  130.19        3332.50           6633          42.00       150.39
  130.22        3332.75           6637          41.00       146.03
  130.25        3333.00           6641          42.00       150.39
  130.28        3333.25           6644          47.00       172.19
  130.31        3333.50           6648          45.00       163.47
  130.34        3333.75           6652          49.00       180.91
  130.37        3334.00           6656          51.00       189.63
  130.41        3334.25           6659          58.00       220.14
  130.44        3334.50           6663          76.00       298.61
  130.47        3334.75           6667          85.00       337.84
  130.50        3335.00           6671         109.00       442.46
  130.53        3335.25           6674         112.00       455.54
  130.56        3335.50           6678         134.00       551.45
  130.59        3335.75           6682         153.00       634.28
  130.62        3336.00           6686         191.00       799.93
  130.65        3336.25           6689         225.00       948.15
  130.68        3336.50           6693         497.00      2133.96
  130.71        3336.75           6697        1379.00      5979.71
  130.75        3337.00           6701        2484.00     10799.05
  130.78        3337.25           6704        3421.00     14886.77
  130.81        3337.50           6708        4586.00     19970.55
  130.84        3337.75           6712        5737.00     24994.76
  130.87        3338.00           6716        6871.00     29946.25
  130.90        3338.25           6719        7709.00     33606.23
  130.93        3338.50           6723        8645.00     37695.18
  130.96        3338.75           6727        9881.00     43096.23
  130.99        3339.00           6731       11144.00     48617.07
  131.02        3339.25           6734       11863.00     51760.79
  131.06        3339.50           6738       13207.00     57638.82
  131.09        3339.75           6742       14184.00     61913.06
  131.12        3340.00           6746       15418.00     67313.22
  131.15        3340.25           6750       16475.00     71940.19
  131.18        3340.50           6753       17268.00     75412.36
  131.21        3340.75           6757       18312.00     79984.63
  131.24        3341.00           6761       19309.00     84352.25
  131.27        3341.25           6765       20169.00     88120.62
  131.30        3341.50           6768       20404.00     89150.49
  131.34        3341.75           6772       20343.00     88883.16
  131.37        3342.00           6776       20182.00     88177.59
  131.40        3342.25           6780       19456.00     84996.31
  131.43        3342.50           6783       18602.00     81254.94
  131.46        3342.75           6787       17570.00     76734.86
  131.49        3343.00           6791       16401.00     71616.22
  131.52        3343.25           6795       15255.00     66599.81
  131.55        3343.50           6798       14416.00     62928.19
  131.58        3343.75           6802       13202.00     57616.94
  131.61        3344.00           6806       12009.00     52399.22
  131.65        3344.25           6810       10876.00     47445.43
  131.68        3344.50           6814        9768.00     42602.37
  131.71        3344.75           6817        8878.00     38713.20
  131.74        3345.00           6821        7810.00     34047.40
  131.77        3345.25           6825        6665.00     29046.66
  131.80        3345.50           6829        5585.00     24331.18
  131.83        3345.75           6832        4728.00     20590.31
  131.86        3346.00           6836        3596.00     15650.33
  131.89        3346.25           6840        2411.00     10480.63
  131.93        3346.50           6844        1250.00      5417.18
  131.96        3346.75           6847         580.00      2495.83
  131.99        3347.00           6851         216.00       908.92
  132.02        3347.25           6855         111.00       451.18
  132.05        3347.50           6859          85.00       337.84
  132.08        3347.75           6863          77.00       302.97
  132.11        3348.00           6866          56.00       211.42
  132.14        3348.25           6870          51.00       189.63
  132.17        3348.50           6874          56.00       211.42
  132.20        3348.75           6878          45.00       163.47
  132.23        3349.00           6881          45.00       163.47
  132.26        3349.25           6885          45.00       163.47
  132.30        3349.50           6889          44.00       159.11
  132.33        3349.75           6893          46.00       167.83
  132.36        3350.00           6896          47.00       172.19
  132.39        3350.25           6900          45.00       163.47
  132.42        3350.50           6904          49.00       180.91
  132.45        3350.75           6908          42.00       150.39
  132.48        3351.00           6912          50.00       185.27
HL scan finished at 02:13:09
end
************************************************************
  HL Scan of (1) Internal mercury lamp
************************************************************
Integration time is 0.2294 seconds per sample
dh230619El Arenosillo 37.1 6.73 3.018777pr1000
************************************************************
Dead Time -------------------------  3E-08 
Number of Cycles Used -------------  4 
Starting Wavelength (Angstroms) ---  3331 
Final Wavelength (Angstoms) -------  3351 
Wavelength Increment (Angstroms) --  .25 
Filter Wheel #1 Position ---------- (1) Ground quartz diffuser (ND=2.32)
Filter Wheel #2 Position ---------- 



************************************************************
HL scan start time = 21:48:46
Dark Count =  7.1 


Time (GMT)  Wavelength (Ang)  Step Number  Raw Counts  Counts/Second

 1309.30        3331.00           6610          52.00       195.73
 1309.52        3331.25           6614          43.00       156.50
 1309.55        3331.50           6618          48.00       178.29
 1309.58        3331.75           6622          48.00       178.29
 1309.61        3332.00           6626          44.00       160.86
 1309.64        3332.25           6629          42.00       152.14
 1309.67        3332.50           6633          38.00       134.70
 1309.71        3332.75           6637          48.00       178.29
 1309.74        3333.00           6641          40.00       143.42
 1309.77        3333.25           6644          45.00       165.21
 1309.80        3333.50           6648          42.00       152.14
 1309.83        3333.75           6652          42.00       152.14
 1309.86        3334.00           6656          51.00       191.37
 1309.89        3334.25           6659          71.00       278.56
 1309.92        3334.50           6663          80.00       317.79
 1309.95        3334.75           6667          90.00       361.38
 1309.98        3335.00           6671         110.00       448.57
 1310.01        3335.25           6674         127.00       522.68
 1310.04        3335.50           6678         155.00       644.74
 1310.08        3335.75           6682         179.00       749.36
 1310.11        3336.00           6686         199.00       836.55
 1310.14        3336.25           6689         241.00      1019.65
 1310.17        3336.50           6693         503.00      2161.87
 1310.20        3336.75           6697        1383.00      5998.90
 1310.23        3337.00           6701        2649.00     11520.55
 1310.26        3337.25           6704        3567.00     15525.54
 1310.29        3337.50           6708        4751.00     20692.44
 1310.32        3337.75           6712        5996.00     26127.27
 1310.35        3338.00           6716        7214.00     31445.96
 1310.38        3338.25           6719        8157.00     35564.95
 1310.42        3338.50           6723        9334.00     40707.49
 1310.45        3338.75           6727       10634.00     46389.28
 1310.48        3339.00           6731       11817.00     51561.39
 1310.51        3339.25           6734       12759.00     55680.99
 1310.54        3339.50           6738       13885.00     60606.61
 1310.57        3339.75           6742       15158.00     66177.03
 1310.60        3340.00           6746       16372.00     71491.01
 1310.63        3340.25           6750       17597.00     76854.85
 1310.66        3340.50           6753       18519.00     80893.11
 1310.70        3340.75           6757       19808.00     86540.44
 1310.73        3341.00           6761       20746.00     90651.18
 1310.76        3341.25           6765       21589.00     94346.44
 1310.79        3341.50           6768       21823.00     95372.32
 1310.82        3341.75           6772       21748.00     95043.51
 1310.85        3342.00           6776       21523.00     94057.10
 1310.88        3342.25           6780       20438.00     89301.27
 1310.91        3342.50           6783       19775.00     86395.83
 1310.94        3342.75           6787       18599.00     81243.56
 1310.98        3343.00           6791       17554.00     76666.55
 1311.01        3343.25           6795       16278.00     71079.49
 1311.04        3343.50           6798       15248.00     66570.93
 1311.07        3343.75           6802       13990.00     61066.00
 1311.10        3344.00           6806       12847.00     56065.89
 1311.13        3344.25           6810       11580.00     50525.10
 1311.16        3344.50           6814       10375.00     45257.14
 1311.19        3344.75           6817        9405.00     41017.75
 1311.22        3345.00           6821        8346.00     36390.63
 1311.25        3345.25           6825        7161.00     31214.48
 1311.29        3345.50           6829        5820.00     25358.87
 1311.32        3345.75           6832        4743.00     20657.52
 1311.35        3346.00           6836        3585.00     15604.08
 1311.38        3346.25           6840        2403.00     10447.48
 1311.41        3346.50           6844        1308.00      5671.85
 1311.44        3346.75           6847         602.00      2593.49
 1311.47        3347.00           6851         211.00       888.86
 1311.50        3347.25           6855         117.00       479.08
 1311.53        3347.50           6859          96.00       387.54
 1311.56        3347.75           6863          85.00       339.59
 1311.59        3348.00           6866          52.00       195.73
 1311.63        3348.25           6870          45.00       165.21
 1311.66        3348.50           6874          54.00       204.45
 1311.69        3348.75           6878          48.00       178.29
 1311.72        3349.00           6881          48.00       178.29
 1311.75        3349.25           6885          44.00       160.86
 1311.78        3349.50           6889          45.00       165.21
 1311.81        3349.75           6893          43.00       156.50
 1311.84        3350.00           6896          46.00       169.57
 1311.87        3350.25           6900          50.00       187.01
 1311.90        3350.50           6904          47.00       173.93
 1311.93        3350.75           6908          47.00       173.93
 1311.97        3351.00           6912          42.00       152.14
HL scan finished at 21:52:38
end
