************************************************************
  HL Scan of (1) Internal mercury lamp
************************************************************
Integration time is 0.2294 seconds per sample
dh270619El Arenosillo 37.1 6.73 3.072425pr1000
************************************************************
Dead Time -------------------------  3E-08 
Number of Cycles Used -------------  4 
Starting Wavelength (Angstroms) ---  3331 
Final Wavelength (Angstoms) -------  3351 
Wavelength Increment (Angstroms) --  .25 
Filter Wheel #1 Position ---------- (1) Ground quartz diffuser (ND=2.32)
Filter Wheel #2 Position ---------- 



************************************************************
HL scan start time = 02:10:14
Dark Count =  3.4 


Time (GMT)  Wavelength (Ang)  Step Number  Raw Counts  Counts/Second

  130.76        3331.00           6610          47.00       190.06
  130.98        3331.25           6614          48.00       194.42
  131.01        3331.50           6618          47.00       190.06
  131.04        3331.75           6622          48.00       194.42
  131.07        3332.00           6626          46.00       185.70
  131.10        3332.25           6629          46.00       185.70
  131.13        3332.50           6633          40.00       159.55
  131.16        3332.75           6637          46.00       185.70
  131.19        3333.00           6641          49.00       198.78
  131.23        3333.25           6644          44.00       176.98
  131.26        3333.50           6648          42.00       168.27
  131.29        3333.75           6652          45.00       181.34
  131.32        3334.00           6656          51.00       207.50
  131.35        3334.25           6659          62.00       255.45
  131.38        3334.50           6663          83.00       347.00
  131.41        3334.75           6667          92.00       386.23
  131.44        3335.00           6671         111.00       469.06
  131.47        3335.25           6674         144.00       612.91
  131.51        3335.50           6678         145.00       617.27
  131.54        3335.75           6682         173.00       739.34
  131.57        3336.00           6686         207.00       887.56
  131.60        3336.25           6689         254.00      1092.45
  131.63        3336.50           6693         564.00      2443.95
  131.66        3336.75           6697        1511.00      6573.22
  131.69        3337.00           6701        2671.00     11632.66
  131.72        3337.25           6704        3726.00     16235.46
  131.75        3337.50           6708        5049.00     22009.30
  131.78        3337.75           6712        6372.00     27785.14
  131.81        3338.00           6716        7666.00     33436.32
  131.84        3338.25           6719        8672.00     37831.05
  131.87        3338.50           6723        9947.00     43402.60
  131.90        3338.75           6727       11138.00     48608.76
  131.94        3339.00           6731       12483.00     54490.05
  131.97        3339.25           6734       13465.00     58785.36
  132.00        3339.50           6738       14774.00     64512.71
  132.03        3339.75           6742       15848.00     69213.31
  132.06        3340.00           6746       17112.00     74747.21
  132.09        3340.25           6750       18633.00     81408.70
  132.12        3340.50           6753       19483.00     85132.58
  132.15        3340.75           6757       20799.00     90899.68
  132.18        3341.00           6761       21817.00     95362.22
  132.21        3341.25           6765       22758.00     99488.30
  132.24        3341.50           6768       22934.00    100260.10
  132.28        3341.75           6772       22896.00    100093.50
  132.31        3342.00           6776       22597.00     98782.28
  132.34        3342.25           6780       21564.00     94253.06
  132.37        3342.50           6783       20815.00     90969.81
  132.40        3342.75           6787       19515.00     85272.80
  132.43        3343.00           6791       18271.00     79823.01
  132.46        3343.25           6795       17073.00     74576.43
  132.49        3343.50           6798       16062.00     70150.09
  132.52        3343.75           6802       14699.00     64184.50
  132.55        3344.00           6806       13429.00     58627.87
  132.59        3344.25           6810       12225.00     53361.73
  132.62        3344.50           6814       10858.00     47384.66
  132.65        3344.75           6817       10010.00     43677.95
  132.68        3345.00           6821        8725.00     38062.62
  132.71        3345.25           6825        7411.00     32322.52
  132.74        3345.50           6829        6082.00     26518.91
  132.77        3345.75           6832        5157.00     22480.72
  132.80        3346.00           6836        3900.00     16994.71
  132.83        3346.25           6840        2622.00     11418.91
  132.87        3346.50           6844        1389.00      6041.20
  132.90        3346.75           6847         629.00      2727.34
  132.93        3347.00           6851         216.00       926.79
  132.96        3347.25           6855         120.00       508.29
  132.99        3347.50           6859          94.00       394.95
  133.02        3347.75           6863          75.00       312.12
  133.05        3348.00           6866          53.00       216.22
  133.08        3348.25           6870          53.00       216.22
  133.11        3348.50           6874          46.00       185.70
  133.14        3348.75           6878          45.00       181.34
  133.17        3349.00           6881          46.00       185.70
  133.20        3349.25           6885          42.00       168.27
  133.23        3349.50           6889          51.00       207.50
  133.27        3349.75           6893          50.00       203.14
  133.30        3350.00           6896          46.00       185.70
  133.33        3350.25           6900          55.00       224.94
  133.36        3350.50           6904          43.00       172.63
  133.39        3350.75           6908          45.00       181.34
  133.42        3351.00           6912          50.00       203.14
HL scan finished at 02:14:05
end
