************************************************************
  HL Scan of (1) Internal mercury lamp
************************************************************
Integration time is 0.2294 seconds per sample
dh060717Manchester 53.47 2.23 2.911481pr1000
************************************************************
Dead Time -------------------------  3E-08 
Number of Cycles Used -------------  4 
Starting Wavelength (Angstroms) ---  3331 
Final Wavelength (Angstoms) -------  3351 
Wavelength Increment (Angstroms) --  .25 
Filter Wheel #1 Position ---------- (1) Ground quartz diffuser (ND=2.32)
Filter Wheel #2 Position ---------- 



************************************************************
HL scan start time = 01:00:07
Dark Count =  6.4 


Time (GMT)  Wavelength (Ang)  Step Number  Raw Counts  Counts/Second

   60.64        3331.00           6610          42.00       155.19
   60.86        3331.25           6614          59.00       229.30
   60.89        3331.50           6618          54.00       207.50
   60.92        3331.75           6622          56.00       216.22
   60.95        3332.00           6626          54.00       207.50
   60.98        3332.25           6629          64.00       251.09
   61.01        3332.50           6633          52.00       198.78
   61.05        3332.75           6637          51.00       194.42
   61.08        3333.00           6641          53.00       203.14
   61.11        3333.25           6644          48.00       181.34
   61.14        3333.50           6648          55.00       211.86
   61.17        3333.75           6652          47.00       176.98
   61.20        3334.00           6656          49.00       185.70
   61.23        3334.25           6659          70.00       277.25
   61.26        3334.50           6663          88.00       355.71
   61.29        3334.75           6667         123.00       508.29
   61.32        3335.00           6671         150.00       625.99
   61.35        3335.25           6674         156.00       652.15
   61.39        3335.50           6678         185.00       778.57
   61.42        3335.75           6682         217.00       918.07
   61.45        3336.00           6686         251.00      1066.29
   61.48        3336.25           6689         306.00      1306.07
   61.51        3336.50           6693         630.00      2718.62
   61.54        3336.75           6697        1741.00      7563.18
   61.57        3337.00           6701        3324.00     14468.36
   61.60        3337.25           6704        4531.00     19735.31
   61.63        3337.50           6708        6267.00     27313.57
   61.66        3337.75           6712        7929.00     34572.02
   61.69        3338.00           6716        9696.00     42292.51
   61.72        3338.25           6719       11180.00     48779.27
   61.75        3338.50           6723       12795.00     55841.51
   61.79        3338.75           6727       14501.00     63304.94
   61.82        3339.00           6731       16145.00     70500.31
   61.85        3339.25           6734       17382.00     75916.38
   61.88        3339.50           6738       19148.00     83651.69
   61.91        3339.75           6742       20929.00     91456.34
   61.94        3340.00           6746       22663.00     99058.54
   61.97        3340.25           6750       24188.00    105747.30
   62.00        3340.50           6753       25676.00    112276.40
   62.03        3340.75           6757       27218.00    119045.10
   62.06        3341.00           6761       28878.00    126334.90
   62.09        3341.25           6765       30387.00    132964.40
   62.12        3341.50           6768       30692.00    134304.70
   62.15        3341.75           6772       30751.00    134563.90
   62.19        3342.00           6776       30488.00    133408.20
   62.22        3342.25           6780       29189.00    127701.00
   62.25        3342.50           6783       28169.00    123221.00
   62.28        3342.75           6787       26267.00    114870.30
   62.31        3343.00           6791       24690.00    107949.70
   62.34        3343.25           6795       23229.00    101540.80
   62.37        3343.50           6798       21846.00     95476.22
   62.40        3343.75           6802       20008.00     87419.90
   62.43        3344.00           6806       18198.00     79490.11
   62.46        3344.25           6810       16528.00     72177.04
   62.50        3344.50           6814       14782.00     64534.58
   62.53        3344.75           6817       13549.00     59139.71
   62.56        3345.00           6821       11913.00     51984.23
   62.59        3345.25           6825       10214.00     44556.47
   62.62        3345.50           6829        8462.00     36900.46
   62.65        3345.75           6832        7200.00     31387.87
   62.68        3346.00           6836        5455.00     23768.47
   62.71        3346.25           6840        3600.00     15672.58
   62.74        3346.50           6844        1994.00      8666.60
   62.77        3346.75           6847         906.00      3922.00
   62.80        3347.00           6851         311.00      1327.86
   62.84        3347.25           6855         176.00       739.34
   62.87        3347.50           6859         130.00       538.81
   62.90        3347.75           6863         103.00       421.10
   62.93        3348.00           6866          89.00       360.07
   62.96        3348.25           6870          69.00       272.89
   62.99        3348.50           6874          55.00       211.86
   63.02        3348.75           6878          54.00       207.50
   63.05        3349.00           6881          59.00       229.30
   63.08        3349.25           6885          49.00       185.70
   63.11        3349.50           6889          56.00       216.22
   63.14        3349.75           6893          54.00       207.50
   63.17        3350.00           6896          56.00       216.22
   63.20        3350.25           6900          51.00       194.42
   63.23        3350.50           6904          63.00       246.73
   63.27        3350.75           6908          51.00       194.42
   63.30        3351.00           6912          58.00       224.94
HL scan finished at 01:03:57
end
