************************************************************
  HL Scan of (1) Internal mercury lamp
************************************************************
Integration time is 0.2294 seconds per sample
dh060718Manchester 53.47 2.23 2.857833pr1000
************************************************************
Dead Time -------------------------  3E-08 
Number of Cycles Used -------------  4 
Starting Wavelength (Angstroms) ---  3331 
Final Wavelength (Angstoms) -------  3351 
Wavelength Increment (Angstroms) --  .25 
Filter Wheel #1 Position ---------- (1) Ground quartz diffuser (ND=2.32)
Filter Wheel #2 Position ---------- 



************************************************************
HL scan start time = 01:00:26
Dark Count =  6.6 


Time (GMT)  Wavelength (Ang)  Step Number  Raw Counts  Counts/Second

   60.96        3331.00           6610          53.00       202.27
   61.18        3331.25           6614          50.00       189.19
   61.21        3331.50           6618          47.00       176.11
   61.24        3331.75           6622          46.00       171.75
   61.27        3332.00           6626          51.00       193.55
   61.30        3332.25           6629          56.00       215.35
   61.33        3332.50           6633          50.00       189.19
   61.37        3332.75           6637          53.00       202.27
   61.40        3333.00           6641          50.00       189.19
   61.43        3333.25           6644          54.00       206.63
   61.46        3333.50           6648          52.00       197.91
   61.49        3333.75           6652          45.00       167.39
   61.52        3334.00           6656          47.00       176.11
   61.55        3334.25           6659          56.00       215.35
   61.58        3334.50           6663          68.00       267.66
   61.61        3334.75           6667          82.00       328.69
   61.64        3335.00           6671         120.00       494.34
   61.68        3335.25           6674         142.00       590.25
   61.71        3335.50           6678         153.00       638.20
   61.74        3335.75           6682         171.00       716.67
   61.77        3336.00           6686         212.00       895.40
   61.80        3336.25           6689         248.00      1052.34
   61.83        3336.50           6693         421.00      1806.55
   61.86        3336.75           6697        1309.00      5678.39
   61.89        3337.00           6701        2615.00     11374.41
   61.92        3337.25           6704        3712.00     16160.41
   61.96        3337.50           6708        5166.00     22506.04
   61.99        3337.75           6712        6443.00     28081.19
   62.02        3338.00           6716        8005.00     34903.14
   62.05        3338.25           6719        8952.00     39040.47
   62.08        3338.50           6723       10342.00     45115.08
   62.11        3338.75           6727       11672.00     50929.55
   62.14        3339.00           6731       13066.00     57025.99
   62.17        3339.25           6734       14118.00     61628.23
   62.20        3339.50           6738       15405.00     67260.27
   62.24        3339.75           6742       16832.00     73507.18
   62.27        3340.00           6746       18365.00     80220.75
   62.30        3340.25           6750       19678.00     85972.99
   62.33        3340.50           6753       20778.00     90793.62
   62.36        3340.75           6757       22188.00     96974.83
   62.39        3341.00           6761       23463.00    102566.20
   62.42        3341.25           6765       24604.00    107571.50
   62.45        3341.50           6768       24747.00    108198.90
   62.48        3341.75           6772       24949.00    109085.30
   62.52        3342.00           6776       24677.00    107891.80
   62.55        3342.25           6780       23781.00    103961.10
   62.58        3342.50           6783       22928.00    100219.80
   62.61        3342.75           6787       21603.00     94410.01
   62.64        3343.00           6791       20197.00     88247.28
   62.67        3343.25           6795       18861.00     82393.48
   62.70        3343.50           6798       17748.00     77518.35
   62.73        3343.75           6802       16358.00     71431.91
   62.76        3344.00           6806       14926.00     65163.89
   62.79        3344.25           6810       13558.00     59178.21
   62.83        3344.50           6814       12137.00     52962.90
   62.86        3344.75           6817       11112.00     48481.11
   62.89        3345.00           6821        9720.00     42396.53
   62.92        3345.25           6825        8364.00     36471.45
   62.95        3345.50           6829        6888.00     30024.42
   62.98        3345.75           6832        5819.00     25356.69
   63.01        3346.00           6836        4297.00     18713.21
   63.04        3346.25           6840        2892.00     12582.78
   63.07        3346.50           6844        1551.00      6733.71
   63.10        3346.75           6847         713.00      3079.62
   63.14        3347.00           6851         278.00      1183.13
   63.17        3347.25           6855         148.00       616.40
   63.20        3347.50           6859         128.00       529.21
   63.23        3347.75           6863          93.00       376.64
   63.26        3348.00           6866          75.00       298.17
   63.29        3348.25           6870          56.00       215.35
   63.32        3348.50           6874          60.00       232.78
   63.35        3348.75           6878          44.00       163.03
   63.38        3349.00           6881          45.00       167.39
   63.41        3349.25           6885          50.00       189.19
   63.45        3349.50           6889          50.00       189.19
   63.48        3349.75           6893          54.00       206.63
   63.51        3350.00           6896          55.00       210.99
   63.54        3350.25           6900          51.00       193.55
   63.57        3350.50           6904          53.00       202.27
   63.60        3350.75           6908          43.00       158.68
   63.63        3351.00           6912          53.00       202.27
HL scan finished at 01:04:18
end
