************************************************************
  HL Scan of (1) Internal mercury lamp
************************************************************
Integration time is 0.2294 seconds per sample
dh130717Manchester 53.47 2.23 2.857833pr1000
************************************************************
Dead Time -------------------------  3E-08 
Number of Cycles Used -------------  4 
Starting Wavelength (Angstroms) ---  3331 
Final Wavelength (Angstoms) -------  3351 
Wavelength Increment (Angstroms) --  .25 
Filter Wheel #1 Position ---------- (1) Ground quartz diffuser (ND=2.32)
Filter Wheel #2 Position ---------- 



************************************************************
HL scan start time = 01:01:13
Dark Count =  6.5 


Time (GMT)  Wavelength (Ang)  Step Number  Raw Counts  Counts/Second

   61.75        3331.00           6610          57.00       220.14
   61.97        3331.25           6614          68.00       268.09
   62.00        3331.50           6618          60.00       233.22
   62.03        3331.75           6622          64.00       250.66
   62.06        3332.00           6626          63.00       246.30
   62.09        3332.25           6629          55.00       211.42
   62.12        3332.50           6633          60.00       233.22
   62.15        3332.75           6637          64.00       250.66
   62.19        3333.00           6641          52.00       198.34
   62.22        3333.25           6644          65.00       255.02
   62.25        3333.50           6648          64.00       250.66
   62.28        3333.75           6652          57.00       220.14
   62.31        3334.00           6656          73.00       289.89
   62.34        3334.25           6659          69.00       272.45
   62.37        3334.50           6663         107.00       438.11
   62.40        3334.75           6667         118.00       486.06
   62.43        3335.00           6671         134.00       555.81
   62.46        3335.25           6674         171.00       717.10
   62.49        3335.50           6678         193.00       813.01
   62.52        3335.75           6682         221.00       935.07
   62.55        3336.00           6686         254.00      1078.94
   62.58        3336.25           6689         307.00      1309.99
   62.62        3336.50           6693         668.00      2883.86
   62.65        3336.75           6697        1923.00      8356.50
   62.68        3337.00           6701        3418.00     14878.04
   62.71        3337.25           6704        4527.00     19717.41
   62.74        3337.50           6708        6115.00     26649.46
   62.77        3337.75           6712        7626.00     33248.06
   62.80        3338.00           6716        9106.00     39713.81
   62.83        3338.25           6719       10274.00     44818.29
   62.86        3338.50           6723       11881.00     51843.87
   62.89        3338.75           6727       13448.00     58697.44
   62.92        3339.00           6731       15104.00     65943.32
   62.96        3339.25           6734       16379.00     71524.28
   62.99        3339.50           6738       17816.00     77816.60
   63.02        3339.75           6742       19268.00     84177.00
   63.05        3340.00           6746       20782.00     90811.59
   63.08        3340.25           6750       22395.00     97882.91
   63.11        3340.50           6753       23446.00    102492.10
   63.14        3340.75           6757       24855.00    108673.30
   63.17        3341.00           6761       26343.00    115203.50
   63.20        3341.25           6765       27544.00    120476.10
   63.23        3341.50           6768       27915.00    122105.20
   63.27        3341.75           6772       27905.00    122061.20
   63.30        3342.00           6776       27650.00    120941.50
   63.33        3342.25           6780       26505.00    115914.60
   63.36        3342.50           6783       25634.00    112091.60
   63.39        3342.75           6787       23893.00    104452.80
   63.42        3343.00           6791       22245.00     97225.19
   63.45        3343.25           6795       20828.00     91013.21
   63.48        3343.50           6798       19516.00     85263.59
   63.51        3343.75           6802       17914.00     78245.79
   63.55        3344.00           6806       16428.00     71738.80
   63.58        3344.25           6810       14957.00     65299.99
   63.61        3344.50           6814       13298.00     58041.26
   63.64        3344.75           6817       12027.00     52482.31
   63.67        3345.00           6821       10601.00     46247.65
   63.70        3345.25           6825        9169.00     39989.10
   63.73        3345.50           6829        7449.00     32474.96
   63.76        3345.75           6832        6211.00     27068.62
   63.79        3346.00           6836        4623.00     20136.40
   63.82        3346.25           6840        3050.00     13272.50
   63.86        3346.50           6844        1589.00      6899.86
   63.89        3346.75           6847         701.00      3027.74
   63.92        3347.00           6851         272.00      1157.41
   63.95        3347.25           6855         152.00       634.28
   63.98        3347.50           6859         135.00       560.17
   64.01        3347.75           6863          98.00       398.87
   64.04        3348.00           6866          77.00       307.33
   64.07        3348.25           6870          73.00       289.89
   64.10        3348.50           6874          67.00       263.73
   64.14        3348.75           6878          67.00       263.73
   64.17        3349.00           6881          67.00       263.73
   64.20        3349.25           6885          57.00       220.14
   64.23        3349.50           6889          63.00       246.30
   64.26        3349.75           6893          57.00       220.14
   64.29        3350.00           6896          71.00       281.17
   64.32        3350.25           6900          60.00       233.22
   64.35        3350.50           6904          62.00       241.94
   64.38        3350.75           6908          56.00       215.78
   64.41        3351.00           6912          64.00       250.66
HL scan finished at 01:05:04
end
