************************************************************
  HL Scan of (1) Internal mercury lamp
************************************************************
Integration time is 0.2294 seconds per sample
dh200717Manchester 53.47 2.23 2.911481pr1000
************************************************************
Dead Time -------------------------  3E-08 
Number of Cycles Used -------------  4 
Starting Wavelength (Angstroms) ---  3331 
Final Wavelength (Angstoms) -------  3351 
Wavelength Increment (Angstroms) --  .25 
Filter Wheel #1 Position ---------- (1) Ground quartz diffuser (ND=2.32)
Filter Wheel #2 Position ---------- 



************************************************************
HL scan start time = 01:01:36
Dark Count =  7.5 


Time (GMT)  Wavelength (Ang)  Step Number  Raw Counts  Counts/Second

   62.13        3331.00           6610          61.00       233.22
   62.35        3331.25           6614          62.00       237.58
   62.38        3331.50           6618          58.00       220.14
   62.42        3331.75           6622          65.00       250.66
   62.45        3332.00           6626          59.00       224.50
   62.48        3332.25           6629          65.00       250.66
   62.51        3332.50           6633          63.00       241.94
   62.54        3332.75           6637          66.00       255.02
   62.57        3333.00           6641          62.00       237.58
   62.60        3333.25           6644          58.00       220.14
   62.63        3333.50           6648          63.00       241.94
   62.66        3333.75           6652          63.00       241.94
   62.69        3334.00           6656          71.00       276.81
   62.72        3334.25           6659          61.00       233.22
   62.75        3334.50           6663          93.00       372.72
   62.78        3334.75           6667         102.00       411.95
   62.82        3335.00           6671         143.00       590.68
   62.85        3335.25           6674         152.00       629.92
   62.88        3335.50           6678         179.00       747.62
   62.91        3335.75           6682         201.00       843.53
   62.94        3336.00           6686         230.00       969.95
   62.97        3336.25           6689         292.00      1240.24
   63.00        3336.50           6693         386.00      1650.04
   63.03        3336.75           6697        1061.00      4593.05
   63.06        3337.00           6701        2605.00     11326.87
   63.09        3337.25           6704        3985.00     17347.74
   63.12        3337.50           6708        5591.00     24357.38
   63.15        3337.75           6712        7301.00     31824.18
   63.18        3338.00           6716        9023.00     39346.77
   63.21        3338.25           6719       10358.00     45181.08
   63.24        3338.50           6723       11963.00     52198.07
   63.27        3338.75           6727       13804.00     60250.48
   63.30        3339.00           6731       15347.00     67002.47
   63.34        3339.25           6734       16564.00     72329.84
   63.37        3339.50           6738       18505.00     80830.03
   63.40        3339.75           6742       19996.00     87362.49
   63.43        3340.00           6746       21956.00     95953.68
   63.46        3340.25           6750       23879.00    104387.00
   63.49        3340.50           6753       25138.00    109910.70
   63.52        3340.75           6757       26767.00    117060.30
   63.55        3341.00           6761       28094.00    122886.80
   63.58        3341.25           6765       29552.00    129290.80
   63.62        3341.50           6768       30185.00    132072.00
   63.65        3341.75           6772       30432.00    133157.30
   63.68        3342.00           6776       30239.00    132309.20
   63.71        3342.25           6780       29440.00    128798.80
   63.74        3342.50           6783       28581.00    125025.60
   63.77        3342.75           6787       26819.00    117288.60
   63.80        3343.00           6791       25186.00    110121.30
   63.83        3343.25           6795       23550.00    102943.90
   63.87        3343.50           6798       22373.00     97782.06
   63.90        3343.75           6802       20587.00     89952.53
   63.93        3344.00           6806       18808.00     82157.35
   63.96        3344.25           6810       17067.00     74532.21
   63.99        3344.50           6814       15544.00     67864.71
   64.02        3344.75           6817       14218.00     62061.83
   64.05        3345.00           6821       12464.00     54389.03
   64.08        3345.25           6825       10738.00     46842.15
   64.11        3345.50           6829        8953.00     39040.91
   64.14        3345.75           6832        7746.00     33767.85
   64.17        3346.00           6836        6052.00     26370.03
   64.21        3346.25           6840        4300.00     18722.37
   64.24        3346.50           6844        2683.00     11667.12
   64.27        3346.75           6847        1562.00      6777.75
   64.30        3347.00           6851         507.00      2177.56
   64.33        3347.25           6855         235.00       991.75
   64.36        3347.50           6859         152.00       629.92
   64.39        3347.75           6863         122.00       499.14
   64.42        3348.00           6866          97.00       390.15
   64.45        3348.25           6870          77.00       302.97
   64.49        3348.50           6874          67.00       259.37
   64.52        3348.75           6878          60.00       228.86
   64.55        3349.00           6881          67.00       259.37
   64.58        3349.25           6885          66.00       255.02
   64.61        3349.50           6889          68.00       263.73
   64.64        3349.75           6893          64.00       246.30
   64.67        3350.00           6896          69.00       268.09
   64.70        3350.25           6900          64.00       246.30
   64.73        3350.50           6904          71.00       276.81
   64.76        3350.75           6908          55.00       207.06
   64.79        3351.00           6912          57.00       215.78
HL scan finished at 01:05:27
end
