************************************************************
  HL Scan of (1) Internal mercury lamp
************************************************************
Integration time is 0.2294 seconds per sample
dh270717Manchester 53.47 2.23 2.804185pr1000
************************************************************
Dead Time -------------------------  3E-08 
Number of Cycles Used -------------  4 
Starting Wavelength (Angstroms) ---  3331 
Final Wavelength (Angstoms) -------  3351 
Wavelength Increment (Angstroms) --  .25 
Filter Wheel #1 Position ---------- (1) Ground quartz diffuser (ND=2.32)
Filter Wheel #2 Position ---------- 



************************************************************
HL scan start time = 01:02:14
Dark Count =  7.4 


Time (GMT)  Wavelength (Ang)  Step Number  Raw Counts  Counts/Second

   62.76        3331.00           6610          57.00       216.22
   62.98        3331.25           6614          65.00       251.09
   63.01        3331.50           6618          70.00       272.89
   63.04        3331.75           6622          65.00       251.09
   63.08        3332.00           6626          59.00       224.94
   63.11        3332.25           6629          59.00       224.94
   63.14        3332.50           6633          63.00       242.37
   63.17        3332.75           6637          64.00       246.73
   63.20        3333.00           6641          61.00       233.65
   63.23        3333.25           6644          67.00       259.81
   63.26        3333.50           6648          65.00       251.09
   63.29        3333.75           6652          60.00       229.30
   63.32        3334.00           6656          51.00       190.06
   63.35        3334.25           6659          65.00       251.09
   63.38        3334.50           6663          82.00       325.20
   63.41        3334.75           6667          96.00       386.23
   63.44        3335.00           6671         119.00       486.49
   63.48        3335.25           6674         135.00       556.24
   63.51        3335.50           6678         161.00       669.59
   63.54        3335.75           6682         188.00       787.29
   63.57        3336.00           6686         237.00      1000.90
   63.60        3336.25           6689         267.00      1131.69
   63.63        3336.50           6693         379.00      1619.96
   63.66        3336.75           6697        1108.00      4798.42
   63.69        3337.00           6701        2477.00     10768.96
   63.72        3337.25           6704        3684.00     16034.74
   63.76        3337.50           6708        5253.00     22882.31
   63.79        3337.75           6712        6826.00     29750.17
   63.82        3338.00           6716        8314.00     36249.51
   63.85        3338.25           6719        9482.00     41352.93
   63.88        3338.50           6723       11106.00     48451.37
   63.91        3338.75           6727       12536.00     54704.35
   63.94        3339.00           6731       14225.00     62092.89
   63.97        3339.25           6734       15390.00     67191.10
   64.00        3339.50           6738       16890.00     73757.62
   64.04        3339.75           6742       18547.00     81014.46
   64.07        3340.00           6746       20112.00     87871.27
   64.10        3340.25           6750       21697.00     94818.59
   64.13        3340.50           6753       22927.00    100211.90
   64.16        3340.75           6757       24332.00    106374.70
   64.19        3341.00           6761       25979.00    113601.90
   64.22        3341.25           6765       27181.00    118878.30
   64.25        3341.50           6768       27544.00    120472.10
   64.28        3341.75           6772       27603.00    120731.20
   64.31        3342.00           6776       27367.00    119695.00
   64.35        3342.25           6780       26762.00    117038.80
   64.38        3342.50           6783       25947.00    113461.40
   64.41        3342.75           6787       24341.00    106414.20
   64.44        3343.00           6791       22601.00     98782.28
   64.47        3343.25           6795       21255.00     92880.94
   64.50        3343.50           6798       20082.00     87739.81
   64.53        3343.75           6802       18583.00     81172.15
   64.56        3344.00           6806       16905.00     73823.30
   64.59        3344.25           6810       15373.00     67116.70
   64.63        3344.50           6814       13815.00     60299.04
   64.66        3344.75           6817       12778.00     55762.78
   64.69        3345.00           6821       11044.00     48180.32
   64.72        3345.25           6825        9588.00     41816.16
   64.75        3345.50           6829        7920.00     34528.34
   64.78        3345.75           6832        6833.00     29780.74
   64.81        3346.00           6836        5206.00     22677.15
   64.84        3346.25           6840        3623.00     15768.57
   64.87        3346.50           6844        2155.00      9364.45
   64.91        3346.75           6847        1182.00      5121.10
   64.94        3347.00           6851         399.00      1707.15
   64.97        3347.25           6855         200.00       839.60
   65.00        3347.50           6859         146.00       604.20
   65.03        3347.75           6863         116.00       473.42
   65.06        3348.00           6866         107.00       434.18
   65.09        3348.25           6870          78.00       307.76
   65.12        3348.50           6874          66.00       255.45
   65.15        3348.75           6878          60.00       229.30
   65.18        3349.00           6881          60.00       229.30
   65.21        3349.25           6885          54.00       203.14
   65.25        3349.50           6889          60.00       229.30
   65.28        3349.75           6893          63.00       242.37
   65.31        3350.00           6896          63.00       242.37
   65.34        3350.25           6900          57.00       216.22
   65.37        3350.50           6904          68.00       264.17
   65.40        3350.75           6908          61.00       233.65
   65.43        3351.00           6912          74.00       290.33
HL scan finished at 01:06:05
end
