************************************************************
  HL Scan of (1) Internal mercury lamp
************************************************************
Integration time is 0.2294 seconds per sample
dh200718Manchester 53.47 2.23 2.857833pr1000
************************************************************
Dead Time -------------------------  3E-08 
Number of Cycles Used -------------  4 
Starting Wavelength (Angstroms) ---  3331 
Final Wavelength (Angstoms) -------  3351 
Wavelength Increment (Angstroms) --  .25 
Filter Wheel #1 Position ---------- (1) Ground quartz diffuser (ND=2.32)
Filter Wheel #2 Position ---------- 



************************************************************
HL scan start time = 01:02:13
Dark Count =  4.9 


Time (GMT)  Wavelength (Ang)  Step Number  Raw Counts  Counts/Second

   62.73        3331.00           6610          61.00       244.55
   62.96        3331.25           6614          46.00       179.16
   62.99        3331.50           6618          46.00       179.16
   63.02        3331.75           6622          43.00       166.09
   63.05        3332.00           6626          44.00       170.45
   63.08        3332.25           6629          52.00       205.32
   63.11        3332.50           6633          45.00       174.80
   63.14        3332.75           6637          48.00       187.88
   63.17        3333.00           6641          65.00       261.99
   63.20        3333.25           6644          46.00       179.16
   63.24        3333.50           6648          51.00       200.96
   63.27        3333.75           6652          56.00       222.76
   63.30        3334.00           6656          47.00       183.52
   63.33        3334.25           6659          56.00       222.76
   63.36        3334.50           6663          97.00       401.49
   63.39        3334.75           6667          79.00       323.02
   63.42        3335.00           6671         109.00       453.80
   63.45        3335.25           6674         120.00       501.75
   63.48        3335.50           6678         136.00       571.50
   63.51        3335.75           6682         172.00       728.44
   63.55        3336.00           6686         189.00       802.55
   63.58        3336.25           6689         226.00       963.85
   63.61        3336.50           6693         394.00      1696.25
   63.64        3336.75           6697        1202.00      5219.21
   63.67        3337.00           6701        2513.00     10936.89
   63.70        3337.25           6704        3480.00     15155.54
   63.73        3337.50           6708        4825.00     21025.03
   63.76        3337.75           6712        6230.00     27158.56
   63.79        3338.00           6716        7523.00     32805.16
   63.82        3338.25           6719        8498.00     37064.29
   63.86        3338.50           6723        9889.00     43142.55
   63.89        3338.75           6727       11153.00     48667.78
   63.92        3339.00           6731       12476.00     54452.88
   63.95        3339.25           6734       13707.00     59837.49
   63.98        3339.50           6738       14966.00     65346.37
   64.01        3339.75           6742       16286.00     71124.13
   64.04        3340.00           6746       17639.00     77048.41
   64.07        3340.25           6750       19099.00     83443.59
   64.10        3340.50           6753       20033.00     87536.02
   64.14        3340.75           6757       21374.00     93413.56
   64.17        3341.00           6761       22809.00     99705.38
   64.20        3341.25           6765       23845.00    104249.20
   64.23        3341.50           6768       24136.00    105525.80
   64.26        3341.75           6772       24311.00    106293.50
   64.29        3342.00           6776       24150.00    105587.20
   64.32        3342.25           6780       23441.00    102477.20
   64.35        3342.50           6783       22622.00     98885.33
   64.39        3342.75           6787       21213.00     92707.79
   64.42        3343.00           6791       20098.00     87820.87
   64.45        3343.25           6795       18609.00     81296.99
   64.48        3343.50           6798       17608.00     76912.66
   64.51        3343.75           6802       16426.00     71737.05
   64.54        3344.00           6806       14955.00     65298.24
   64.57        3344.25           6810       13423.00     58595.07
   64.60        3344.50           6814       12112.00     52861.01
   64.63        3344.75           6817       11114.00     48497.28
   64.67        3345.00           6821        9830.00     42884.69
   64.70        3345.25           6825        8426.00     36749.74
   64.73        3345.50           6829        7021.00     30612.67
   64.76        3345.75           6832        5937.00     25879.28
   64.79        3346.00           6836        4521.00     19698.21
   64.82        3346.25           6840        3160.00     13759.38
   64.85        3346.50           6844        1846.00      8027.65
   64.88        3346.75           6847         990.00      4294.80
   64.91        3347.00           6851         335.00      1439.03
   64.94        3347.25           6855         153.00       645.61
   64.98        3347.50           6859         114.00       475.60
   65.01        3347.75           6863          93.00       384.05
   65.04        3348.00           6866          74.00       301.22
   65.07        3348.25           6870          68.00       275.07
   65.10        3348.50           6874          51.00       200.96
   65.13        3348.75           6878          47.00       183.52
   65.16        3349.00           6881          53.00       209.68
   65.19        3349.25           6885          49.00       192.24
   65.22        3349.50           6889          50.00       196.60
   65.25        3349.75           6893          42.00       161.73
   65.28        3350.00           6896          47.00       183.52
   65.31        3350.25           6900          52.00       205.32
   65.34        3350.50           6904          39.00       148.65
   65.37        3350.75           6908          59.00       235.83
   65.41        3351.00           6912          45.00       174.80
HL scan finished at 01:06:04
end
