************************************************************
  HL Scan of (1) Internal mercury lamp
************************************************************
Integration time is 0.2294 seconds per sample
dh030817Manchester 53.47 2.23 2.857833pr1000
************************************************************
Dead Time -------------------------  3E-08 
Number of Cycles Used -------------  4 
Starting Wavelength (Angstroms) ---  3331 
Final Wavelength (Angstoms) -------  3351 
Wavelength Increment (Angstroms) --  .25 
Filter Wheel #1 Position ---------- (1) Ground quartz diffuser (ND=2.32)
Filter Wheel #2 Position ---------- 



************************************************************
HL scan start time = 01:02:17
Dark Count =  7.7 


Time (GMT)  Wavelength (Ang)  Step Number  Raw Counts  Counts/Second

   62.80        3331.00           6610          58.00       219.27
   63.03        3331.25           6614          56.00       210.55
   63.06        3331.50           6618          63.00       241.07
   63.09        3331.75           6622          72.00       280.30
   63.12        3332.00           6626          61.00       232.35
   63.15        3332.25           6629          63.00       241.07
   63.18        3332.50           6633          58.00       219.27
   63.21        3332.75           6637          55.00       206.19
   63.24        3333.00           6641          69.00       267.22
   63.27        3333.25           6644          65.00       249.78
   63.30        3333.50           6648          57.00       214.91
   63.33        3333.75           6652          64.00       245.42
   63.37        3334.00           6656          64.00       245.42
   63.40        3334.25           6659          63.00       241.07
   63.43        3334.50           6663          87.00       345.69
   63.46        3334.75           6667          96.00       384.92
   63.49        3335.00           6671         127.00       520.06
   63.52        3335.25           6674         160.00       663.92
   63.55        3335.50           6678         177.00       738.03
   63.58        3335.75           6682         191.00       799.06
   63.61        3336.00           6686         246.00      1038.83
   63.64        3336.25           6689         274.00      1160.89
   63.67        3336.50           6693         469.00      2011.02
   63.70        3336.75           6697        1491.00      6467.25
   63.74        3337.00           6701        2951.00     12835.37
   63.77        3337.25           6704        4167.00     18141.08
   63.80        3337.50           6708        5729.00     24958.96
   63.83        3337.75           6712        7290.00     31775.26
   63.86        3338.00           6716        8906.00     38834.67
   63.89        3338.25           6719       10183.00     44415.29
   63.92        3338.50           6723       11665.00     50894.13
   63.95        3338.75           6727       13195.00     57585.45
   63.98        3339.00           6731       14854.00     64843.98
   64.01        3339.25           6734       16028.00     69982.43
   64.05        3339.50           6738       17663.00     77141.28
   64.08        3339.75           6742       19208.00     83908.87
   64.11        3340.00           6746       20787.00     90828.24
   64.14        3340.25           6750       22335.00     97614.57
   64.17        3340.50           6753       23390.00    102241.20
   64.20        3340.75           6757       24765.00    108273.10
   64.23        3341.00           6761       26318.00    115088.50
   64.26        3341.25           6765       27707.00    121186.50
   64.29        3341.50           6768       28061.00    122741.00
   64.33        3341.75           6772       28154.00    123149.40
   64.36        3342.00           6776       27897.00    122020.90
   64.39        3342.25           6780       26972.00    117959.40
   64.42        3342.50           6783       26118.00    114210.60
   64.45        3342.75           6787       24424.00    106777.00
   64.48        3343.00           6791       22922.00    100188.70
   64.51        3343.25           6795       21466.00     93804.59
   64.54        3343.50           6798       20178.00     88159.19
   64.57        3343.75           6802       18520.00     80894.87
   64.60        3344.00           6806       16757.00     73173.97
   64.63        3344.25           6810       15299.00     66791.50
   64.67        3344.50           6814       13727.00     59912.74
   64.70        3344.75           6817       12586.00     54921.72
   64.73        3345.00           6821       11147.00     48629.31
   64.76        3345.25           6825        9590.00     41823.59
   64.79        3345.50           6829        7955.00     34679.92
   64.82        3345.75           6832        6595.00     28740.11
   64.85        3346.00           6836        5100.00     22213.14
   64.88        3346.25           6840        3406.00     14820.45
   64.91        3346.50           6844        1905.00      8272.76
   64.94        3346.75           6847         908.00      3925.05
   64.97        3347.00           6851         307.00      1304.76
   65.01        3347.25           6855         181.00       755.47
   65.04        3347.50           6859         134.00       550.58
   65.07        3347.75           6863         113.00       459.03
   65.10        3348.00           6866          87.00       345.69
   65.13        3348.25           6870          81.00       319.53
   65.16        3348.50           6874          77.00       302.10
   65.19        3348.75           6878          64.00       245.42
   65.22        3349.00           6881          64.00       245.42
   65.25        3349.25           6885          66.00       254.14
   65.28        3349.50           6889          56.00       210.55
   65.32        3349.75           6893          62.00       236.71
   65.35        3350.00           6896          61.00       232.35
   65.38        3350.25           6900          61.00       232.35
   65.41        3350.50           6904          57.00       214.91
   65.44        3350.75           6908          69.00       267.22
   65.47        3351.00           6912          66.00       254.14
HL scan finished at 01:06:08
end
