************************************************************
  HL Scan of (1) Internal mercury lamp
************************************************************
Integration time is 0.2294 seconds per sample
dh030818Manchester 53.47 2.23 3.072425pr1000
************************************************************
Dead Time -------------------------  3E-08 
Number of Cycles Used -------------  4 
Starting Wavelength (Angstroms) ---  3331 
Final Wavelength (Angstoms) -------  3351 
Wavelength Increment (Angstroms) --  .25 
Filter Wheel #1 Position ---------- (1) Ground quartz diffuser (ND=2.32)
Filter Wheel #2 Position ---------- 



************************************************************
HL scan start time = 01:01:56
Dark Count =  6 


Time (GMT)  Wavelength (Ang)  Step Number  Raw Counts  Counts/Second

   62.46        3331.00           6610          44.00       165.65
   62.68        3331.25           6614          47.00       178.73
   62.71        3331.50           6618          48.00       183.09
   62.74        3331.75           6622          54.00       209.24
   62.77        3332.00           6626          50.00       191.81
   62.81        3332.25           6629          50.00       191.81
   62.84        3332.50           6633          53.00       204.88
   62.87        3332.75           6637          56.00       217.96
   62.90        3333.00           6641          53.00       204.88
   62.93        3333.25           6644          45.00       170.01
   62.96        3333.50           6648          53.00       204.88
   62.99        3333.75           6652          43.00       161.29
   63.02        3334.00           6656          50.00       191.81
   63.05        3334.25           6659          61.00       239.76
   63.08        3334.50           6663          79.00       318.22
   63.11        3334.75           6667          91.00       370.54
   63.15        3335.00           6671         127.00       527.47
   63.18        3335.25           6674         148.00       619.02
   63.21        3335.50           6678         171.00       719.28
   63.24        3335.75           6682         191.00       806.47
   63.27        3336.00           6686         235.00       998.29
   63.30        3336.25           6689         278.00      1185.74
   63.33        3336.50           6693         576.00      2484.93
   63.36        3336.75           6697        1741.00      7564.93
   63.39        3337.00           6701        3166.00     13780.76
   63.42        3337.25           6704        4334.00     18877.30
   63.46        3337.50           6708        5721.00     24931.46
   63.49        3337.75           6712        7309.00     31865.67
   63.52        3338.00           6716        8922.00     38912.01
   63.55        3338.25           6719        9981.00     43539.83
   63.58        3338.50           6723       11410.00     49786.60
   63.61        3338.75           6727       12942.00     56486.23
   63.64        3339.00           6731       14387.00     62807.86
   63.67        3339.25           6734       15451.00     67464.22
   63.70        3339.50           6738       16979.00     74153.46
   63.74        3339.75           6742       18440.00     80551.88
   63.77        3340.00           6746       19997.00     87373.46
   63.80        3340.25           6750       21328.00     93207.08
   63.83        3340.50           6753       22381.00     97823.71
   63.86        3340.75           6757       23851.00    104270.70
   63.89        3341.00           6761       25168.00    110048.90
   63.92        3341.25           6765       26349.00    115232.00
   63.95        3341.50           6768       26571.00    116206.50
   63.98        3341.75           6772       26487.00    115837.80
   64.02        3342.00           6776       26228.00    114700.90
   64.05        3342.25           6780       25220.00    110277.10
   64.08        3342.50           6783       24289.00    106192.20
   64.11        3342.75           6787       22845.00     99858.43
   64.14        3343.00           6791       21299.00     93079.96
   64.17        3343.25           6795       19856.00     86755.58
   64.20        3343.50           6798       18698.00     81682.05
   64.23        3343.75           6802       17144.00     74875.94
   64.27        3344.00           6806       15550.00     67897.53
   64.30        3344.25           6810       14067.00     61407.71
   64.33        3344.50           6814       12603.00     55003.51
   64.36        3344.75           6817       11536.00     50337.51
   64.39        3345.00           6821       10105.00     44081.80
   64.42        3345.25           6825        8660.00     37767.27
   64.45        3345.50           6829        7211.00     31437.66
   64.48        3345.75           6832        6065.00     26433.34
   64.51        3346.00           6836        4590.00     19994.55
   64.55        3346.25           6840        3143.00     13680.42
   64.58        3346.50           6844        1636.00      7107.01
   64.61        3346.75           6847         743.00      3213.04
   64.64        3347.00           6851         244.00      1037.52
   64.67        3347.25           6855         170.00       714.92
   64.70        3347.50           6859         128.00       531.83
   64.73        3347.75           6863          89.00       361.82
   64.76        3348.00           6866          82.00       331.30
   64.79        3348.25           6870          62.00       244.12
   64.82        3348.50           6874          56.00       217.96
   64.86        3348.75           6878          50.00       191.81
   64.89        3349.00           6881          52.00       200.52
   64.92        3349.25           6885          52.00       200.52
   64.95        3349.50           6889          52.00       200.52
   64.98        3349.75           6893          52.00       200.52
   65.01        3350.00           6896          47.00       178.73
   65.04        3350.25           6900          50.00       191.81
   65.07        3350.50           6904          48.00       183.09
   65.10        3350.75           6908          50.00       191.81
   65.14        3351.00           6912          46.00       174.37
HL scan finished at 01:05:48
end
