************************************************************
  HL Scan of (1) Internal mercury lamp
************************************************************
Integration time is 0.2294 seconds per sample
dh100817Manchester 53.47 2.23 2.804185pr1000
************************************************************
Dead Time -------------------------  3E-08 
Number of Cycles Used -------------  4 
Starting Wavelength (Angstroms) ---  3331 
Final Wavelength (Angstoms) -------  3351 
Wavelength Increment (Angstroms) --  .25 
Filter Wheel #1 Position ---------- (1) Ground quartz diffuser (ND=2.32)
Filter Wheel #2 Position ---------- 



************************************************************
HL scan start time = 01:00:25
Dark Count =  6.8 


Time (GMT)  Wavelength (Ang)  Step Number  Raw Counts  Counts/Second

   60.95        3331.00           6610          55.00       210.11
   61.17        3331.25           6614          56.00       214.47
   61.20        3331.50           6618          57.00       218.83
   61.23        3331.75           6622          54.00       205.76
   61.26        3332.00           6626          59.00       227.55
   61.29        3332.25           6629          65.00       253.71
   61.32        3332.50           6633          70.00       275.50
   61.36        3332.75           6637          64.00       249.35
   61.39        3333.00           6641          69.00       271.14
   61.42        3333.25           6644          57.00       218.83
   61.45        3333.50           6648          61.00       236.27
   61.48        3333.75           6652          57.00       218.83
   61.51        3334.00           6656          52.00       197.04
   61.54        3334.25           6659          67.00       262.43
   61.57        3334.50           6663          79.00       314.74
   61.60        3334.75           6667          96.00       388.85
   61.63        3335.00           6671         109.00       445.52
   61.66        3335.25           6674         137.00       567.58
   61.70        3335.50           6678         164.00       685.28
   61.73        3335.75           6682         189.00       794.26
   61.76        3336.00           6686         234.00       990.44
   61.79        3336.25           6689         261.00      1108.15
   61.82        3336.50           6693         466.00      2001.86
   61.85        3336.75           6697        1346.00      5838.86
   61.88        3337.00           6701        2799.00     12176.20
   61.91        3337.25           6704        3994.00     17390.06
   61.94        3337.50           6708        5535.00     24115.96
   61.97        3337.75           6712        7167.00     31242.00
   62.00        3338.00           6716        8659.00     37759.40
   62.04        3338.25           6719        9775.00     42636.03
   62.07        3338.50           6723       11355.00     49542.63
   62.10        3338.75           6727       12693.00     55393.64
   62.13        3339.00           6731       14442.00     63045.03
   62.16        3339.25           6734       15619.00     68196.06
   62.19        3339.50           6738       17089.00     74631.60
   62.22        3339.75           6742       18671.00     81560.25
   62.25        3340.00           6746       20019.00     87466.36
   62.29        3340.25           6750       21497.00     93944.42
   62.32        3340.50           6753       22774.00     99543.55
   62.35        3340.75           6757       24436.00    106833.60
   62.38        3341.00           6761       25816.00    112889.10
   62.41        3341.25           6765       27115.00    118591.20
   62.44        3341.50           6768       27563.00    120558.20
   62.47        3341.75           6772       27673.00    121041.20
   62.50        3342.00           6776       27343.00    119592.20
   62.53        3342.25           6780       26742.00    116953.70
   62.56        3342.50           6783       25592.00    111906.00
   62.60        3342.75           6787       24318.00    106315.90
   62.63        3343.00           6791       22742.00     99403.22
   62.66        3343.25           6795       21226.00     92756.44
   62.69        3343.50           6798       20002.00     87391.85
   62.72        3343.75           6802       18550.00     81030.22
   62.75        3344.00           6806       16915.00     73869.71
   62.78        3344.25           6810       15218.00     66440.93
   62.81        3344.50           6814       13627.00     59479.19
   62.84        3344.75           6817       12635.00     55139.96
   62.87        3345.00           6821       11094.00     48401.53
   62.90        3345.25           6825        9433.00     41141.42
   62.93        3345.50           6829        7808.00     34041.72
   62.96        3345.75           6832        6708.00     29237.49
   62.99        3346.00           6836        5076.00     22112.31
   63.03        3346.25           6840        3462.00     15068.71
   63.06        3346.50           6844        2027.00      8808.78
   63.09        3346.75           6847         991.00      4290.88
   63.12        3347.00           6851         347.00      1483.07
   63.15        3347.25           6855         193.00       811.70
   63.18        3347.50           6859         144.00       598.09
   63.21        3347.75           6863         136.00       563.22
   63.24        3348.00           6866         111.00       454.23
   63.27        3348.25           6870          91.00       367.05
   63.30        3348.50           6874          69.00       271.14
   63.33        3348.75           6878          68.00       266.79
   63.37        3349.00           6881          73.00       288.58
   63.40        3349.25           6885          62.00       240.63
   63.43        3349.50           6889          61.00       236.27
   63.46        3349.75           6893          70.00       275.50
   63.49        3350.00           6896          62.00       240.63
   63.52        3350.25           6900          56.00       214.47
   63.55        3350.50           6904          71.00       279.86
   63.58        3350.75           6908          61.00       236.27
   63.61        3351.00           6912          63.00       244.99
HL scan finished at 01:04:16
end
