************************************************************
  HL Scan of (1) Internal mercury lamp
************************************************************
Integration time is 0.2294 seconds per sample
dh100818Manchester 53.47 2.23 2.804185pr1000
************************************************************
Dead Time -------------------------  3E-08 
Number of Cycles Used -------------  4 
Starting Wavelength (Angstroms) ---  3331 
Final Wavelength (Angstoms) -------  3351 
Wavelength Increment (Angstroms) --  .25 
Filter Wheel #1 Position ---------- (1) Ground quartz diffuser (ND=2.32)
Filter Wheel #2 Position ---------- 



************************************************************
HL scan start time = 01:00:43
Dark Count =  4.1 


Time (GMT)  Wavelength (Ang)  Step Number  Raw Counts  Counts/Second

   61.25        3331.00           6610          40.00       156.50
   61.47        3331.25           6614          48.00       191.37
   61.50        3331.50           6618          51.00       204.45
   61.53        3331.75           6622          44.00       173.93
   61.56        3332.00           6626          46.00       182.65
   61.59        3332.25           6629          42.00       165.21
   61.62        3332.50           6633          44.00       173.93
   61.66        3332.75           6637          45.00       178.29
   61.69        3333.00           6641          46.00       182.65
   61.72        3333.25           6644          44.00       173.93
   61.75        3333.50           6648          48.00       191.37
   61.78        3333.75           6652          45.00       178.29
   61.81        3334.00           6656          48.00       191.37
   61.84        3334.25           6659          49.00       195.73
   61.87        3334.50           6663          71.00       291.63
   61.90        3334.75           6667          93.00       387.54
   61.93        3335.00           6671          96.00       400.62
   61.96        3335.25           6674         137.00       579.35
   61.99        3335.50           6678         143.00       605.50
   62.03        3335.75           6682         176.00       749.36
   62.06        3336.00           6686         206.00       880.15
   62.09        3336.25           6689         234.00      1002.21
   62.12        3336.50           6693         504.00      2179.31
   62.15        3336.75           6697        1497.00      6509.12
   62.18        3337.00           6701        2797.00     12179.25
   62.21        3337.25           6704        3725.00     16228.04
   62.24        3337.50           6708        4958.00     21609.04
   62.27        3337.75           6712        6300.00     27467.70
   62.31        3338.00           6716        7420.00     32358.77
   62.34        3338.25           6719        8450.00     36858.09
   62.37        3338.50           6723        9769.00     42621.60
   62.40        3338.75           6727       10890.00     47521.50
   62.43        3339.00           6731       12237.00     53411.15
   62.46        3339.25           6734       13163.00     57461.23
   62.49        3339.50           6738       14556.00     63555.69
   62.52        3339.75           6742       15820.00     69087.69
   62.56        3340.00           6746       17100.00     74691.60
   62.59        3340.25           6750       18406.00     80411.28
   62.62        3340.50           6753       19154.00     83688.06
   62.65        3340.75           6757       20556.00     89831.56
   62.68        3341.00           6761       21671.00     94719.09
   62.71        3341.25           6765       22483.00     98279.31
   62.74        3341.50           6768       22743.00     99419.46
   62.77        3341.75           6772       22662.00     99064.24
   62.80        3342.00           6776       22394.00     97889.06
   62.84        3342.25           6780       21602.00     94416.58
   62.87        3342.50           6783       20861.00     91168.38
   62.90        3342.75           6787       19424.00     84871.01
   62.93        3343.00           6791       18272.00     79824.33
   62.96        3343.25           6795       16932.00     73955.97
   62.99        3343.50           6798       15825.00     69109.57
   63.02        3343.75           6802       14599.00     63743.85
   63.05        3344.00           6806       13499.00     58931.04
   63.09        3344.25           6810       12180.00     53161.88
   63.12        3344.50           6814       10793.00     47097.46
   63.15        3344.75           6817        9834.00     42905.67
   63.18        3345.00           6821        8496.00     37059.05
   63.21        3345.25           6825        7200.00     31397.92
   63.24        3345.50           6829        5897.00     25708.14
   63.27        3345.75           6832        5003.00     21805.45
   63.30        3346.00           6836        3755.00     16358.94
   63.33        3346.25           6840        2512.00     10936.02
   63.36        3346.50           6844        1316.00      5719.81
   63.40        3346.75           6847         643.00      2785.32
   63.43        3347.00           6851         249.00      1067.60
   63.46        3347.25           6855         137.00       579.35
   63.49        3347.50           6859         104.00       435.49
   63.52        3347.75           6863          88.00       365.74
   63.55        3348.00           6866          68.00       278.56
   63.58        3348.25           6870          53.00       213.17
   63.61        3348.50           6874          54.00       217.53
   63.64        3348.75           6878          44.00       173.93
   63.68        3349.00           6881          61.00       248.04
   63.71        3349.25           6885          54.00       217.53
   63.74        3349.50           6889          44.00       173.93
   63.77        3349.75           6893          51.00       204.45
   63.80        3350.00           6896          49.00       195.73
   63.83        3350.25           6900          50.00       200.09
   63.86        3350.50           6904          44.00       173.93
   63.89        3350.75           6908          50.00       200.09
   63.92        3351.00           6912          47.00       187.01
HL scan finished at 01:04:35
end
