************************************************************
  HL Scan of (1) Internal mercury lamp
************************************************************
Integration time is 0.2294 seconds per sample
dh170817Manchester 53.47 2.23 2.804185pr1000
************************************************************
Dead Time -------------------------  3E-08 
Number of Cycles Used -------------  4 
Starting Wavelength (Angstroms) ---  3331 
Final Wavelength (Angstoms) -------  3351 
Wavelength Increment (Angstroms) --  .25 
Filter Wheel #1 Position ---------- (1) Ground quartz diffuser (ND=2.32)
Filter Wheel #2 Position ---------- 



************************************************************
HL scan start time = 00:59:16
Dark Count =  6.4 


Time (GMT)  Wavelength (Ang)  Step Number  Raw Counts  Counts/Second

   59.79        3331.00           6610          54.00       207.50
   60.01        3331.25           6614          55.00       211.86
   60.04        3331.50           6618          60.00       233.65
   60.07        3331.75           6622          62.00       242.37
   60.10        3332.00           6626          60.00       233.65
   60.13        3332.25           6629          53.00       203.14
   60.16        3332.50           6633          59.00       229.30
   60.19        3332.75           6637          54.00       207.50
   60.22        3333.00           6641          61.00       238.01
   60.25        3333.25           6644          56.00       216.22
   60.28        3333.50           6648          60.00       233.65
   60.32        3333.75           6652          62.00       242.37
   60.35        3334.00           6656          56.00       216.22
   60.38        3334.25           6659          67.00       264.17
   60.41        3334.50           6663          80.00       320.84
   60.44        3334.75           6667          95.00       386.23
   60.47        3335.00           6671         120.00       495.21
   60.50        3335.25           6674         142.00       591.12
   60.53        3335.50           6678         165.00       691.38
   60.56        3335.75           6682         174.00       730.62
   60.59        3336.00           6686         216.00       913.71
   60.62        3336.25           6689         244.00      1035.78
   60.66        3336.50           6693         384.00      1646.11
   60.69        3336.75           6697        1063.00      4606.57
   60.72        3337.00           6701        2490.00     10830.02
   60.75        3337.25           6704        3651.00     15895.11
   60.78        3337.50           6708        5141.00     22397.78
   60.81        3337.75           6712        6733.00     29348.41
   60.84        3338.00           6716        8229.00     35882.55
   60.87        3338.25           6719        9530.00     41567.06
   60.90        3338.50           6723       11019.00     48075.39
   60.94        3338.75           6727       12503.00     54564.40
   60.97        3339.00           6731       13921.00     60767.18
   61.00        3339.25           6734       15139.00     66096.93
   61.03        3339.50           6738       16847.00     73573.72
   61.06        3339.75           6742       18263.00     79774.83
   61.09        3340.00           6746       19981.00     87301.58
   61.12        3340.25           6750       21317.00     93157.11
   61.15        3340.50           6753       22536.00     98501.62
   61.18        3340.75           6757       24228.00    105922.80
   61.22        3341.00           6761       25806.00    112847.00
   61.25        3341.25           6765       27061.00    118355.90
   61.28        3341.50           6768       27356.00    119651.00
   61.31        3341.75           6772       27648.00    120933.20
   61.34        3342.00           6776       27424.00    119949.60
   61.37        3342.25           6780       26818.00    117289.10
   61.40        3342.50           6783       25907.00    113290.20
   61.43        3342.75           6787       24406.00    106703.70
   61.46        3343.00           6791       22817.00     99733.88
   61.50        3343.25           6795       21216.00     92714.37
   61.53        3343.50           6798       20173.00     88142.97
   61.56        3343.75           6802       18531.00     80948.74
   61.59        3344.00           6806       17055.00     74484.48
   61.62        3344.25           6810       15456.00     67484.35
   61.65        3344.50           6814       13780.00     60150.30
   61.68        3344.75           6817       12733.00     55570.33
   61.71        3345.00           6821       11101.00     48433.89
   61.74        3345.25           6825        9692.00     42275.03
   61.77        3345.50           6829        8070.00     35187.95
   61.80        3345.75           6832        6822.00     29737.07
   61.84        3346.00           6836        5242.00     22838.66
   61.87        3346.25           6840        3600.00     15672.58
   61.90        3346.50           6844        2066.00      8980.62
   61.93        3346.75           6847        1059.00      4589.12
   61.96        3347.00           6851         365.00      1563.28
   61.99        3347.25           6855         204.00       861.40
   62.02        3347.50           6859         153.00       639.07
   62.05        3347.75           6863         117.00       482.13
   62.08        3348.00           6866         108.00       442.90
   62.11        3348.25           6870          81.00       325.20
   62.14        3348.50           6874          72.00       285.97
   62.17        3348.75           6878          59.00       229.30
   62.20        3349.00           6881          70.00       277.25
   62.24        3349.25           6885          65.00       255.45
   62.27        3349.50           6889          66.00       259.81
   62.30        3349.75           6893          61.00       238.01
   62.33        3350.00           6896          67.00       264.17
   62.36        3350.25           6900          60.00       233.65
   62.39        3350.50           6904          62.00       242.37
   62.42        3350.75           6908          68.00       268.53
   62.45        3351.00           6912          57.00       220.58
HL scan finished at 01:03:07
end
