************************************************************
  HL Scan of (1) Internal mercury lamp
************************************************************
Integration time is 0.2294 seconds per sample
dh240817Manchester 53.47 2.23 2.804185pr1000
************************************************************
Dead Time -------------------------  3E-08 
Number of Cycles Used -------------  4 
Starting Wavelength (Angstroms) ---  3331 
Final Wavelength (Angstoms) -------  3351 
Wavelength Increment (Angstroms) --  .25 
Filter Wheel #1 Position ---------- (1) Ground quartz diffuser (ND=2.32)
Filter Wheel #2 Position ---------- 



************************************************************
HL scan start time = 00:57:49
Dark Count =  7.6 


Time (GMT)  Wavelength (Ang)  Step Number  Raw Counts  Counts/Second

   58.34        3331.00           6610          57.00       215.35
   58.56        3331.25           6614          66.00       254.58
   58.59        3331.50           6618          63.00       241.50
   58.62        3331.75           6622          61.00       232.78
   58.65        3332.00           6626          54.00       202.27
   58.68        3332.25           6629          62.00       237.14
   58.71        3332.50           6633          61.00       232.78
   58.74        3332.75           6637          55.00       206.63
   58.77        3333.00           6641          60.00       228.42
   58.80        3333.25           6644          60.00       228.42
   58.84        3333.50           6648          59.00       224.06
   58.87        3333.75           6652          56.00       210.99
   58.90        3334.00           6656          67.00       258.94
   58.93        3334.25           6659          60.00       228.42
   58.96        3334.50           6663          78.00       306.89
   58.99        3334.75           6667          97.00       389.72
   59.02        3335.00           6671         115.00       468.18
   59.05        3335.25           6674         140.00       577.17
   59.08        3335.50           6678         161.00       668.71
   59.11        3335.75           6682         187.00       782.06
   59.14        3336.00           6686         220.00       925.92
   59.17        3336.25           6689         238.00      1004.39
   59.20        3336.50           6693         376.00      1606.01
   59.24        3336.75           6697        1137.00      4924.01
   59.27        3337.00           6701        2606.00     11330.79
   59.30        3337.25           6704        3735.00     16256.40
   59.33        3337.50           6708        5275.00     22977.47
   59.36        3337.75           6712        6877.00     29972.01
   59.39        3338.00           6716        8322.00     36283.59
   59.42        3338.25           6719        9570.00     41736.63
   59.45        3338.50           6723       11168.00     48721.56
   59.48        3338.75           6727       12535.00     54699.11
   59.51        3339.00           6731       14250.00     62201.41
   59.54        3339.25           6734       15322.00     66892.60
   59.58        3339.50           6738       16960.00     74063.25
   59.61        3339.75           6742       18400.00     80369.66
   59.64        3340.00           6746       20158.00     88071.98
   59.67        3340.25           6750       21671.00     94703.74
   59.70        3340.50           6753       22696.00     99197.99
   59.73        3340.75           6757       24161.00    105623.60
   59.76        3341.00           6761       25715.00    112442.30
   59.79        3341.25           6765       26890.00    117599.90
   59.82        3341.50           6768       27457.00    120089.20
   59.85        3341.75           6772       27601.00    120721.50
   59.88        3342.00           6776       27474.00    120163.90
   59.91        3342.25           6780       26692.00    116730.70
   59.95        3342.50           6783       25590.00    111893.70
   59.98        3342.75           6787       24099.00    105351.60
   60.01        3343.00           6791       22601.00     98781.41
   60.04        3343.25           6795       21129.00     92327.74
   60.07        3343.50           6798       20105.00     87839.72
   60.10        3343.75           6802       18441.00     80549.25
   60.13        3344.00           6806       16913.00     73857.45
   60.16        3344.25           6810       15265.00     66643.15
   60.19        3344.50           6814       13742.00     59978.80
   60.23        3344.75           6817       12625.00     55092.73
   60.26        3345.00           6821       11121.00     48516.07
   60.29        3345.25           6825        9574.00     41754.10
   60.32        3345.50           6829        8176.00     35645.77
   60.35        3345.75           6832        6925.00     30181.63
   60.38        3346.00           6836        5399.00     23518.77
   60.41        3346.25           6840        3715.00     16169.13
   60.44        3346.50           6844        2198.00      9551.12
   60.47        3346.75           6847        1132.00      4902.20
   60.50        3347.00           6851         385.00      1645.24
   60.54        3347.25           6855         189.00       790.78
   60.57        3347.50           6859         142.00       585.89
   60.60        3347.75           6863         120.00       489.98
   60.63        3348.00           6866         102.00       411.51
   60.66        3348.25           6870          83.00       328.69
   60.69        3348.50           6874          58.00       219.71
   60.72        3348.75           6878          58.00       219.71
   60.75        3349.00           6881          63.00       241.50
   60.78        3349.25           6885          55.00       206.63
   60.81        3349.50           6889          66.00       254.58
   60.85        3349.75           6893          68.00       263.30
   60.88        3350.00           6896          52.00       193.55
   60.91        3350.25           6900          61.00       232.78
   60.94        3350.50           6904          66.00       254.58
   60.97        3350.75           6908          59.00       224.06
   61.00        3351.00           6912          59.00       224.06
HL scan finished at 01:01:40
end
