************************************************************
  HL Scan of (1) Internal mercury lamp
************************************************************
Integration time is 0.2294 seconds per sample
dh310818Manchester 53.47 2.23 2.804185pr1000
************************************************************
Dead Time -------------------------  3E-08 
Number of Cycles Used -------------  4 
Starting Wavelength (Angstroms) ---  3331 
Final Wavelength (Angstoms) -------  3351 
Wavelength Increment (Angstroms) --  .25 
Filter Wheel #1 Position ---------- (1) Ground quartz diffuser (ND=2.32)
Filter Wheel #2 Position ---------- 



************************************************************
HL scan start time = 00:56:07
Dark Count =  5.1 


Time (GMT)  Wavelength (Ang)  Step Number  Raw Counts  Counts/Second

   56.65        3331.00           6610          45.00       173.93
   56.87        3331.25           6614          49.00       191.37
   56.90        3331.50           6618          58.00       230.60
   56.93        3331.75           6622          42.00       160.86
   56.96        3332.00           6626          49.00       191.37
   56.99        3332.25           6629          44.00       169.57
   57.02        3332.50           6633          50.00       195.73
   57.05        3332.75           6637          43.00       165.21
   57.08        3333.00           6641          41.00       156.50
   57.11        3333.25           6644          43.00       165.21
   57.14        3333.50           6648          51.00       200.09
   57.17        3333.75           6652          49.00       191.37
   57.20        3334.00           6656          41.00       156.50
   57.24        3334.25           6659          47.00       182.65
   57.27        3334.50           6663          64.00       256.76
   57.30        3334.75           6667          78.00       317.79
   57.33        3335.00           6671         104.00       431.13
   57.36        3335.25           6674         115.00       479.08
   57.39        3335.50           6678         145.00       609.86
   57.42        3335.75           6682         151.00       636.02
   57.45        3336.00           6686         168.00       710.13
   57.48        3336.25           6689         226.00       962.97
   57.51        3336.50           6693         383.00      1647.42
   57.54        3336.75           6697        1083.00      4699.44
   57.57        3337.00           6701        2299.00     10002.56
   57.60        3337.25           6704        3258.00     14186.07
   57.64        3337.50           6708        4472.00     19483.49
   57.67        3337.75           6712        5700.00     24843.71
   57.70        3338.00           6716        6830.00     29777.68
   57.73        3338.25           6719        7665.00     33424.52
   57.76        3338.50           6723        8911.00     38867.88
   57.79        3338.75           6727       10158.00     44317.39
   57.82        3339.00           6731       11359.00     49567.55
   57.85        3339.25           6734       12058.00     52624.00
   57.88        3339.50           6738       13393.00     58462.96
   57.91        3339.75           6742       14601.00     63748.22
   57.94        3340.00           6746       15838.00     69162.10
   57.98        3340.25           6750       17015.00     74315.03
   58.01        3340.50           6753       17856.00     77997.91
   58.04        3340.75           6757       19109.00     83486.53
   58.07        3341.00           6761       20169.00     88131.14
   58.10        3341.25           6765       21138.00     92378.16
   58.13        3341.50           6768       21541.00     94144.78
   58.16        3341.75           6772       21622.00     94499.88
   58.19        3342.00           6776       21397.00     93513.50
   58.22        3342.25           6780       20880.00     91247.28
   58.25        3342.50           6783       20048.00     87600.88
   58.28        3342.75           6787       18833.00     82277.38
   58.31        3343.00           6791       17634.00     77025.66
   58.35        3343.25           6795       16417.00     71696.77
   58.38        3343.50           6798       15424.00     67349.98
   58.41        3343.75           6802       14273.00     62312.98
   58.44        3344.00           6806       13099.00     57176.90
   58.47        3344.25           6810       11770.00     51364.62
   58.50        3344.50           6814       10670.00     46555.39
   58.53        3344.75           6817        9640.00     42053.46
   58.56        3345.00           6821        8537.00     37233.81
   58.59        3345.25           6825        7285.00     31764.78
   58.63        3345.50           6829        6100.00     26590.08
   58.66        3345.75           6832        5080.00     22137.19
   58.69        3346.00           6836        3833.00     16694.93
   58.72        3346.25           6840        2678.00     11655.78
   58.75        3346.50           6844        1468.00      6378.29
   58.78        3346.75           6847         753.00      3260.56
   58.81        3347.00           6851         257.00      1098.12
   58.84        3347.25           6855         131.00       548.83
   58.87        3347.50           6859         114.00       474.72
   58.90        3347.75           6863          91.00       374.46
   58.93        3348.00           6866          66.00       265.48
   58.96        3348.25           6870          55.00       217.53
   58.99        3348.50           6874          44.00       169.57
   59.03        3348.75           6878          48.00       187.01
   59.06        3349.00           6881          42.00       160.86
   59.09        3349.25           6885          60.00       239.32
   59.12        3349.50           6889          57.00       226.24
   59.15        3349.75           6893          39.00       147.78
   59.18        3350.00           6896          55.00       217.53
   59.21        3350.25           6900          42.00       160.86
   59.24        3350.50           6904          49.00       191.37
   59.27        3350.75           6908          44.00       169.57
   59.30        3351.00           6912          48.00       187.01
HL scan finished at 00:59:58
end
