************************************************************
  HL Scan of (1) Internal mercury lamp
************************************************************
Integration time is 0.2294 seconds per sample
dh070917Manchester 53.47 2.23 2.804185pr1000
************************************************************
Dead Time -------------------------  3E-08 
Number of Cycles Used -------------  4 
Starting Wavelength (Angstroms) ---  3331 
Final Wavelength (Angstoms) -------  3351 
Wavelength Increment (Angstroms) --  .25 
Filter Wheel #1 Position ---------- (1) Ground quartz diffuser (ND=2.32)
Filter Wheel #2 Position ---------- 



************************************************************
HL scan start time = 00:53:09
Dark Count =  6.1 


Time (GMT)  Wavelength (Ang)  Step Number  Raw Counts  Counts/Second

   53.67        3331.00           6610          55.00       213.17
   53.90        3331.25           6614          59.00       230.60
   53.93        3331.50           6618          63.00       248.04
   53.96        3331.75           6622          62.00       243.68
   53.99        3332.00           6626          62.00       243.68
   54.02        3332.25           6629          61.00       239.32
   54.05        3332.50           6633          58.00       226.24
   54.08        3332.75           6637          57.00       221.88
   54.11        3333.00           6641          60.00       234.96
   54.14        3333.25           6644          60.00       234.96
   54.18        3333.50           6648          66.00       261.12
   54.21        3333.75           6652          59.00       230.60
   54.24        3334.00           6656          55.00       213.17
   54.27        3334.25           6659          67.00       265.48
   54.30        3334.50           6663          87.00       352.66
   54.33        3334.75           6667         109.00       448.57
   54.36        3335.00           6671         122.00       505.24
   54.39        3335.25           6674         148.00       618.58
   54.42        3335.50           6678         199.00       840.91
   54.45        3335.75           6682         196.00       827.83
   54.48        3336.00           6686         242.00      1028.37
   54.51        3336.25           6689         314.00      1342.25
   54.54        3336.50           6693         835.00      3613.73
   54.58        3336.75           6697        2176.00      9461.71
   54.61        3337.00           6701        3718.00     16188.77
   54.64        3337.25           6704        4893.00     21316.59
   54.67        3337.50           6708        6477.00     28231.84
   54.70        3337.75           6712        7905.00     34468.49
   54.73        3338.00           6716        9489.00     41389.20
   54.76        3338.25           6719       10672.00     46559.76
   54.79        3338.50           6723       12243.00     53428.65
   54.82        3338.75           6727       13603.00     59377.26
   54.85        3339.00           6731       15399.00     67236.19
   54.89        3339.25           6734       16601.00     72497.96
   54.92        3339.50           6738       18270.00     79806.81
   54.95        3339.75           6742       19603.00     85646.54
   54.98        3340.00           6746       21398.00     93513.50
   55.01        3340.25           6750       22846.00     99862.38
   55.04        3340.50           6753       23902.00    104494.00
   55.07        3340.75           6757       25208.00    110224.00
   55.10        3341.00           6761       26537.00    116056.80
   55.13        3341.25           6765       27274.00    119292.40
   55.16        3341.50           6768       27483.00    120210.00
   55.19        3341.75           6772       27381.00    119762.10
   55.22        3342.00           6776       26733.00    116917.20
   55.26        3342.25           6780       25203.00    110202.00
   55.29        3342.50           6783       24428.00    106801.60
   55.32        3342.75           6787       22847.00     99866.76
   55.35        3343.00           6791       21305.00     93105.83
   55.38        3343.25           6795       19785.00     86444.03
   55.41        3343.50           6798       18603.00     81265.46
   55.44        3343.75           6802       17161.00     74949.95
   55.47        3344.00           6806       15650.00     68334.81
   55.50        3344.25           6810       14080.00     61464.15
   55.53        3344.50           6814       12631.00     55125.53
   55.57        3344.75           6817       11390.00     49698.72
   55.60        3345.00           6821        9826.00     42861.98
   55.63        3345.25           6825        8346.00     36394.99
   55.66        3345.50           6829        6712.00     29258.01
   55.69        3345.75           6832        5578.00     24306.73
   55.72        3346.00           6836        4051.00     17641.85
   55.75        3346.25           6840        2474.00     10761.54
   55.78        3346.50           6844        1110.00      4812.81
   55.82        3346.75           6847         488.00      2100.83
   55.85        3347.00           6851         233.00       989.13
   55.88        3347.25           6855         164.00       688.33
   55.91        3347.50           6859         133.00       553.19
   55.94        3347.75           6863         114.00       470.36
   55.97        3348.00           6866          90.00       365.74
   56.00        3348.25           6870          69.00       274.20
   56.03        3348.50           6874          66.00       261.12
   56.06        3348.75           6878          61.00       239.32
   56.09        3349.00           6881          65.00       256.76
   56.12        3349.25           6885          67.00       265.48
   56.15        3349.50           6889          66.00       261.12
   56.19        3349.75           6893          60.00       234.96
   56.22        3350.00           6896          63.00       248.04
   56.25        3350.25           6900          56.00       217.53
   56.28        3350.50           6904          65.00       256.76
   56.31        3350.75           6908          62.00       243.68
   56.34        3351.00           6912          63.00       248.04
HL scan finished at 00:57:00
end
