************************************************************
  HL Scan of (1) Internal mercury lamp
************************************************************
Integration time is 0.2294 seconds per sample
dh070918Manchester 53.47 2.23 2.804185pr1000
************************************************************
Dead Time -------------------------  3E-08 
Number of Cycles Used -------------  4 
Starting Wavelength (Angstroms) ---  3331 
Final Wavelength (Angstoms) -------  3351 
Wavelength Increment (Angstroms) --  .25 
Filter Wheel #1 Position ---------- (1) Ground quartz diffuser (ND=2.32)
Filter Wheel #2 Position ---------- 



************************************************************
HL scan start time = 00:54:03
Dark Count =  5.4 


Time (GMT)  Wavelength (Ang)  Step Number  Raw Counts  Counts/Second

   54.57        3331.00           6610          45.00       172.63
   54.79        3331.25           6614          45.00       172.63
   54.82        3331.50           6618          59.00       233.65
   54.86        3331.75           6622          44.00       168.27
   54.89        3332.00           6626          48.00       185.70
   54.92        3332.25           6629          46.00       176.98
   54.95        3332.50           6633          42.00       159.55
   54.98        3332.75           6637          46.00       176.98
   55.01        3333.00           6641          46.00       176.98
   55.04        3333.25           6644          43.00       163.91
   55.07        3333.50           6648          48.00       185.70
   55.10        3333.75           6652          46.00       176.98
   55.13        3334.00           6656          42.00       159.55
   55.16        3334.25           6659          49.00       190.06
   55.19        3334.50           6663          64.00       255.45
   55.22        3334.75           6667          79.00       320.84
   55.26        3335.00           6671          97.00       399.31
   55.29        3335.25           6674         110.00       455.98
   55.32        3335.50           6678         129.00       538.81
   55.35        3335.75           6682         139.00       582.40
   55.38        3336.00           6686         167.00       704.46
   55.41        3336.25           6689         198.00       839.60
   55.44        3336.50           6693         346.00      1484.81
   55.47        3336.75           6697        1047.00      4541.16
   55.50        3337.00           6701        2143.00      9320.83
   55.53        3337.25           6704        3072.00     13373.28
   55.56        3337.50           6708        4282.00     18652.98
   55.59        3337.75           6712        5472.00     23847.05
   55.63        3338.00           6716        6643.00     28959.76
   55.66        3338.25           6719        7484.00     32632.63
   55.69        3338.50           6723        8725.00     38053.88
   55.72        3338.75           6727        9818.00     42830.07
   55.75        3339.00           6731       11134.00     48582.53
   55.78        3339.25           6734       11919.00     52014.84
   55.81        3339.50           6738       13101.00     57184.33
   55.84        3339.75           6742       14326.00     62543.57
   55.87        3340.00           6746       15792.00     68959.43
   55.90        3340.25           6750       16903.00     73823.30
   55.94        3340.50           6753       17787.00     77694.40
   55.97        3340.75           6757       19007.00     83038.34
   56.00        3341.00           6761       19994.00     87362.93
   56.03        3341.25           6765       21048.00     91982.33
   56.06        3341.50           6768       21373.00     93406.99
   56.09        3341.75           6772       21400.00     93525.34
   56.12        3342.00           6776       21428.00     93648.08
   56.15        3342.25           6780       20749.00     90671.77
   56.18        3342.50           6783       19860.00     86775.74
   56.21        3342.75           6787       18603.00     81268.52
   56.24        3343.00           6791       17290.00     75517.88
   56.27        3343.25           6795       16196.00     70727.95
   56.30        3343.50           6798       15066.00     65781.82
   56.33        3343.75           6802       14000.00     61117.19
   56.37        3344.00           6806       12798.00     55859.01
   56.40        3344.25           6810       11500.00     50182.73
   56.43        3344.50           6814       10404.00     45391.33
   56.46        3344.75           6817        9440.00     41178.13
   56.49        3345.00           6821        8255.00     36000.50
   56.52        3345.25           6825        7074.00     30841.95
   56.55        3345.50           6829        5863.00     25554.02
   56.58        3345.75           6832        4945.00     21546.62
   56.61        3346.00           6836        3700.00     16113.28
   56.65        3346.25           6840        2572.00     11192.08
   56.68        3346.50           6844        1454.00      6315.93
   56.71        3346.75           6847         703.00      3041.25
   56.74        3347.00           6851         244.00      1040.14
   56.77        3347.25           6855         138.00       578.04
   56.80        3347.50           6859         101.00       416.74
   56.83        3347.75           6863          80.00       325.20
   56.86        3348.00           6866          65.00       259.81
   56.89        3348.25           6870          58.00       229.30
   56.92        3348.50           6874          50.00       194.42
   56.95        3348.75           6878          52.00       203.14
   56.98        3349.00           6881          45.00       172.63
   57.01        3349.25           6885          46.00       176.98
   57.04        3349.50           6889          48.00       185.70
   57.08        3349.75           6893          52.00       203.14
   57.11        3350.00           6896          49.00       190.06
   57.14        3350.25           6900          45.00       172.63
   57.17        3350.50           6904          53.00       207.50
   57.20        3350.75           6908          46.00       176.98
   57.23        3351.00           6912          36.00       133.39
HL scan finished at 00:57:53
end
