************************************************************
  HL Scan of (1) Internal mercury lamp
************************************************************
Integration time is 0.2294 seconds per sample
dh140918Manchester 53.47 2.23 2.804185pr1000
************************************************************
Dead Time -------------------------  3E-08 
Number of Cycles Used -------------  4 
Starting Wavelength (Angstroms) ---  3331 
Final Wavelength (Angstoms) -------  3351 
Wavelength Increment (Angstroms) --  .25 
Filter Wheel #1 Position ---------- (1) Ground quartz diffuser (ND=2.32)
Filter Wheel #2 Position ---------- 



************************************************************
HL scan start time = 00:51:11
Dark Count =  6.6 


Time (GMT)  Wavelength (Ang)  Step Number  Raw Counts  Counts/Second

   51.70        3331.00           6610          32.00       110.72
   51.93        3331.25           6614          44.00       163.03
   51.96        3331.50           6618          50.00       189.19
   51.99        3331.75           6622          47.00       176.11
   52.02        3332.00           6626          50.00       189.19
   52.05        3332.25           6629          39.00       141.24
   52.08        3332.50           6633          46.00       171.75
   52.11        3332.75           6637          48.00       180.47
   52.14        3333.00           6641          46.00       171.75
   52.17        3333.25           6644          46.00       171.75
   52.20        3333.50           6648          49.00       184.83
   52.23        3333.75           6652          43.00       158.68
   52.26        3334.00           6656          48.00       180.47
   52.29        3334.25           6659          42.00       154.32
   52.32        3334.50           6663          64.00       250.22
   52.36        3334.75           6667          82.00       328.69
   52.39        3335.00           6671          88.00       354.84
   52.42        3335.25           6674         107.00       437.67
   52.45        3335.50           6678         125.00       516.14
   52.48        3335.75           6682         153.00       638.20
   52.51        3336.00           6686         171.00       716.67
   52.54        3336.25           6689         212.00       895.40
   52.57        3336.50           6693         444.00      1906.82
   52.60        3336.75           6697        1312.00      5691.47
   52.63        3337.00           6701        2486.00     10811.70
   52.66        3337.25           6704        3372.00     14676.90
   52.70        3337.50           6708        4431.00     19298.01
   52.73        3337.75           6712        5651.00     24623.24
   52.76        3338.00           6716        6721.00     29295.14
   52.79        3338.25           6719        7741.00     33749.94
   52.82        3338.50           6723        8883.00     38738.99
   52.85        3338.75           6727        9990.00     43576.56
   52.88        3339.00           6731       11296.00     49285.55
   52.91        3339.25           6734       12188.00     53185.93
   52.94        3339.50           6738       13316.00     58119.56
   52.97        3339.75           6742       14457.00     63111.54
   53.00        3340.00           6746       15690.00     68507.71
   53.03        3340.25           6750       16868.00     73664.80
   53.07        3340.50           6753       17676.00     77203.02
   53.10        3340.75           6757       18824.00     82231.38
   53.13        3341.00           6761       19813.00     86564.53
   53.16        3341.25           6765       20798.00     90881.27
   53.19        3341.50           6768       21054.00     92003.38
   53.22        3341.75           6772       21153.00     92437.33
   53.25        3342.00           6776       21013.00     91823.66
   53.28        3342.25           6780       20181.00     88177.16
   53.31        3342.50           6783       19432.00     84895.11
   53.34        3342.75           6787       18258.00     79752.05
   53.38        3343.00           6791       16907.00     73835.56
   53.41        3343.25           6795       15839.00     69159.91
   53.44        3343.50           6798       14899.00     65045.73
   53.47        3343.75           6802       13813.00     60293.80
   53.50        3344.00           6806       12667.00     55280.80
   53.53        3344.25           6810       11436.00     49897.66
   53.56        3344.50           6814       10215.00     44559.97
   53.59        3344.75           6817        9382.00     40919.43
   53.62        3345.00           6821        8185.00     35689.46
   53.65        3345.25           6825        6993.00     30482.97
   53.68        3345.50           6829        5930.00     25841.30
   53.71        3345.75           6832        4857.00     21157.28
   53.75        3346.00           6836        3603.00     15684.80
   53.78        3346.25           6840        2439.00     10606.69
   53.81        3346.50           6844        1326.00      5752.52
   53.84        3346.75           6847         676.00      2918.30
   53.87        3347.00           6851         229.00       969.51
   53.90        3347.25           6855         140.00       581.53
   53.93        3347.50           6859         115.00       472.54
   53.96        3347.75           6863          86.00       346.12
   53.99        3348.00           6866          62.00       241.50
   54.02        3348.25           6870          57.00       219.71
   54.05        3348.50           6874          58.00       224.06
   54.08        3348.75           6878          41.00       149.96
   54.11        3349.00           6881          46.00       171.75
   54.15        3349.25           6885          49.00       184.83
   54.18        3349.50           6889          46.00       171.75
   54.21        3349.75           6893          37.00       132.52
   54.24        3350.00           6896          49.00       184.83
   54.27        3350.25           6900          50.00       189.19
   54.30        3350.50           6904          45.00       167.39
   54.33        3350.75           6908          49.00       184.83
   54.36        3351.00           6912          52.00       197.91
HL scan finished at 00:55:01
end
