************************************************************
  HL Scan of (1) Internal mercury lamp
************************************************************
Integration time is 0.2294 seconds per sample
dh210917Manchester 53.47 2.23 2.804185pr1000
************************************************************
Dead Time -------------------------  3E-08 
Number of Cycles Used -------------  4 
Starting Wavelength (Angstroms) ---  3331 
Final Wavelength (Angstoms) -------  3351 
Wavelength Increment (Angstroms) --  .25 
Filter Wheel #1 Position ---------- (1) Ground quartz diffuser (ND=2.32)
Filter Wheel #2 Position ---------- 



************************************************************
HL scan start time = 00:48:48
Dark Count =  5 


Time (GMT)  Wavelength (Ang)  Step Number  Raw Counts  Counts/Second

   49.32        3331.00           6610          58.00       231.04
   49.55        3331.25           6614          54.00       213.60
   49.58        3331.50           6618          57.00       226.68
   49.61        3331.75           6622          57.00       226.68
   49.64        3332.00           6626          65.00       261.55
   49.67        3332.25           6629          46.00       178.73
   49.70        3332.50           6633          70.00       283.35
   49.73        3332.75           6637          63.00       252.84
   49.76        3333.00           6641          59.00       235.40
   49.79        3333.25           6644          60.00       239.76
   49.82        3333.50           6648          55.00       217.96
   49.85        3333.75           6652          60.00       239.76
   49.88        3334.00           6656          54.00       213.60
   49.91        3334.25           6659          56.00       222.32
   49.95        3334.50           6663          74.00       300.79
   49.98        3334.75           6667          91.00       374.90
   50.01        3335.00           6671         117.00       488.24
   50.04        3335.25           6674         138.00       579.78
   50.07        3335.50           6678         159.00       671.33
   50.10        3335.75           6682         170.00       719.28
   50.13        3336.00           6686         208.00       884.94
   50.16        3336.25           6689         250.00      1068.04
   50.19        3336.50           6693         374.00      1608.62
   50.22        3336.75           6697        1111.00      4821.97
   50.26        3337.00           6701        2529.00     11006.25
   50.29        3337.25           6704        3610.00     15722.32
   50.32        3337.50           6708        5110.00     22268.58
   50.35        3337.75           6712        6750.00     29428.76
   50.38        3338.00           6716        8264.00     36041.57
   50.41        3338.25           6719        9407.00     41035.67
   50.44        3338.50           6723       10930.00     47692.43
   50.47        3338.75           6727       12368.00     53980.12
   50.50        3339.00           6731       13920.00     60768.93
   50.53        3339.25           6734       15145.00     66129.33
   50.57        3339.50           6738       16544.00     72253.22
   50.60        3339.75           6742       18242.00     79688.98
   50.63        3340.00           6746       19680.00     85988.76
   50.66        3340.25           6750       21136.00     92369.82
   50.69        3340.50           6753       22490.00     98306.06
   50.72        3340.75           6757       24065.00    105213.90
   50.75        3341.00           6761       25344.00    110825.60
   50.78        3341.25           6765       26856.00    117462.00
   50.81        3341.50           6768       27245.00    119169.90
   50.84        3341.75           6772       27553.00    120522.20
   50.87        3342.00           6776       27392.00    119815.30
   50.91        3342.25           6780       26757.00    117027.40
   50.94        3342.50           6783       25890.00    113221.80
   50.97        3342.75           6787       24610.00    107604.90
   51.00        3343.00           6791       22967.00    100397.80
   51.03        3343.25           6795       21430.00     93658.61
   51.06        3343.50           6798       20271.00     88578.58
   51.09        3343.75           6802       18851.00     82356.68
   51.12        3344.00           6806       17282.00     75484.61
   51.15        3344.25           6810       15628.00     68243.33
   51.19        3344.50           6814       14148.00     61766.48
   51.22        3344.75           6817       13067.00     57037.36
   51.25        3345.00           6821       11443.00     49935.26
   51.28        3345.25           6825       10104.00     44081.80
   51.31        3345.50           6829        8498.00     37063.86
   51.34        3345.75           6832        7332.00     31970.49
   51.37        3346.00           6836        5848.00     25490.28
   51.40        3346.25           6840        4225.00     18405.98
   51.43        3346.50           6844        2556.00     11124.03
   51.46        3346.75           6847        1460.00      6343.84
   51.49        3347.00           6851         490.00      2114.35
   51.52        3347.25           6855         236.00      1007.01
   51.56        3347.50           6859         142.00       597.22
   51.59        3347.75           6863         142.00       597.22
   51.62        3348.00           6866         108.00       449.00
   51.65        3348.25           6870          76.00       309.51
   51.68        3348.50           6874          63.00       252.84
   51.71        3348.75           6878          58.00       231.04
   51.74        3349.00           6881          62.00       248.48
   51.77        3349.25           6885          55.00       217.96
   51.80        3349.50           6889          60.00       239.76
   51.83        3349.75           6893          62.00       248.48
   51.86        3350.00           6896          67.00       270.27
   51.89        3350.25           6900          57.00       226.68
   51.93        3350.50           6904          62.00       248.48
   51.96        3350.75           6908          68.00       274.63
   51.99        3351.00           6912          64.00       257.19
HL scan finished at 00:52:39
end
