************************************************************
  HL Scan of (1) Internal mercury lamp
************************************************************
Integration time is 0.2294 seconds per sample
dh250918Manchester 53.47 2.23 2.857833pr1000
************************************************************
Dead Time -------------------------  3E-08 
Number of Cycles Used -------------  4 
Starting Wavelength (Angstroms) ---  3331 
Final Wavelength (Angstoms) -------  3351 
Wavelength Increment (Angstroms) --  .25 
Filter Wheel #1 Position ---------- (1) Ground quartz diffuser (ND=2.32)
Filter Wheel #2 Position ---------- 



************************************************************
HL scan start time = 11:24:50
Dark Count =  4.7 


Time (GMT)  Wavelength (Ang)  Step Number  Raw Counts  Counts/Second

  685.36        3331.00           6610          59.00       236.71
  685.58        3331.25           6614          53.00       210.55
  685.61        3331.50           6618          60.00       241.07
  685.65        3331.75           6622          56.00       223.63
  685.68        3332.00           6626          59.00       236.71
  685.71        3332.25           6629          58.00       232.35
  685.74        3332.50           6633          59.00       236.71
  685.77        3332.75           6637          60.00       241.07
  685.80        3333.00           6641          60.00       241.07
  685.83        3333.25           6644          62.00       249.78
  685.86        3333.50           6648          56.00       223.63
  685.89        3333.75           6652          51.00       201.83
  685.92        3334.00           6656          67.00       271.58
  685.95        3334.25           6659          64.00       258.50
  685.99        3334.50           6663          91.00       376.20
  686.02        3334.75           6667          81.00       332.61
  686.05        3335.00           6671         113.00       472.11
  686.08        3335.25           6674         130.00       546.22
  686.11        3335.50           6678         154.00       650.84
  686.14        3335.75           6682         156.00       659.56
  686.17        3336.00           6686         176.00       746.75
  686.20        3336.25           6689         229.00       977.80
  686.23        3336.50           6693         444.00      1915.11
  686.26        3336.75           6697        1256.00      5455.56
  686.29        3337.00           6701        2245.00      9768.77
  686.33        3337.25           6704        2913.00     12682.68
  686.36        3337.50           6708        3909.00     17028.31
  686.39        3337.75           6712        4944.00     21545.31
  686.42        3338.00           6716        6070.00     26460.84
  686.45        3338.25           6719        6756.00     29456.27
  686.48        3338.50           6723        7705.00     33600.99
  686.51        3338.75           6727        8679.00     37855.96
  686.54        3339.00           6731        9798.00     42745.71
  686.57        3339.25           6734       10514.00     45875.21
  686.61        3339.50           6738       11572.00     50500.61
  686.64        3339.75           6742       12566.00     54847.37
  686.67        3340.00           6746       13715.00     59873.36
  686.70        3340.25           6750       14603.00     63758.72
  686.73        3340.50           6753       15358.00     67062.86
  686.76        3340.75           6757       16331.00     71322.02
  686.79        3341.00           6761       17191.00     75087.45
  686.82        3341.25           6765       18117.00     79142.80
  686.85        3341.50           6768       18146.00     79269.81
  686.89        3341.75           6772       18328.00     80067.00
  686.92        3342.00           6776       18099.00     79063.96
  686.95        3342.25           6780       17411.00     76050.83
  686.98        3342.50           6783       16537.00     72223.88
  687.01        3342.75           6787       15641.00     68301.53
  687.04        3343.00           6791       14753.00     64415.12
  687.07        3343.25           6795       13728.00     59930.24
  687.10        3343.50           6798       12913.00     56365.07
  687.13        3343.75           6802       12033.00     52516.42
  687.17        3344.00           6806       10784.00     47055.48
  687.20        3344.25           6810        9847.00     42959.87
  687.23        3344.50           6814        8890.00     38777.86
  687.26        3344.75           6817        8062.00     35160.43
  687.29        3345.00           6821        7084.00     30888.68
  687.32        3345.25           6825        5990.00     26111.56
  687.35        3345.50           6829        4882.00     21274.69
  687.38        3345.75           6832        4140.00     18036.35
  687.41        3346.00           6836        3041.00     13241.09
  687.44        3346.25           6840        2047.00      8905.17
  687.48        3346.50           6844        1050.00      4557.29
  687.51        3346.75           6847         459.00      1980.50
  687.54        3347.00           6851         191.00       812.14
  687.57        3347.25           6855         123.00       515.70
  687.60        3347.50           6859         111.00       463.39
  687.63        3347.75           6863          89.00       367.48
  687.66        3348.00           6866          80.00       328.25
  687.69        3348.25           6870          63.00       254.14
  687.72        3348.50           6874          65.00       262.86
  687.75        3348.75           6878          64.00       258.50
  687.79        3349.00           6881          58.00       232.35
  687.82        3349.25           6885          61.00       245.42
  687.85        3349.50           6889          65.00       262.86
  687.88        3349.75           6893          62.00       249.78
  687.91        3350.00           6896          62.00       249.78
  687.94        3350.25           6900          66.00       267.22
  687.97        3350.50           6904          61.00       245.42
  688.00        3350.75           6908          72.00       293.38
  688.03        3351.00           6912          62.00       249.78
HL scan finished at 11:28:41
end
