************************************************************
  HL Scan of (1) Internal mercury lamp
************************************************************
Integration time is 0.2294 seconds per sample
dh280918Manchester 53.47 2.23 2.804185pr1000
************************************************************
Dead Time -------------------------  3E-08 
Number of Cycles Used -------------  4 
Starting Wavelength (Angstroms) ---  3331 
Final Wavelength (Angstoms) -------  3351 
Wavelength Increment (Angstroms) --  .25 
Filter Wheel #1 Position ---------- (1) Ground quartz diffuser (ND=2.32)
Filter Wheel #2 Position ---------- 



************************************************************
HL scan start time = 00:46:04
Dark Count =  7 


Time (GMT)  Wavelength (Ang)  Step Number  Raw Counts  Counts/Second

   46.60        3331.00           6610          50.00       187.45
   46.82        3331.25           6614          41.00       148.21
   46.85        3331.50           6618          50.00       187.45
   46.88        3331.75           6622          45.00       165.65
   46.91        3332.00           6626          46.00       170.01
   46.94        3332.25           6629          48.00       178.73
   46.97        3332.50           6633          36.00       126.42
   47.00        3332.75           6637          46.00       170.01
   47.03        3333.00           6641          42.00       152.57
   47.07        3333.25           6644          35.00       122.06
   47.10        3333.50           6648          41.00       148.21
   47.13        3333.75           6652          44.00       161.29
   47.16        3334.00           6656          44.00       161.29
   47.19        3334.25           6659          54.00       204.88
   47.22        3334.50           6663          65.00       252.84
   47.25        3334.75           6667          71.00       278.99
   47.28        3335.00           6671          88.00       353.10
   47.31        3335.25           6674         112.00       457.72
   47.34        3335.50           6678         132.00       544.91
   47.37        3335.75           6682         140.00       579.78
   47.40        3336.00           6686         175.00       732.36
   47.44        3336.25           6689         208.00       876.22
   47.47        3336.50           6693         464.00      1992.27
   47.50        3336.75           6697        1341.00      5816.18
   47.53        3337.00           6701        2511.00     10919.01
   47.56        3337.25           6704        3397.00     14784.24
   47.59        3337.50           6708        4455.00     19401.00
   47.62        3337.75           6712        5563.00     24237.32
   47.65        3338.00           6716        6575.00     28655.84
   47.68        3338.25           6719        7476.00     32590.70
   47.71        3338.50           6723        8578.00     37404.63
   47.75        3338.75           6727        9788.00     42691.96
   47.78        3339.00           6731       10949.00     47766.75
   47.81        3339.25           6734       11765.00     51334.45
   47.84        3339.50           6738       12833.00     56005.10
   47.87        3339.75           6742       14015.00     61175.82
   47.90        3340.00           6746       14990.00     65442.22
   47.93        3340.25           6750       16281.00     71093.05
   47.96        3340.50           6753       16853.00     73597.37
   47.99        3340.75           6757       18019.00     78703.49
   48.02        3341.00           6761       18961.00     82829.81
   48.05        3341.25           6765       19897.00     86930.85
   48.08        3341.50           6768       20157.00     88070.22
   48.12        3341.75           6772       20236.00     88416.43
   48.15        3342.00           6776       19962.00     87215.69
   48.18        3342.25           6780       19334.00     84463.97
   48.21        3342.50           6783       18511.00     80858.50
   48.24        3342.75           6787       17342.00     75738.60
   48.27        3343.00           6791       16199.00     70734.08
   48.30        3343.25           6795       15097.00     65910.50
   48.33        3343.50           6798       14193.00     61954.63
   48.36        3343.75           6802       13098.00     57164.21
   48.39        3344.00           6806       11817.00     51561.83
   48.43        3344.25           6810       10651.00     46464.03
   48.46        3344.50           6814        9659.00     42128.19
   48.49        3344.75           6817        8860.00     38636.74
   48.52        3345.00           6821        7642.00     33315.76
   48.55        3345.25           6825        6574.00     28651.47
   48.58        3345.50           6829        5472.00     23840.06
   48.61        3345.75           6832        4685.00     20404.82
   48.64        3346.00           6836        3423.00     14897.68
   48.67        3346.25           6840        2248.00      9771.83
   48.70        3346.50           6844        1203.00      5214.42
   48.74        3346.75           6847         567.00      2441.33
   48.77        3347.00           6851         218.00       919.82
   48.80        3347.25           6855         119.00       488.24
   48.83        3347.50           6859         105.00       427.21
   48.86        3347.75           6863          80.00       318.22
   48.89        3348.00           6866          67.00       261.55
   48.92        3348.25           6870          43.00       156.93
   48.95        3348.50           6874          42.00       152.57
   48.98        3348.75           6878          59.00       226.68
   49.01        3349.00           6881          47.00       174.37
   49.04        3349.25           6885          53.00       200.52
   49.07        3349.50           6889          55.00       209.24
   49.11        3349.75           6893          46.00       170.01
   49.14        3350.00           6896          40.00       143.85
   49.17        3350.25           6900          39.00       139.49
   49.20        3350.50           6904          43.00       156.93
   49.23        3350.75           6908          41.00       148.21
   49.26        3351.00           6912          36.00       126.42
HL scan finished at 00:49:55
end
