************************************************************
  HL Scan of (1) Internal mercury lamp
************************************************************
Integration time is 0.2294 seconds per sample
dh280917Manchester 53.47 2.23 2.804185pr1000
************************************************************
Dead Time -------------------------  3E-08 
Number of Cycles Used -------------  4 
Starting Wavelength (Angstroms) ---  3331 
Final Wavelength (Angstoms) -------  3351 
Wavelength Increment (Angstroms) --  .25 
Filter Wheel #1 Position ---------- (1) Ground quartz diffuser (ND=2.32)
Filter Wheel #2 Position ---------- 



************************************************************
HL scan start time = 00:46:11
Dark Count =  5.1 


Time (GMT)  Wavelength (Ang)  Step Number  Raw Counts  Counts/Second

   46.71        3331.00           6610          53.00       208.81
   46.94        3331.25           6614          62.00       248.04
   46.97        3331.50           6618          58.00       230.60
   47.00        3331.75           6622          57.00       226.24
   47.03        3332.00           6626          62.00       248.04
   47.06        3332.25           6629          61.00       243.68
   47.09        3332.50           6633          53.00       208.81
   47.12        3332.75           6637          60.00       239.32
   47.15        3333.00           6641          54.00       213.17
   47.18        3333.25           6644          53.00       208.81
   47.21        3333.50           6648          66.00       265.48
   47.24        3333.75           6652          54.00       213.17
   47.27        3334.00           6656          58.00       230.60
   47.30        3334.25           6659          69.00       278.56
   47.34        3334.50           6663          70.00       282.91
   47.37        3334.75           6667         104.00       431.13
   47.40        3335.00           6671         110.00       457.29
   47.43        3335.25           6674         144.00       605.50
   47.46        3335.50           6678         154.00       649.10
   47.49        3335.75           6682         181.00       766.80
   47.52        3336.00           6686         220.00       936.82
   47.55        3336.25           6689         255.00      1089.40
   47.59        3336.50           6693         453.00      1952.60
   47.62        3336.75           6697        1360.00      5907.32
   47.65        3337.00           6701        2828.00     12310.13
   47.68        3337.25           6704        3957.00     17236.02
   47.71        3337.50           6708        5469.00     23835.26
   47.74        3337.75           6712        7051.00     30742.81
   47.77        3338.00           6716        8586.00     37447.89
   47.80        3338.25           6719        9768.00     42612.86
   47.83        3338.50           6723       11334.00     49458.25
   47.86        3338.75           6727       12883.00     56232.10
   47.89        3339.00           6731       14441.00     63048.09
   47.92        3339.25           6734       15442.00     67428.77
   47.95        3339.50           6738       17018.00     74328.16
   47.99        3339.75           6742       18696.00     81677.23
   48.02        3340.00           6746       20387.00     89086.52
   48.05        3340.25           6750       21676.00     94736.62
   48.08        3340.50           6753       22770.00     99533.48
   48.11        3340.75           6757       24352.00    106472.50
   48.14        3341.00           6761       25694.00    112361.10
   48.17        3341.25           6765       26809.00    117255.20
   48.20        3341.50           6768       27254.00    119208.90
   48.23        3341.75           6772       27331.00    119547.00
   48.26        3342.00           6776       27258.00    119226.50
   48.29        3342.25           6780       26357.00    115271.10
   48.33        3342.50           6783       25206.00    110219.60
   48.36        3342.75           6787       23656.00    103419.30
   48.39        3343.00           6791       22144.00     96788.49
   48.42        3343.25           6795       20607.00     90050.72
   48.45        3343.50           6798       19631.00     85773.61
   48.48        3343.75           6802       18018.00     78707.43
   48.51        3344.00           6806       16370.00     71491.01
   48.54        3344.25           6810       14936.00     65214.22
   48.57        3344.50           6814       13305.00     58078.01
   48.60        3344.75           6817       12256.00     53489.87
   48.64        3345.00           6821       10743.00     46874.51
   48.67        3345.25           6825        9228.00     40253.03
   48.70        3345.50           6829        7576.00     33035.78
   48.73        3345.75           6832        6401.00     27904.35
   48.76        3346.00           6836        4810.00     20958.68
   48.79        3346.25           6840        3377.00     14705.27
   48.82        3346.50           6844        1905.00      8284.10
   48.85        3346.75           6847         965.00      4184.92
   48.88        3347.00           6851         324.00      1390.21
   48.92        3347.25           6855         180.00       762.44
   48.95        3347.50           6859         136.00       570.63
   48.98        3347.75           6863         130.00       544.47
   49.01        3348.00           6866          99.00       409.33
   49.04        3348.25           6870          83.00       339.59
   49.07        3348.50           6874          66.00       265.48
   49.10        3348.75           6878          67.00       269.84
   49.13        3349.00           6881          56.00       221.88
   49.16        3349.25           6885          53.00       208.81
   49.19        3349.50           6889          67.00       269.84
   49.22        3349.75           6893          58.00       230.60
   49.25        3350.00           6896          62.00       248.04
   49.28        3350.25           6900          60.00       239.32
   49.32        3350.50           6904          57.00       226.24
   49.35        3350.75           6908          63.00       252.40
   49.38        3351.00           6912          52.00       204.45
HL scan finished at 00:50:02
end
