************************************************************
  HL Scan of (1) Internal mercury lamp
************************************************************
Integration time is 0.2294 seconds per sample
dh121017Manchester 53.47 2.23 2.804185pr1000
************************************************************
Dead Time -------------------------  3E-08 
Number of Cycles Used -------------  4 
Starting Wavelength (Angstroms) ---  3331 
Final Wavelength (Angstoms) -------  3351 
Wavelength Increment (Angstroms) --  .25 
Filter Wheel #1 Position ---------- (1) Ground quartz diffuser (ND=2.32)
Filter Wheel #2 Position ---------- 



************************************************************
HL scan start time = 00:37:33
Dark Count =  4.4 


Time (GMT)  Wavelength (Ang)  Step Number  Raw Counts  Counts/Second

   38.08        3331.00           6610          55.00       220.58
   38.30        3331.25           6614          57.00       229.30
   38.33        3331.50           6618          59.00       238.01
   38.36        3331.75           6622          53.00       211.86
   38.40        3332.00           6626          57.00       229.30
   38.43        3332.25           6629          60.00       242.37
   38.46        3332.50           6633          57.00       229.30
   38.49        3332.75           6637          58.00       233.65
   38.52        3333.00           6641          60.00       242.37
   38.55        3333.25           6644          56.00       224.94
   38.58        3333.50           6648          59.00       238.01
   38.61        3333.75           6652          62.00       251.09
   38.64        3334.00           6656          54.00       216.22
   38.67        3334.25           6659          65.00       264.17
   38.71        3334.50           6663          79.00       325.20
   38.74        3334.75           6667         106.00       442.90
   38.77        3335.00           6671         120.00       503.93
   38.80        3335.25           6674         157.00       665.23
   38.83        3335.50           6678         181.00       769.85
   38.86        3335.75           6682         187.00       796.01
   38.89        3336.00           6686         220.00       939.87
   38.92        3336.25           6689         287.00      1231.96
   38.95        3336.50           6693         679.00      2940.97
   38.98        3336.75           6697        1818.00      7907.72
   39.02        3337.00           6701        3429.00     14935.20
   39.05        3337.25           6704        4583.00     19970.99
   39.08        3337.50           6708        6085.00     26527.64
   39.11        3337.75           6712        7668.00     33440.68
   39.14        3338.00           6716        9150.00     39915.25
   39.17        3338.25           6719       10241.00     44683.22
   39.20        3338.50           6723       11708.00     51096.58
   39.23        3338.75           6727       13479.00     58842.23
   39.26        3339.00           6731       15051.00     65720.56
   39.29        3339.25           6734       16382.00     71546.61
   39.32        3339.50           6738       17799.00     77751.33
   39.36        3339.75           6742       19365.00     84611.19
   39.39        3340.00           6746       20895.00     91316.08
   39.42        3340.25           6750       22280.00     97387.86
   39.45        3340.50           6753       23465.00    102584.60
   39.48        3340.75           6757       24918.00    108958.90
   39.51        3341.00           6761       26336.00    115182.00
   39.54        3341.25           6765       27039.00    118268.10
   39.57        3341.50           6768       27228.00    119097.80
   39.60        3341.75           6772       27232.00    119115.40
   39.64        3342.00           6776       26856.00    117464.70
   39.67        3342.25           6780       25740.00    112566.10
   39.70        3342.50           6783       24804.00    108458.70
   39.73        3342.75           6787       23159.00    101242.50
   39.76        3343.00           6791       21648.00     94616.92
   39.79        3343.25           6795       20247.00     88476.02
   39.82        3343.50           6798       19140.00     83625.40
   39.85        3343.75           6802       17546.00     76643.33
   39.88        3344.00           6806       15975.00     69764.87
   39.92        3344.25           6810       14563.00     63585.00
   39.95        3344.50           6814       12990.00     56703.18
   39.98        3344.75           6817       11943.00     52124.17
   40.01        3345.00           6821       10177.00     44403.49
   40.04        3345.25           6825        8782.00     38307.29
   40.07        3345.50           6829        7237.00     31558.20
   40.10        3345.75           6832        6024.00     26261.31
   40.13        3346.00           6836        4542.00     19792.05
   40.16        3346.25           6840        3083.00     13425.63
   40.20        3346.50           6844        1664.00      7236.10
   40.23        3346.75           6847         822.00      3564.46
   40.26        3347.00           6851         321.00      1380.18
   40.29        3347.25           6855         163.00       691.38
   40.32        3347.50           6859         135.00       569.32
   40.35        3347.75           6863         109.00       455.98
   40.38        3348.00           6866          84.00       347.00
   40.41        3348.25           6870          79.00       325.20
   40.44        3348.50           6874          64.00       259.81
   40.47        3348.75           6878          57.00       229.30
   40.50        3349.00           6881          61.00       246.73
   40.53        3349.25           6885          65.00       264.17
   40.56        3349.50           6889          57.00       229.30
   40.59        3349.75           6893          56.00       224.94
   40.63        3350.00           6896          59.00       238.01
   40.66        3350.25           6900          55.00       220.58
   40.69        3350.50           6904          63.00       255.45
   40.72        3350.75           6908          53.00       211.86
   40.75        3351.00           6912          57.00       229.30
HL scan finished at 00:41:25
end
