************************************************************
  HL Scan of (1) Internal mercury lamp
************************************************************
Integration time is 0.2294 seconds per sample
dh261017Manchester 53.47 2.23 2.804185pr1000
************************************************************
Dead Time -------------------------  3E-08 
Number of Cycles Used -------------  4 
Starting Wavelength (Angstroms) ---  3331 
Final Wavelength (Angstoms) -------  3351 
Wavelength Increment (Angstroms) --  .25 
Filter Wheel #1 Position ---------- (1) Ground quartz diffuser (ND=2.32)
Filter Wheel #2 Position ---------- 



************************************************************
HL scan start time = 00:35:01
Dark Count =  7.2 


Time (GMT)  Wavelength (Ang)  Step Number  Raw Counts  Counts/Second

   35.54        3331.00           6610          56.00       212.73
   35.76        3331.25           6614          57.00       217.09
   35.79        3331.50           6618          53.00       199.65
   35.83        3331.75           6622          65.00       251.96
   35.86        3332.00           6626          67.00       260.68
   35.89        3332.25           6629          57.00       217.09
   35.92        3332.50           6633          63.00       243.25
   35.95        3332.75           6637          55.00       208.37
   35.98        3333.00           6641          62.00       238.89
   36.01        3333.25           6644          65.00       251.96
   36.04        3333.50           6648          53.00       199.65
   36.07        3333.75           6652          59.00       225.81
   36.10        3334.00           6656          64.00       247.60
   36.13        3334.25           6659          68.00       265.04
   36.17        3334.50           6663          81.00       321.71
   36.20        3334.75           6667         106.00       430.69
   36.23        3335.00           6671         133.00       548.40
   36.26        3335.25           6674         152.00       631.22
   36.29        3335.50           6678         173.00       722.77
   36.32        3335.75           6682         203.00       853.55
   36.35        3336.00           6686         223.00       940.74
   36.38        3336.25           6689         267.00      1132.56
   36.41        3336.50           6693         495.00      2126.55
   36.44        3336.75           6697        1507.00      6539.21
   36.47        3337.00           6701        2919.00     12697.95
   36.50        3337.25           6704        4049.00     17628.32
   36.54        3337.50           6708        5587.00     24341.22
   36.57        3337.75           6712        7159.00     31205.31
   36.60        3338.00           6716        8736.00     38094.08
   36.63        3338.25           6719       10000.00     43617.64
   36.66        3338.50           6723       11313.00     49357.25
   36.69        3338.75           6727       13035.00     56887.76
   36.72        3339.00           6731       14461.00     63126.41
   36.75        3339.25           6734       15734.00     68697.68
   36.78        3339.50           6738       17336.00     75711.45
   36.82        3339.75           6742       18774.00     82009.73
   36.85        3340.00           6746       20377.00     89033.49
   36.88        3340.25           6750       21732.00     94972.92
   36.91        3340.50           6753       22847.00     99861.94
   36.94        3340.75           6757       24332.00    106375.60
   36.97        3341.00           6761       25752.00    112606.50
   37.00        3341.25           6765       26947.00    117851.90
   37.03        3341.50           6768       27020.00    118172.40
   37.06        3341.75           6772       27040.00    118260.20
   37.10        3342.00           6776       26986.00    118023.10
   37.13        3342.25           6780       26034.00    113844.10
   37.16        3342.50           6783       24993.00    109275.70
   37.19        3342.75           6787       23794.00    104015.40
   37.22        3343.00           6791       22193.00     96994.12
   37.25        3343.25           6795       20604.00     90028.36
   37.28        3343.50           6798       19381.00     84669.03
   37.31        3343.75           6802       17982.00     78540.56
   37.34        3344.00           6806       16546.00     72252.35
   37.37        3344.25           6810       15005.00     65506.99
   37.40        3344.50           6814       13391.00     58445.02
   37.43        3344.75           6817       12194.00     53209.54
   37.47        3345.00           6821       10683.00     46603.04
   37.50        3345.25           6825        9196.00     40104.02
   37.53        3345.50           6829        7538.00     32860.63
   37.56        3345.75           6832        6468.00     28187.74
   37.59        3346.00           6836        5033.00     21922.87
   37.62        3346.25           6840        3624.00     15773.81
   37.65        3346.50           6844        2108.00      9160.32
   37.68        3346.75           6847        1172.00      5078.37
   37.71        3347.00           6851         365.00      1559.79
   37.74        3347.25           6855         183.00       766.36
   37.78        3347.50           6859         128.00       526.60
   37.81        3347.75           6863         114.00       465.57
   37.84        3348.00           6866          93.00       374.02
   37.87        3348.25           6870          68.00       265.04
   37.90        3348.50           6874          61.00       234.53
   37.93        3348.75           6878          55.00       208.37
   37.96        3349.00           6881          61.00       234.53
   37.99        3349.25           6885          64.00       247.60
   38.02        3349.50           6889          55.00       208.37
   38.05        3349.75           6893          60.00       230.17
   38.08        3350.00           6896          66.00       256.32
   38.12        3350.25           6900          61.00       234.53
   38.15        3350.50           6904          55.00       208.37
   38.18        3350.75           6908          60.00       230.17
   38.21        3351.00           6912          65.00       251.96
HL scan finished at 00:38:52
end
