************************************************************
  HL Scan of (1) Internal mercury lamp
************************************************************
Integration time is 0.2294 seconds per sample
dh091118Manchester 53.47 2.23 2.804185pr1000
************************************************************
Dead Time -------------------------  3E-08 
Number of Cycles Used -------------  4 
Starting Wavelength (Angstroms) ---  3331 
Final Wavelength (Angstoms) -------  3351 
Wavelength Increment (Angstroms) --  .25 
Filter Wheel #1 Position ---------- (1) Ground quartz diffuser (ND=2.32)
Filter Wheel #2 Position ---------- 



************************************************************
HL scan start time = 00:34:31
Dark Count =  6.7 


Time (GMT)  Wavelength (Ang)  Step Number  Raw Counts  Counts/Second

   35.04        3331.00           6610          41.00       149.52
   35.26        3331.25           6614          42.00       153.88
   35.30        3331.50           6618          45.00       166.96
   35.33        3331.75           6622          39.00       140.80
   35.36        3332.00           6626          43.00       158.24
   35.39        3332.25           6629          43.00       158.24
   35.42        3332.50           6633          47.00       175.68
   35.45        3332.75           6637          45.00       166.96
   35.48        3333.00           6641          43.00       158.24
   35.51        3333.25           6644          40.00       145.16
   35.54        3333.50           6648          40.00       145.16
   35.57        3333.75           6652          38.00       136.44
   35.60        3334.00           6656          44.00       162.60
   35.63        3334.25           6659          46.00       171.32
   35.66        3334.50           6663          64.00       249.78
   35.70        3334.75           6667          72.00       284.66
   35.73        3335.00           6671          97.00       393.64
   35.76        3335.25           6674          98.00       398.00
   35.79        3335.50           6678         128.00       528.78
   35.82        3335.75           6682         138.00       572.37
   35.85        3336.00           6686         166.00       694.43
   35.88        3336.25           6689         205.00       864.45
   35.91        3336.50           6693         315.00      1343.99
   35.94        3336.75           6697         950.00      4112.54
   35.97        3337.00           6701        2015.00      8756.88
   36.00        3337.25           6704        2819.00     12263.89
   36.03        3337.50           6708        3778.00     16447.96
   36.06        3337.75           6712        4886.00     21283.42
   36.10        3338.00           6716        6002.00     26155.22
   36.13        3338.25           6719        6738.00     29368.93
   36.16        3338.50           6723        7786.00     33946.06
   36.19        3338.75           6727        8791.00     38336.57
   36.22        3339.00           6731        9935.00     43335.73
   36.25        3339.25           6734       10653.00     46474.08
   36.28        3339.50           6738       11745.00     51248.31
   36.31        3339.75           6742       12715.00     55490.30
   36.34        3340.00           6746       13808.00     60271.48
   36.37        3340.25           6750       14924.00     65154.70
   36.41        3340.50           6753       15751.00     68774.27
   36.44        3340.75           6757       16853.00     73598.68
   36.47        3341.00           6761       17676.00     77202.58
   36.50        3341.25           6765       18578.00     81153.31
   36.53        3341.50           6768       18814.00     82187.15
   36.56        3341.75           6772       18869.00     82428.09
   36.59        3342.00           6776       18763.00     81963.72
   36.62        3342.25           6780       18143.00     79247.91
   36.65        3342.50           6783       17462.00     76265.41
   36.68        3342.75           6787       16475.00     71943.70
   36.71        3343.00           6791       15370.00     67106.63
   36.74        3343.25           6795       14226.00     62100.33
   36.78        3343.50           6798       13569.00     59225.89
   36.81        3343.75           6802       12486.00     54488.74
   36.84        3344.00           6806       11409.00     49779.17
   36.87        3344.25           6810       10332.00     45070.93
   36.90        3344.50           6814        9319.00     40643.69
   36.93        3344.75           6817        8558.00     37318.57
   36.96        3345.00           6821        7494.00     32670.63
   36.99        3345.25           6825        6389.00     27844.96
   37.02        3345.50           6829        5338.00     23256.41
   37.05        3345.75           6832        4468.00     19459.05
   37.08        3346.00           6836        3400.00     14798.64
   37.12        3346.25           6840        2351.00     10222.40
   37.15        3346.50           6844        1343.00      5826.21
   37.18        3346.75           6847         658.00      2839.39
   37.21        3347.00           6851         220.00       929.84
   37.24        3347.25           6855         126.00       520.06
   37.27        3347.50           6859          97.00       393.64
   37.30        3347.75           6863          72.00       284.66
   37.33        3348.00           6866          53.00       201.83
   37.36        3348.25           6870          52.00       197.47
   37.39        3348.50           6874          46.00       171.32
   37.42        3348.75           6878          42.00       153.88
   37.46        3349.00           6881          43.00       158.24
   37.49        3349.25           6885          49.00       184.40
   37.52        3349.50           6889          36.00       127.72
   37.55        3349.75           6893          46.00       171.32
   37.58        3350.00           6896          42.00       153.88
   37.61        3350.25           6900          42.00       153.88
   37.64        3350.50           6904          45.00       166.96
   37.67        3350.75           6908          43.00       158.24
   37.70        3351.00           6912          52.00       197.47
HL scan finished at 00:38:22
end
