************************************************************
  HL Scan of (1) Internal mercury lamp
************************************************************
Integration time is 0.2294 seconds per sample
dh231118Manchester 53.47 2.23 2.804185pr1000
************************************************************
Dead Time -------------------------  3E-08 
Number of Cycles Used -------------  4 
Starting Wavelength (Angstroms) ---  3331 
Final Wavelength (Angstoms) -------  3351 
Wavelength Increment (Angstroms) --  .25 
Filter Wheel #1 Position ---------- (1) Ground quartz diffuser (ND=2.32)
Filter Wheel #2 Position ---------- 



************************************************************
HL scan start time = 00:37:10
Dark Count =  7.3 


Time (GMT)  Wavelength (Ang)  Step Number  Raw Counts  Counts/Second

   37.70        3331.00           6610          45.00       164.34
   37.92        3331.25           6614          38.00       133.83
   37.95        3331.50           6618          50.00       186.14
   37.98        3331.75           6622          42.00       151.26
   38.01        3332.00           6626          39.00       138.19
   38.04        3332.25           6629          44.00       159.98
   38.07        3332.50           6633          42.00       151.26
   38.10        3332.75           6637          38.00       133.83
   38.13        3333.00           6641          44.00       159.98
   38.16        3333.25           6644          47.00       173.06
   38.20        3333.50           6648          43.00       155.62
   38.23        3333.75           6652          39.00       138.19
   38.26        3334.00           6656          44.00       159.98
   38.29        3334.25           6659          45.00       164.34
   38.32        3334.50           6663          60.00       229.73
   38.35        3334.75           6667          67.00       260.25
   38.38        3335.00           6671          92.00       369.23
   38.41        3335.25           6674          99.00       399.74
   38.44        3335.50           6678         112.00       456.41
   38.47        3335.75           6682         133.00       547.96
   38.51        3336.00           6686         157.00       652.58
   38.54        3336.25           6689         191.00       800.80
   38.57        3336.50           6693         265.00      1123.40
   38.60        3336.75           6697         673.00      2902.17
   38.63        3337.00           6701        1670.00      7249.62
   38.66        3337.25           6704        2464.00     10712.68
   38.69        3337.50           6708        3495.00     15210.52
   38.72        3337.75           6712        4636.00     20189.65
   38.75        3338.00           6716        5582.00     24318.96
   38.78        3338.25           6719        6392.00     27855.44
   38.81        3338.50           6723        7356.00     32065.27
   38.84        3338.75           6727        8426.00     36739.26
   38.87        3339.00           6731        9429.00     41121.76
   38.90        3339.25           6734       10429.00     45492.30
   38.93        3339.50           6738       11323.00     49400.54
   38.97        3339.75           6742       12421.00     54201.84
   39.00        3340.00           6746       13453.00     58715.80
   39.03        3340.25           6750       14537.00     63458.54
   39.06        3340.50           6753       15273.00     66679.46
   39.09        3340.75           6757       16261.00     71004.19
   39.12        3341.00           6761       17359.00     75811.72
   39.15        3341.25           6765       18122.00     79153.30
   39.18        3341.50           6768       18590.00     81203.24
   39.21        3341.75           6772       18671.00     81558.06
   39.24        3342.00           6776       18705.00     81707.01
   39.27        3342.25           6780       18312.00     79985.51
   39.31        3342.50           6783       17570.00     76735.73
   39.34        3342.75           6787       16697.00     72913.02
   39.37        3343.00           6791       15557.00     67922.49
   39.40        3343.25           6795       14433.00     63003.46
   39.43        3343.50           6798       13760.00     60058.86
   39.46        3343.75           6802       12810.00     55903.18
   39.49        3344.00           6806       11610.00     50655.39
   39.52        3344.25           6810       10680.00     46589.49
   39.55        3344.50           6814        9521.00     41523.79
   39.59        3344.75           6817        8760.00     38198.50
   39.62        3345.00           6821        7764.00     33847.35
   39.65        3345.25           6825        6713.00     29257.14
   39.68        3345.50           6829        5569.00     24262.21
   39.71        3345.75           6832        4800.00     20905.44
   39.74        3346.00           6836        3691.00     16065.72
   39.77        3346.25           6840        2569.00     11170.70
   39.80        3346.50           6844        1619.00      7027.20
   39.83        3346.75           6847         943.00      4079.40
   39.86        3347.00           6851         294.00      1249.83
   39.89        3347.25           6855         140.00       578.48
   39.92        3347.50           6859          94.00       377.95
   39.95        3347.75           6863          70.00       273.32
   39.98        3348.00           6866          59.00       225.37
   40.02        3348.25           6870          54.00       203.58
   40.05        3348.50           6874          51.00       190.50
   40.08        3348.75           6878          44.00       159.98
   40.11        3349.00           6881          52.00       194.86
   40.14        3349.25           6885          41.00       146.91
   40.17        3349.50           6889          42.00       151.26
   40.20        3349.75           6893          47.00       173.06
   40.23        3350.00           6896          42.00       151.26
   40.26        3350.25           6900          44.00       159.98
   40.29        3350.50           6904          45.00       164.34
   40.32        3350.75           6908          40.00       142.55
   40.35        3351.00           6912          62.00       238.45
HL scan finished at 00:41:01
end
