************************************************************
  HL Scan of (1) Internal mercury lamp
************************************************************
Integration time is 0.2294 seconds per sample
dh141218Manchester 53.47 2.23 2.750537pr1000
************************************************************
Dead Time -------------------------  3E-08 
Number of Cycles Used -------------  4 
Starting Wavelength (Angstroms) ---  3331 
Final Wavelength (Angstoms) -------  3351 
Wavelength Increment (Angstroms) --  .25 
Filter Wheel #1 Position ---------- (1) Ground quartz diffuser (ND=2.32)
Filter Wheel #2 Position ---------- 



************************************************************
HL scan start time = 00:49:17
Dark Count =  6.4 


Time (GMT)  Wavelength (Ang)  Step Number  Raw Counts  Counts/Second

   49.81        3331.00           6610          54.00       207.50
   50.03        3331.25           6614          40.00       146.47
   50.07        3331.50           6618          44.00       163.91
   50.10        3331.75           6622          40.00       146.47
   50.13        3332.00           6626          41.00       150.83
   50.16        3332.25           6629          44.00       163.91
   50.19        3332.50           6633          44.00       163.91
   50.22        3332.75           6637          40.00       146.47
   50.25        3333.00           6641          47.00       176.98
   50.28        3333.25           6644          38.00       137.75
   50.31        3333.50           6648          43.00       159.55
   50.34        3333.75           6652          43.00       159.55
   50.37        3334.00           6656          45.00       168.27
   50.40        3334.25           6659          49.00       185.70
   50.44        3334.50           6663          67.00       264.17
   50.47        3334.75           6667          66.00       259.81
   50.50        3335.00           6671          94.00       381.87
   50.53        3335.25           6674          96.00       390.59
   50.56        3335.50           6678         127.00       525.73
   50.59        3335.75           6682         143.00       595.48
   50.62        3336.00           6686         149.00       621.63
   50.65        3336.25           6689         200.00       843.96
   50.68        3336.50           6693         323.00      1380.18
   50.71        3336.75           6697        1092.00      4733.02
   50.75        3337.00           6701        2163.00      9403.70
   50.78        3337.25           6704        2946.00     12819.23
   50.81        3337.50           6708        4025.00     17527.09
   50.84        3337.75           6712        5120.00     22306.12
   50.87        3338.00           6716        6175.00     26911.87
   50.90        3338.25           6719        6976.00     30409.60
   50.93        3338.50           6723        7968.00     34742.38
   50.96        3338.75           6727        9140.00     39862.81
   51.00        3339.00           6731       10255.00     44735.68
   51.03        3339.25           6734       10968.00     47852.43
   51.06        3339.50           6738       12069.00     52666.41
   51.09        3339.75           6742       13138.00     57341.80
   51.12        3340.00           6746       14157.00     61799.74
   51.15        3340.25           6750       15357.00     67051.05
   51.18        3340.50           6753       16040.00     70040.65
   51.21        3340.75           6757       17226.00     75233.25
   51.24        3341.00           6761       18186.00     79437.56
   51.28        3341.25           6765       19010.00     83047.10
   51.31        3341.50           6768       19289.00     84269.44
   51.34        3341.75           6772       19315.00     84383.36
   51.37        3342.00           6776       19150.00     83660.45
   51.40        3342.25           6780       18331.00     80072.68
   51.43        3342.50           6783       17627.00     76989.29
   51.46        3342.75           6787       16701.00     72934.48
   51.49        3343.00           6791       15553.00     67908.91
   51.52        3343.25           6795       14418.00     62941.76
   51.55        3343.50           6798       13562.00     59196.58
   51.59        3343.75           6802       12593.00     54958.02
   51.62        3344.00           6806       11524.00     50283.30
   51.65        3344.25           6810       10403.00     45382.58
   51.68        3344.50           6814        9252.00     40352.22
   51.71        3344.75           6817        8376.00     36524.74
   51.74        3345.00           6821        7381.00     32178.39
   51.77        3345.25           6825        6375.00     27785.14
   51.80        3345.50           6829        5206.00     22681.51
   51.83        3345.75           6832        4368.00     19023.93
   51.86        3346.00           6836        3232.00     14066.97
   51.89        3346.25           6840        2212.00      9617.42
   51.93        3346.50           6844        1150.00      4985.92
   51.96        3346.75           6847         505.00      2173.64
   51.99        3347.00           6851         195.00       822.17
   52.02        3347.25           6855         122.00       503.93
   52.05        3347.50           6859          99.00       403.67
   52.08        3347.75           6863          80.00       320.84
   52.11        3348.00           6866          61.00       238.01
   52.14        3348.25           6870          47.00       176.98
   52.17        3348.50           6874          46.00       172.63
   52.20        3348.75           6878          37.00       133.39
   52.24        3349.00           6881          47.00       176.98
   52.27        3349.25           6885          51.00       194.42
   52.30        3349.50           6889          38.00       137.75
   52.33        3349.75           6893          47.00       176.98
   52.36        3350.00           6896          44.00       163.91
   52.39        3350.25           6900          43.00       159.55
   52.42        3350.50           6904          41.00       150.83
   52.45        3350.75           6908          45.00       168.27
   52.48        3351.00           6912          44.00       163.91
HL scan finished at 00:53:08
end
