************************************************************
  HL Scan of (1) Internal mercury lamp
************************************************************
Integration time is 0.2294 seconds per sample
dh071218Manchester 53.47 2.23 2.804185pr1000
************************************************************
Dead Time -------------------------  3E-08 
Number of Cycles Used -------------  4 
Starting Wavelength (Angstroms) ---  3331 
Final Wavelength (Angstoms) -------  3351 
Wavelength Increment (Angstroms) --  .25 
Filter Wheel #1 Position ---------- (1) Ground quartz diffuser (ND=2.32)
Filter Wheel #2 Position ---------- 



************************************************************
HL scan start time = 00:56:01
Dark Count =  5.9 


Time (GMT)  Wavelength (Ang)  Step Number  Raw Counts  Counts/Second

   56.53        3331.00           6610          42.00       157.37
   56.76        3331.25           6614          34.00       122.49
   56.79        3331.50           6618          39.00       144.29
   56.82        3331.75           6622          42.00       157.37
   56.85        3332.00           6626          38.00       139.93
   56.88        3332.25           6629          39.00       144.29
   56.91        3332.50           6633          38.00       139.93
   56.94        3332.75           6637          36.00       131.21
   56.97        3333.00           6641          42.00       157.37
   57.01        3333.25           6644          47.00       179.16
   57.04        3333.50           6648          38.00       139.93
   57.07        3333.75           6652          38.00       139.93
   57.10        3334.00           6656          41.00       153.01
   57.13        3334.25           6659          51.00       196.60
   57.16        3334.50           6663          62.00       244.55
   57.19        3334.75           6667          75.00       301.22
   57.22        3335.00           6671          94.00       384.05
   57.25        3335.25           6674         101.00       414.56
   57.28        3335.50           6678         110.00       453.80
   57.31        3335.75           6682         129.00       536.63
   57.34        3336.00           6686         145.00       606.38
   57.38        3336.25           6689         179.00       754.59
   57.41        3336.50           6693         298.00      1273.37
   57.44        3336.75           6697         843.00      3649.48
   57.47        3337.00           6701        1766.00      7674.39
   57.50        3337.25           6704        2444.00     10631.55
   57.53        3337.50           6708        3389.00     14754.13
   57.56        3337.75           6712        4410.00     19209.41
   57.59        3338.00           6716        5363.00     23369.04
   57.62        3338.25           6719        5976.00     26045.19
   57.65        3338.50           6723        6863.00     29918.30
   57.69        3338.75           6727        7836.00     34167.96
   57.72        3339.00           6731        8839.00     38549.79
   57.75        3339.25           6734        9621.00     41966.93
   57.78        3339.50           6738       10452.00     45598.96
   57.81        3339.75           6742       11419.00     49826.39
   57.84        3340.00           6746       12331.00     53814.36
   57.87        3340.25           6750       13205.00     57637.06
   57.90        3340.50           6753       14028.00     61237.51
   57.93        3340.75           6757       14921.00     65145.07
   57.96        3341.00           6761       15841.00     69171.74
   57.99        3341.25           6765       16462.00     71890.28
   58.02        3341.50           6768       16783.00     73295.70
   58.05        3341.75           6772       16914.00     73869.28
   58.09        3342.00           6776       16825.00     73479.59
   58.12        3342.25           6780       16244.00     70935.90
   58.15        3342.50           6783       15707.00     68585.18
   58.18        3342.75           6787       14828.00     64738.08
   58.21        3343.00           6791       13915.00     60743.11
   58.24        3343.25           6795       12931.00     56438.55
   58.27        3343.50           6798       12254.00     53477.62
   58.30        3343.75           6802       11202.00     48877.64
   58.33        3344.00           6806       10282.00     44855.88
   58.37        3344.25           6810        9333.00     40708.36
   58.40        3344.50           6814        8406.00     36657.99
   58.43        3344.75           6817        7706.00     33600.11
   58.46        3345.00           6821        6786.00     29582.04
   58.49        3345.25           6825        5856.00     25521.28
   58.52        3345.50           6829        4798.00     20902.82
   58.55        3345.75           6832        4075.00     17747.46
   58.58        3346.00           6836        3101.00     13497.62
   58.61        3346.25           6840        2085.00      9065.68
   58.64        3346.50           6844        1139.00      4940.14
   58.67        3346.75           6847         617.00      2664.12
   58.70        3347.00           6851         199.00       841.78
   58.74        3347.25           6855         107.00       440.72
   58.77        3347.50           6859          81.00       327.38
   58.80        3347.75           6863          83.00       336.10
   58.83        3348.00           6866          48.00       183.52
   58.86        3348.25           6870          48.00       183.52
   58.89        3348.50           6874          43.00       161.73
   58.92        3348.75           6878          43.00       161.73
   58.95        3349.00           6881          55.00       214.04
   58.98        3349.25           6885          38.00       139.93
   59.01        3349.50           6889          44.00       166.09
   59.04        3349.75           6893          50.00       192.24
   59.07        3350.00           6896          46.00       174.80
   59.10        3350.25           6900          42.00       157.37
   59.14        3350.50           6904          34.00       122.49
   59.17        3350.75           6908          38.00       139.93
   59.20        3351.00           6912          49.00       187.88
HL scan finished at 00:59:52
end
