************************************************************
  HL Scan of (1) Internal mercury lamp
************************************************************
Integration time is 0.2294 seconds per sample
dh071217Manchester 53.47 2.23 2.804185pr1000
************************************************************
Dead Time -------------------------  3E-08 
Number of Cycles Used -------------  4 
Starting Wavelength (Angstroms) ---  3331 
Final Wavelength (Angstoms) -------  3351 
Wavelength Increment (Angstroms) --  .25 
Filter Wheel #1 Position ---------- (1) Ground quartz diffuser (ND=2.32)
Filter Wheel #2 Position ---------- 



************************************************************
HL scan start time = 00:46:14
Dark Count =  6.8 


Time (GMT)  Wavelength (Ang)  Step Number  Raw Counts  Counts/Second

   46.76        3331.00           6610          55.00       210.11
   46.98        3331.25           6614          51.00       192.68
   47.01        3331.50           6618          53.00       201.40
   47.04        3331.75           6622          52.00       197.04
   47.07        3332.00           6626          57.00       218.83
   47.10        3332.25           6629          51.00       192.68
   47.13        3332.50           6633          58.00       223.19
   47.17        3332.75           6637          57.00       218.83
   47.20        3333.00           6641          60.00       231.91
   47.23        3333.25           6644          58.00       223.19
   47.26        3333.50           6648          57.00       218.83
   47.29        3333.75           6652          58.00       223.19
   47.32        3334.00           6656          60.00       231.91
   47.35        3334.25           6659          51.00       192.68
   47.38        3334.50           6663          78.00       310.38
   47.41        3334.75           6667          90.00       362.69
   47.44        3335.00           6671         121.00       497.83
   47.47        3335.25           6674         138.00       571.94
   47.50        3335.50           6678         159.00       663.48
   47.54        3335.75           6682         179.00       750.67
   47.57        3336.00           6686         209.00       881.45
   47.60        3336.25           6689         221.00       933.77
   47.63        3336.50           6693         408.00      1749.00
   47.66        3336.75           6697        1183.00      5128.08
   47.69        3337.00           6701        2574.00     11194.69
   47.72        3337.25           6704        3741.00     16286.07
   47.75        3337.50           6708        5231.00     22788.90
   47.78        3337.75           6712        6799.00     29634.88
   47.81        3338.00           6716        8346.00     36391.93
   47.85        3338.25           6719        9447.00     41202.60
   47.88        3338.50           6723       10942.00     47737.02
   47.91        3338.75           6727       12459.00     54370.22
   47.94        3339.00           6731       14049.00     61325.45
   47.97        3339.25           6734       15199.00     66357.78
   48.00        3339.50           6738       16790.00     73322.40
   48.03        3339.75           6742       18236.00     79654.81
   48.06        3340.00           6746       19779.00     86414.66
   48.09        3340.25           6750       21284.00     93010.69
   48.13        3340.50           6753       22466.00     98192.91
   48.16        3340.75           6757       23952.00    104710.30
   48.19        3341.00           6761       25357.00    110874.70
   48.22        3341.25           6765       26538.00    116058.10
   48.25        3341.50           6768       27079.00    118433.10
   48.28        3341.75           6772       27098.00    118516.50
   48.31        3342.00           6776       26950.00    117866.80
   48.34        3342.25           6780       26361.00    115281.20
   48.37        3342.50           6783       25336.00    110782.60
   48.41        3342.75           6787       23917.00    104556.80
   48.44        3343.00           6791       22477.00     98241.16
   48.47        3343.25           6795       20784.00     90819.03
   48.50        3343.50           6798       19566.00     85481.36
   48.53        3343.75           6802       18167.00     79352.60
   48.56        3344.00           6806       16591.00     72451.11
   48.59        3344.25           6810       14906.00     65075.49
   48.62        3344.50           6814       13479.00     58831.74
   48.65        3344.75           6817       12326.00     53788.56
   48.69        3345.00           6821       10902.00     47562.15
   48.72        3345.25           6825        9422.00     41093.35
   48.75        3345.50           6829        7851.00     34229.56
   48.78        3345.75           6832        6690.00     29158.89
   48.81        3346.00           6836        5101.00     22221.44
   48.84        3346.25           6840        3674.00     15993.72
   48.87        3346.50           6844        2112.00      9179.51
   48.90        3346.75           6847        1124.00      4870.81
   48.93        3347.00           6851         359.00      1535.38
   48.96        3347.25           6855         194.00       816.06
   49.00        3347.50           6859         145.00       602.45
   49.03        3347.75           6863         118.00       484.75
   49.06        3348.00           6866         104.00       423.72
   49.09        3348.25           6870          80.00       319.10
   49.12        3348.50           6874          60.00       231.91
   49.15        3348.75           6878          58.00       223.19
   49.18        3349.00           6881          55.00       210.11
   49.21        3349.25           6885          58.00       223.19
   49.24        3349.50           6889          58.00       223.19
   49.27        3349.75           6893          54.00       205.76
   49.30        3350.00           6896          60.00       231.91
   49.33        3350.25           6900          57.00       218.83
   49.36        3350.50           6904          61.00       236.27
   49.39        3350.75           6908          55.00       210.11
   49.43        3351.00           6912          63.00       244.99
HL scan finished at 00:50:05
end
