************************************************************
  HL Scan of (1) Internal mercury lamp
************************************************************
Integration time is 0.2294 seconds per sample
dh211217Manchester 53.47 2.23 2.804185pr1000
************************************************************
Dead Time -------------------------  3E-08 
Number of Cycles Used -------------  4 
Starting Wavelength (Angstroms) ---  3331 
Final Wavelength (Angstoms) -------  3351 
Wavelength Increment (Angstroms) --  .25 
Filter Wheel #1 Position ---------- (1) Ground quartz diffuser (ND=2.32)
Filter Wheel #2 Position ---------- 



************************************************************
HL scan start time = 00:52:44
Dark Count =  7 


Time (GMT)  Wavelength (Ang)  Step Number  Raw Counts  Counts/Second

   53.25        3331.00           6610          60.00       231.04
   53.48        3331.25           6614          50.00       187.45
   53.51        3331.50           6618          60.00       231.04
   53.54        3331.75           6622          53.00       200.52
   53.57        3332.00           6626          48.00       178.73
   53.60        3332.25           6629          50.00       187.45
   53.63        3332.50           6633          59.00       226.68
   53.66        3332.75           6637          57.00       217.96
   53.69        3333.00           6641          58.00       222.32
   53.72        3333.25           6644          49.00       183.09
   53.75        3333.50           6648          60.00       231.04
   53.79        3333.75           6652          61.00       235.40
   53.82        3334.00           6656          59.00       226.68
   53.85        3334.25           6659          74.00       292.07
   53.88        3334.50           6663          79.00       313.87
   53.91        3334.75           6667          99.00       401.05
   53.94        3335.00           6671         119.00       488.24
   53.97        3335.25           6674         147.00       610.30
   54.00        3335.50           6678         159.00       662.61
   54.03        3335.75           6682         177.00       741.08
   54.06        3336.00           6686         224.00       945.97
   54.10        3336.25           6689         273.00      1159.59
   54.13        3336.50           6693         406.00      1739.41
   54.16        3336.75           6697        1225.00      5310.35
   54.19        3337.00           6701        2618.00     11385.76
   54.22        3337.25           6704        3671.00     15979.76
   54.25        3337.50           6708        5204.00     22670.17
   54.28        3337.75           6712        6716.00     29271.56
   54.31        3338.00           6716        8253.00     35984.77
   54.34        3338.25           6719        9342.00     40742.88
   54.37        3338.50           6723       10978.00     47893.53
   54.41        3338.75           6727       12329.00     53800.80
   54.44        3339.00           6731       13825.00     60344.55
   54.47        3339.25           6734       15020.00     65573.51
   54.50        3339.50           6738       16635.00     72642.88
   54.53        3339.75           6742       18183.00     79421.79
   54.56        3340.00           6746       19670.00     85936.18
   54.59        3340.25           6750       21173.00     92523.25
   54.62        3340.50           6753       22212.00     97078.31
   54.65        3340.75           6757       23742.00    103788.20
   54.68        3341.00           6761       25225.00    110294.60
   54.71        3341.25           6765       26358.00    115267.10
   54.75        3341.50           6768       26744.00    116961.60
   54.78        3341.75           6772       26922.00    117743.00
   54.81        3342.00           6776       26630.00    116461.10
   54.84        3342.25           6780       25903.00    113270.00
   54.87        3342.50           6783       24835.00    108583.30
   54.90        3342.75           6787       23286.00    101788.10
   54.93        3343.00           6791       21817.00     95346.44
   54.96        3343.25           6795       20152.00     88048.31
   54.99        3343.50           6798       19133.00     83583.35
   55.02        3343.75           6802       17542.00     76614.43
   55.05        3344.00           6806       16149.00     70515.19
   55.08        3344.25           6810       14797.00     64597.60
   55.11        3344.50           6814       13209.00     57649.76
   55.14        3344.75           6817       12240.00     53411.59
   55.17        3345.00           6821       10610.00     46284.80
   55.21        3345.25           6825        9154.00     39921.37
   55.24        3345.50           6829        7550.00     32913.92
   55.27        3345.75           6832        6516.00     28398.20
   55.30        3346.00           6836        4895.00     21321.39
   55.33        3346.25           6840        3368.00     14657.71
   55.36        3346.50           6844        1866.00      8105.72
   55.39        3346.75           6847         893.00      3862.70
   55.42        3347.00           6851         315.00      1342.69
   55.45        3347.25           6855         176.00       736.72
   55.48        3347.50           6859         135.00       557.99
   55.51        3347.75           6863          99.00       401.05
   55.55        3348.00           6866          80.00       318.22
   55.58        3348.25           6870          77.00       305.15
   55.61        3348.50           6874          62.00       239.76
   55.64        3348.75           6878          47.00       174.37
   55.67        3349.00           6881          59.00       226.68
   55.70        3349.25           6885          55.00       209.24
   55.73        3349.50           6889          57.00       217.96
   55.76        3349.75           6893          57.00       217.96
   55.79        3350.00           6896          57.00       217.96
   55.82        3350.25           6900          54.00       204.88
   55.85        3350.50           6904          59.00       226.68
   55.88        3350.75           6908          55.00       209.24
   55.91        3351.00           6912          56.00       213.60
HL scan finished at 00:56:34
end
