************************************************************
  HL Scan of (1) Internal mercury lamp
************************************************************
Integration time is 0.2294 seconds per sample
dh211218Manchester 53.47 2.23 2.804185pr1000
************************************************************
Dead Time -------------------------  3E-08 
Number of Cycles Used -------------  4 
Starting Wavelength (Angstroms) ---  3331 
Final Wavelength (Angstoms) -------  3351 
Wavelength Increment (Angstroms) --  .25 
Filter Wheel #1 Position ---------- (1) Ground quartz diffuser (ND=2.32)
Filter Wheel #2 Position ---------- 



************************************************************
HL scan start time = 00:52:47
Dark Count =  6.1 


Time (GMT)  Wavelength (Ang)  Step Number  Raw Counts  Counts/Second

   53.31        3331.00           6610          41.00       152.14
   53.54        3331.25           6614          47.00       178.29
   53.57        3331.50           6618          43.00       160.86
   53.60        3331.75           6622          55.00       213.17
   53.63        3332.00           6626          45.00       169.57
   53.66        3332.25           6629          41.00       152.14
   53.69        3332.50           6633          41.00       152.14
   53.72        3332.75           6637          40.00       147.78
   53.75        3333.00           6641          47.00       178.29
   53.79        3333.25           6644          43.00       160.86
   53.82        3333.50           6648          50.00       191.37
   53.85        3333.75           6652          52.00       200.09
   53.88        3334.00           6656          53.00       204.45
   53.91        3334.25           6659          50.00       191.37
   53.94        3334.50           6663          60.00       234.96
   53.97        3334.75           6667          69.00       274.20
   54.00        3335.00           6671          83.00       335.23
   54.03        3335.25           6674         101.00       413.69
   54.07        3335.50           6678         124.00       513.96
   54.10        3335.75           6682         134.00       557.55
   54.13        3336.00           6686         154.00       644.74
   54.16        3336.25           6689         175.00       736.28
   54.19        3336.50           6693         266.00      1132.99
   54.22        3336.75           6697         739.00      3195.16
   54.25        3337.00           6701        1752.00      7612.46
   54.28        3337.25           6704        2513.00     10931.66
   54.31        3337.50           6708        3608.00     15708.80
   54.34        3337.75           6712        4671.00     20347.64
   54.38        3338.00           6716        5823.00     25376.33
   54.41        3338.25           6719        6654.00     29004.74
   54.44        3338.50           6723        7724.00     33677.87
   54.47        3338.75           6727        8728.00     38063.93
   54.50        3339.00           6731        9911.00     43233.46
   54.53        3339.25           6734       10737.00     46843.91
   54.56        3339.50           6738       11739.00     51224.70
   54.59        3339.75           6742       12834.00     56013.41
   54.63        3340.00           6746       14043.00     61302.26
   54.66        3340.25           6750       15027.00     65608.09
   54.69        3340.50           6753       15842.00     69175.24
   54.72        3340.75           6757       16837.00     73531.25
   54.75        3341.00           6761       18034.00     78773.12
   54.78        3341.25           6765       18910.00     82610.32
   54.81        3341.50           6768       19240.00     84056.08
   54.84        3341.75           6772       19480.00     85107.60
   54.87        3342.00           6776       19523.00     85296.02
   54.91        3342.25           6780       18989.00     82956.43
   54.94        3342.50           6783       18434.00     80525.16
   54.97        3342.75           6787       17225.00     75230.20
   55.00        3343.00           6791       16246.00     70943.78
   55.03        3343.25           6795       15093.00     65896.93
   55.06        3343.50           6798       14299.00     62422.37
   55.09        3343.75           6802       13167.00     57469.97
   55.12        3344.00           6806       11958.00     52182.32
   55.16        3344.25           6810       11057.00     48242.83
   55.19        3344.50           6814        9898.00     43176.65
   55.22        3344.75           6817        9112.00     39741.77
   55.25        3345.00           6821        8010.00     34927.17
   55.28        3345.25           6825        6862.00     29913.06
   55.31        3345.50           6829        5812.00     25328.30
   55.34        3345.75           6832        4996.00     21766.17
   55.37        3346.00           6836        3922.00     17078.93
   55.40        3346.25           6840        2789.00     12135.63
   55.44        3346.50           6844        1708.00      7420.57
   55.47        3346.75           6847         844.00      3652.97
   55.50        3347.00           6851         284.00      1211.47
   55.53        3347.25           6855         141.00       588.07
   55.56        3347.50           6859         121.00       500.88
   55.59        3347.75           6863          91.00       370.10
   55.62        3348.00           6866          73.00       291.63
   55.65        3348.25           6870          54.00       208.81
   55.68        3348.50           6874          58.00       226.24
   55.71        3348.75           6878          43.00       160.86
   55.74        3349.00           6881          52.00       200.09
   55.77        3349.25           6885          45.00       169.57
   55.80        3349.50           6889          44.00       165.21
   55.84        3349.75           6893          41.00       152.14
   55.87        3350.00           6896          43.00       160.86
   55.90        3350.25           6900          38.00       139.06
   55.93        3350.50           6904          41.00       152.14
   55.96        3350.75           6908          43.00       160.86
   55.99        3351.00           6912          45.00       169.57
HL scan finished at 00:56:39
end
