************************************************************
  HL Scan of (1) Internal mercury lamp
************************************************************
Integration time is 0.2294 seconds per sample
dh281218Manchester 53.47 2.23 2.804185pr1000
************************************************************
Dead Time -------------------------  3E-08 
Number of Cycles Used -------------  4 
Starting Wavelength (Angstroms) ---  3331 
Final Wavelength (Angstoms) -------  3351 
Wavelength Increment (Angstroms) --  .25 
Filter Wheel #1 Position ---------- (1) Ground quartz diffuser (ND=2.32)
Filter Wheel #2 Position ---------- 



************************************************************
HL scan start time = 00:56:09
Dark Count =  6.6 


Time (GMT)  Wavelength (Ang)  Step Number  Raw Counts  Counts/Second

   56.67        3331.00           6610          46.00       171.75
   56.89        3331.25           6614          42.00       154.32
   56.92        3331.50           6618          44.00       163.03
   56.95        3331.75           6622          50.00       189.19
   56.98        3332.00           6626          46.00       171.75
   57.01        3332.25           6629          41.00       149.96
   57.05        3332.50           6633          40.00       145.60
   57.08        3332.75           6637          42.00       154.32
   57.11        3333.00           6641          42.00       154.32
   57.14        3333.25           6644          44.00       163.03
   57.17        3333.50           6648          41.00       149.96
   57.20        3333.75           6652          52.00       197.91
   57.23        3334.00           6656          47.00       176.11
   57.26        3334.25           6659          53.00       202.27
   57.29        3334.50           6663          65.00       254.58
   57.32        3334.75           6667          75.00       298.17
   57.35        3335.00           6671          90.00       363.56
   57.39        3335.25           6674         114.00       468.18
   57.42        3335.50           6678         128.00       529.21
   57.45        3335.75           6682         137.00       568.45
   57.48        3336.00           6686         161.00       673.07
   57.51        3336.25           6689         193.00       812.57
   57.54        3336.50           6693         292.00      1244.16
   57.57        3336.75           6697         896.00      3877.52
   57.60        3337.00           6701        1912.00      8308.09
   57.63        3337.25           6704        2684.00     11675.41
   57.66        3337.50           6708        3708.00     16142.95
   57.70        3337.75           6712        4797.00     20895.40
   57.73        3338.00           6716        5938.00     25876.23
   57.76        3338.25           6719        6677.00     29102.99
   57.79        3338.50           6723        7825.00     34116.85
   57.82        3338.75           6727        8894.00     38787.05
   57.85        3339.00           6731        9855.00     42986.53
   57.88        3339.25           6734       10630.00     46373.98
   57.91        3339.50           6738       11703.00     51065.10
   57.94        3339.75           6742       12752.00     55652.56
   57.97        3340.00           6746       13885.00     60608.80
   58.00        3340.25           6750       14944.00     65242.66
   58.04        3340.50           6753       15641.00     68293.22
   58.07        3340.75           6757       16857.00     73616.65
   58.10        3341.00           6761       17862.00     78017.62
   58.13        3341.25           6765       18613.00     81307.07
   58.16        3341.50           6768       19137.00     83602.63
   58.19        3341.75           6772       19140.00     83615.77
   58.22        3342.00           6776       19108.00     83475.58
   58.25        3342.25           6780       18595.00     81228.22
   58.28        3342.50           6783       17844.00     77938.78
   58.32        3342.75           6787       16796.00     73349.55
   58.35        3343.00           6791       15878.00     69330.63
   58.38        3343.25           6795       14782.00     64533.71
   58.41        3343.50           6798       13868.00     60534.42
   58.44        3343.75           6802       12878.00     56203.67
   58.47        3344.00           6806       11824.00     51594.19
   58.50        3344.25           6810       10585.00     46177.27
   58.53        3344.50           6814        9579.00     41780.33
   58.56        3344.75           6817        8689.00     37891.35
   58.59        3345.00           6821        7794.00     33981.44
   58.63        3345.25           6825        6679.00     29111.73
   58.66        3345.50           6829        5589.00     24352.57
   58.69        3345.75           6832        4772.00     20786.28
   58.72        3346.00           6836        3670.00     15977.14
   58.75        3346.25           6840        2512.00     10925.11
   58.78        3346.50           6844        1406.00      6101.38
   58.81        3346.75           6847         709.00      3062.18
   58.84        3347.00           6851         224.00       947.72
   58.87        3347.25           6855         129.00       533.57
   58.90        3347.50           6859          95.00       385.36
   58.93        3347.75           6863          76.00       302.53
   58.96        3348.00           6866          59.00       228.42
   58.99        3348.25           6870          48.00       180.47
   59.02        3348.50           6874          43.00       158.68
   59.05        3348.75           6878          48.00       180.47
   59.09        3349.00           6881          46.00       171.75
   59.12        3349.25           6885          49.00       184.83
   59.15        3349.50           6889          46.00       171.75
   59.18        3349.75           6893          49.00       184.83
   59.21        3350.00           6896          50.00       189.19
   59.24        3350.25           6900          44.00       163.03
   59.27        3350.50           6904          42.00       154.32
   59.30        3350.75           6908          48.00       180.47
   59.33        3351.00           6912          38.00       136.88
HL scan finished at 01:00:00
end
