************************************************************
  HL Scan of (1) Internal mercury lamp
************************************************************
Integration time is 0.2294 seconds per sample
dh281217Manchester 53.47 2.23 2.750537pr1000
************************************************************
Dead Time -------------------------  3E-08 
Number of Cycles Used -------------  4 
Starting Wavelength (Angstroms) ---  3331 
Final Wavelength (Angstoms) -------  3351 
Wavelength Increment (Angstroms) --  .25 
Filter Wheel #1 Position ---------- (1) Ground quartz diffuser (ND=2.32)
Filter Wheel #2 Position ---------- 



************************************************************
HL scan start time = 00:56:20
Dark Count =  8.8 


Time (GMT)  Wavelength (Ang)  Step Number  Raw Counts  Counts/Second

   56.85        3331.00           6610          57.00       210.11
   57.07        3331.25           6614          46.00       162.16
   57.11        3331.50           6618          54.00       197.04
   57.14        3331.75           6622          56.00       205.76
   57.17        3332.00           6626          65.00       244.99
   57.20        3332.25           6629          59.00       218.83
   57.23        3332.50           6633          63.00       236.27
   57.26        3332.75           6637          63.00       236.27
   57.29        3333.00           6641          56.00       205.76
   57.32        3333.25           6644          60.00       223.19
   57.35        3333.50           6648          55.00       201.40
   57.38        3333.75           6652          57.00       210.11
   57.41        3334.00           6656          61.00       227.55
   57.45        3334.25           6659          72.00       275.50
   57.48        3334.50           6663          88.00       345.25
   57.51        3334.75           6667         102.00       406.28
   57.54        3335.00           6671         122.00       493.47
   57.57        3335.25           6674         153.00       628.61
   57.60        3335.50           6678         172.00       711.44
   57.63        3335.75           6682         193.00       802.98
   57.66        3336.00           6686         231.00       968.64
   57.69        3336.25           6689         281.00      1186.62
   57.72        3336.50           6693         502.00      2150.10
   57.75        3336.75           6697        1571.00      6811.33
   57.78        3337.00           6701        2977.00     12944.00
   57.81        3337.25           6704        4103.00     17856.99
   57.85        3337.50           6708        5560.00     24216.37
   57.88        3337.75           6712        7076.00     30835.84
   57.91        3338.00           6716        8654.00     37728.82
   57.94        3338.25           6719        9655.00     42102.84
   57.97        3338.50           6723       11189.00     48808.12
   58.00        3338.75           6727       12890.00     56246.54
   58.03        3339.00           6731       14389.00     62804.36
   58.06        3339.25           6734       15547.00     67872.15
   58.09        3339.50           6738       17140.00     74846.16
   58.12        3339.75           6742       18574.00     81126.59
   58.16        3340.00           6746       20059.00     87632.88
   58.19        3340.25           6750       21710.00     94869.46
   58.22        3340.50           6753       22761.00     99477.78
   58.25        3340.75           6757       24204.00    105807.00
   58.28        3341.00           6761       25413.00    111111.70
   58.31        3341.25           6765       26817.00    117274.10
   58.34        3341.50           6768       26980.00    117989.70
   58.37        3341.75           6772       27007.00    118108.30
   58.40        3342.00           6776       26726.00    116874.60
   58.44        3342.25           6780       25873.00    113130.50
   58.47        3342.50           6783       24877.00    108759.70
   58.50        3342.75           6787       23225.00    101512.70
   58.53        3343.00           6791       21730.00     94957.13
   58.56        3343.25           6795       20118.00     87891.43
   58.59        3343.50           6798       19053.00     83224.97
   58.62        3343.75           6802       17470.00     76291.24
   58.65        3344.00           6806       15974.00     69741.23
   58.68        3344.25           6810       14551.00     63513.24
   58.72        3344.50           6814       12938.00     56456.49
   58.75        3344.75           6817       11901.00     51921.27
   58.78        3345.00           6821       10405.00     45380.83
   58.81        3345.25           6825        8803.00     38379.83
   58.84        3345.50           6829        7343.00     32001.94
   58.87        3345.75           6832        6185.00     26945.05
   58.90        3346.00           6836        4694.00     20436.24
   58.93        3346.25           6840        3187.00     13860.17
   58.96        3346.50           6844        1748.00      7583.24
   58.99        3346.75           6847         786.00      3388.31
   59.03        3347.00           6851         280.00      1182.26
   59.06        3347.25           6855         165.00       680.92
   59.09        3347.50           6859         146.00       598.09
   59.12        3347.75           6863         102.00       406.28
   59.15        3348.00           6866          75.00       288.58
   59.18        3348.25           6870          64.00       240.63
   59.21        3348.50           6874          54.00       197.04
   59.24        3348.75           6878          57.00       210.11
   59.27        3349.00           6881          58.00       214.47
   59.31        3349.25           6885          61.00       227.55
   59.34        3349.50           6889          53.00       192.68
   59.37        3349.75           6893          52.00       188.32
   59.40        3350.00           6896          56.00       205.76
   59.43        3350.25           6900          59.00       218.83
   59.46        3350.50           6904          57.00       210.11
   59.49        3350.75           6908          51.00       183.96
   59.52        3351.00           6912          61.00       227.55
HL scan finished at 01:00:11
end
