************************************************************
  HS Scan of (1) Internal mercury lamp
************************************************************
Integration time is 0.2294 seconds per sample
dh020119Manchester 53.47 2.23 2.804185pr1000
************************************************************
Dead Time -------------------------  3E-08 
Number of Cycles Used -------------  4 
Starting Wavelength (Angstroms) ---  2950 
Final Wavelength (Angstoms) -------  2984 
Wavelength Increment (Angstroms) --  .25 
Filter Wheel #1 Position ---------- (1) Ground quartz diffuser (ND=2.32)
Filter Wheel #2 Position ---------- (1) Neutral Density 0.494



************************************************************
HS scan start time = 05:26:20
Dark Count =  8.100001 


Time (GMT)  Wavelength (Ang)  Step Number  Raw Counts  Counts/Second

  326.71        2950.00           1222          53.00       195.73
  326.77        2950.25           1226          61.00       230.60
  326.80        2950.50           1229          54.00       200.09
  326.84        2950.75           1232          62.00       234.96
  326.87        2951.00           1236          63.00       239.32
  326.90        2951.25           1239          49.00       178.29
  326.93        2951.50           1242          59.00       221.88
  326.96        2951.75           1246          56.00       208.81
  326.99        2952.00           1249          56.00       208.81
  327.02        2952.25           1252          54.00       200.09
  327.05        2952.50           1256          53.00       195.73
  327.08        2952.75           1259          55.00       204.45
  327.12        2953.00           1262          45.00       160.86
  327.15        2953.25           1266          55.00       204.45
  327.18        2953.50           1269          59.00       221.88
  327.21        2953.75           1272          53.00       195.73
  327.24        2954.00           1276          57.00       213.17
  327.27        2954.25           1279          61.00       230.60
  327.30        2954.50           1282          52.00       191.37
  327.33        2954.75           1286          60.00       226.24
  327.36        2955.00           1289          50.00       182.65
  327.39        2955.25           1292          54.00       200.09
  327.42        2955.50           1296          57.00       213.17
  327.45        2955.75           1299          48.00       173.93
  327.49        2956.00           1302          53.00       195.73
  327.52        2956.25           1306          51.00       187.01
  327.55        2956.50           1309          57.00       213.17
  327.58        2956.75           1312          59.00       221.88
  327.61        2957.00           1316          53.00       195.73
  327.64        2957.25           1319          52.00       191.37
  327.67        2957.50           1322          55.00       204.45
  327.70        2957.75           1326          50.00       182.65
  327.73        2958.00           1329          54.00       200.09
  327.76        2958.25           1332          65.00       248.04
  327.79        2958.50           1336          48.00       173.93
  327.83        2958.75           1339          50.00       182.65
  327.86        2959.00           1342          46.00       165.21
  327.89        2959.25           1346          56.00       208.81
  327.92        2959.50           1349          58.00       217.53
  327.95        2959.75           1352          61.00       230.60
  327.98        2960.00           1356          73.00       282.91
  328.01        2960.25           1359          85.00       335.23
  328.04        2960.50           1362         119.00       483.44
  328.07        2960.75           1366         143.00       588.07
  328.10        2961.00           1369         165.00       683.97
  328.14        2961.25           1372         197.00       823.47
  328.17        2961.50           1376         241.00      1015.29
  328.20        2961.75           1379         309.00      1311.73
  328.23        2962.00           1382         634.00      2728.65
  328.26        2962.25           1386        1833.00      7957.00
  328.29        2962.50           1389        3036.00     13204.45
  328.32        2962.75           1392        4009.00     17449.85
  328.35        2963.00           1396        5586.00     24332.93
  328.38        2963.25           1399        6560.00     28585.53
  328.41        2963.50           1402        7720.00     33651.66
  328.44        2963.75           1406        9300.00     40554.54
  328.47        2964.00           1409       10474.00     45685.51
  328.51        2964.25           1412       11583.00     50533.83
  328.54        2964.50           1416       13264.00     57885.53
  328.57        2964.75           1419       14358.00     62671.78
  328.60        2965.00           1422       15722.00     68641.21
  328.63        2965.25           1426       17270.00     75418.49
  328.66        2965.50           1429       18288.00     79876.88
  328.69        2965.75           1432       19539.00     85357.35
  328.72        2966.00           1436       21000.00     91760.10
  328.75        2966.25           1439       22175.00     96911.25
  328.78        2966.50           1442       23329.00    101971.90
  328.81        2966.75           1446       24423.00    106770.80
  328.84        2967.00           1449       24837.00    108587.30
  328.88        2967.25           1452       25021.00    109394.60
  328.91        2967.50           1456       24892.00    108828.60
  328.94        2967.75           1459       25009.00    109342.00
  328.97        2968.00           1462       24989.00    109254.20
  329.00        2968.25           1466       24200.00    105792.50
  329.03        2968.50           1469       23365.00    102129.80
  329.06        2968.75           1472       22197.00     97007.71
  329.09        2969.00           1476       20712.00     90497.76
  329.12        2969.25           1479       19655.00     85865.63
  329.16        2969.50           1482       18467.00     80660.96
  329.19        2969.75           1486       17037.00     74398.22
  329.22        2970.00           1489       15829.00     69109.57
  329.25        2970.25           1492       14776.00     64500.90
  329.28        2970.50           1496       13421.00     58572.32
  329.31        2970.75           1499       12111.00     52842.64
  329.34        2971.00           1502       10822.00     47206.74
  329.37        2971.25           1506        9334.00     40703.12
  329.40        2971.50           1509        8162.00     35582.43
  329.43        2971.75           1513        6703.00     29209.98
  329.46        2972.00           1516        5567.00     24249.98
  329.49        2972.25           1519        4486.00     19531.49
  329.52        2972.50           1523        3025.00     13156.46
  329.55        2972.75           1526        1982.00      8606.84
  329.58        2973.00           1529         989.00      4276.49
  329.62        2973.25           1533         422.00      1804.37
  329.65        2973.50           1536         293.00      1241.98
  329.68        2973.75           1539         260.00      1098.12
  329.71        2974.00           1543         222.00       932.46
  329.74        2974.25           1546         165.00       683.97
  329.77        2974.50           1549         139.00       570.63
  329.80        2974.75           1553         104.00       418.05
  329.83        2975.00           1556          70.00       269.84
  329.86        2975.25           1559          63.00       239.32
  329.89        2975.50           1563          57.00       213.17
  329.92        2975.75           1566          48.00       173.93
  329.96        2976.00           1569          46.00       165.21
  329.99        2976.25           1573          51.00       187.01
  330.02        2976.50           1576          58.00       217.53
  330.05        2976.75           1579          52.00       191.37
  330.08        2977.00           1583          50.00       182.65
  330.11        2977.25           1586          50.00       182.65
  330.14        2977.50           1590          49.00       178.29
  330.17        2977.75           1593          53.00       195.73
  330.20        2978.00           1596          47.00       169.57
  330.23        2978.25           1600          48.00       173.93
  330.26        2978.50           1603          50.00       182.65
  330.29        2978.75           1606          48.00       173.93
  330.32        2979.00           1610          42.00       147.78
  330.36        2979.25           1613          53.00       195.73
  330.39        2979.50           1616          48.00       173.93
  330.42        2979.75           1620          49.00       178.29
  330.45        2980.00           1623          52.00       191.37
  330.48        2980.25           1626          48.00       173.93
  330.51        2980.50           1630          53.00       195.73
  330.54        2980.75           1633          50.00       182.65
  330.57        2981.00           1637          52.00       191.37
  330.60        2981.25           1640          47.00       169.57
  330.63        2981.50           1643          50.00       182.65
  330.66        2981.75           1647          45.00       160.86
  330.69        2982.00           1650          44.00       156.50
  330.73        2982.25           1653          49.00       178.29
  330.76        2982.50           1657          45.00       160.86
  330.79        2982.75           1660          48.00       173.93
  330.82        2983.00           1663          52.00       191.37
  330.85        2983.25           1667          45.00       160.86
  330.88        2983.50           1670          52.00       191.37
  330.91        2983.75           1673          47.00       169.57
  330.94        2984.00           1677          42.00       147.78
HS scan finished at 05:31:09
end
************************************************************
  HS Scan of (1) Internal mercury lamp
************************************************************
Integration time is 0.2294 seconds per sample
dh020119Manchester 53.47 2.23 2.804185pr1000
************************************************************
Dead Time -------------------------  3E-08 
Number of Cycles Used -------------  4 
Starting Wavelength (Angstroms) ---  2950 
Final Wavelength (Angstoms) -------  2984 
Wavelength Increment (Angstroms) --  .25 
Filter Wheel #1 Position ---------- (1) Ground quartz diffuser (ND=2.32)
Filter Wheel #2 Position ---------- (1) Neutral Density 0.494



************************************************************
HS scan start time = 17:12:01
Dark Count =  6.5 


Time (GMT)  Wavelength (Ang)  Step Number  Raw Counts  Counts/Second

 1032.39        2950.00           1222          56.00       215.78
 1032.46        2950.25           1226          51.00       193.99
 1032.49        2950.50           1229          53.00       202.70
 1032.52        2950.75           1232          57.00       220.14
 1032.55        2951.00           1236          52.00       198.34
 1032.58        2951.25           1239          54.00       207.06
 1032.61        2951.50           1242          53.00       202.70
 1032.64        2951.75           1246          57.00       220.14
 1032.67        2952.00           1249          59.00       228.86
 1032.70        2952.25           1252          56.00       215.78
 1032.73        2952.50           1256          58.00       224.50
 1032.76        2952.75           1259          53.00       202.70
 1032.79        2953.00           1262          48.00       180.91
 1032.82        2953.25           1266          54.00       207.06
 1032.86        2953.50           1269          55.00       211.42
 1032.89        2953.75           1272          56.00       215.78
 1032.92        2954.00           1276          53.00       202.70
 1032.95        2954.25           1279          61.00       237.58
 1032.98        2954.50           1282          55.00       211.42
 1033.01        2954.75           1286          54.00       207.06
 1033.04        2955.00           1289          56.00       215.78
 1033.07        2955.25           1292          58.00       224.50
 1033.10        2955.50           1296          54.00       207.06
 1033.13        2955.75           1299          47.00       176.55
 1033.16        2956.00           1302          46.00       172.19
 1033.19        2956.25           1306          50.00       189.63
 1033.22        2956.50           1309          51.00       193.99
 1033.25        2956.75           1312          55.00       211.42
 1033.28        2957.00           1316          56.00       215.78
 1033.31        2957.25           1319          52.00       198.34
 1033.34        2957.50           1322          51.00       193.99
 1033.37        2957.75           1326          51.00       193.99
 1033.41        2958.00           1329          53.00       202.70
 1033.44        2958.25           1332          48.00       180.91
 1033.47        2958.50           1336          52.00       198.34
 1033.50        2958.75           1339          56.00       215.78
 1033.53        2959.00           1342          56.00       215.78
 1033.56        2959.25           1346          65.00       255.02
 1033.59        2959.50           1349          62.00       241.94
 1033.62        2959.75           1352          69.00       272.45
 1033.65        2960.00           1356         100.00       407.59
 1033.68        2960.25           1359         103.00       420.67
 1033.71        2960.50           1362         135.00       560.17
 1033.74        2960.75           1366         172.00       721.46
 1033.77        2961.00           1369         198.00       834.81
 1033.80        2961.25           1372         235.00       996.11
 1033.83        2961.50           1376         296.00      1262.04
 1033.86        2961.75           1379         371.00      1589.00
 1033.90        2962.00           1382         779.00      3367.82
 1033.93        2962.25           1386        1982.00      8613.82
 1033.96        2962.50           1389        3041.00     13233.24
 1033.99        2962.75           1392        4272.00     18604.54
 1034.02        2963.00           1396        5752.00     25064.61
 1034.05        2963.25           1399        6775.00     29531.38
 1034.08        2963.50           1402        7915.00     34510.43
 1034.11        2963.75           1406        9474.00     41321.90
 1034.14        2964.00           1409       10550.00     46024.71
 1034.18        2964.25           1412       11841.00     51668.96
 1034.21        2964.50           1416       13444.00     58679.93
 1034.24        2964.75           1419       14672.00     64052.79
 1034.27        2965.00           1422       15805.00     69011.52
 1034.30        2965.25           1426       17445.00     76191.83
 1034.33        2965.50           1429       18468.00     80672.34
 1034.36        2965.75           1432       19747.00     86275.77
 1034.39        2966.00           1436       21080.00     92117.78
 1034.42        2966.25           1439       22121.00     96681.50
 1034.46        2966.50           1442       23190.00    101369.30
 1034.49        2966.75           1446       24288.00    106185.60
 1034.52        2967.00           1449       24803.00    108445.10
 1034.55        2967.25           1452       24656.00    107800.10
 1034.58        2967.50           1456       24775.00    108322.20
 1034.61        2967.75           1459       24711.00    108041.40
 1034.64        2968.00           1462       24644.00    107747.50
 1034.67        2968.25           1466       23915.00    104549.30
 1034.70        2968.50           1469       22836.00     99816.77
 1034.73        2968.75           1472       21741.00     95015.46
 1034.77        2969.00           1476       20293.00     88668.42
 1034.80        2969.25           1479       19206.00     83905.36
 1034.83        2969.50           1482       18115.00     79126.15
 1034.86        2969.75           1486       16621.00     72583.78
 1034.89        2970.00           1489       15534.00     67825.31
 1034.92        2970.25           1492       14414.00     62923.82
 1034.95        2970.50           1496       12695.00     55403.69
 1034.98        2970.75           1499       11648.00     50825.04
 1035.01        2971.00           1502       10534.00     45954.77
 1035.04        2971.25           1506        8951.00     39036.54
 1035.07        2971.50           1509        7713.00     33628.07
 1035.10        2971.75           1513        6256.00     27265.10
 1035.13        2972.00           1516        5190.00     22611.24
 1035.16        2972.25           1519        4119.00     17936.85
 1035.20        2972.50           1523        2696.00     11728.19
 1035.23        2972.75           1526        1557.00      6760.31
 1035.26        2973.00           1529         752.00      3250.10
 1035.29        2973.25           1533         351.00      1501.81
 1035.32        2973.50           1536         272.00      1157.41
 1035.35        2973.75           1539         238.00      1009.18
 1035.38        2974.00           1543         188.00       791.21
 1035.41        2974.25           1546         160.00       669.15
 1035.44        2974.50           1549         121.00       499.14
 1035.47        2974.75           1553          86.00       346.56
 1035.50        2975.00           1556          69.00       272.45
 1035.53        2975.25           1559          68.00       268.09
 1035.56        2975.50           1563          57.00       220.14
 1035.59        2975.75           1566          57.00       220.14
 1035.62        2976.00           1569          54.00       207.06
 1035.66        2976.25           1573          54.00       207.06
 1035.69        2976.50           1576          54.00       207.06
 1035.72        2976.75           1579          40.00       146.03
 1035.75        2977.00           1583          65.00       255.02
 1035.78        2977.25           1586          50.00       189.63
 1035.81        2977.50           1590          51.00       193.99
 1035.84        2977.75           1593          51.00       193.99
 1035.87        2978.00           1596          52.00       198.34
 1035.90        2978.25           1600          44.00       163.47
 1035.93        2978.50           1603          46.00       172.19
 1035.96        2978.75           1606          49.00       185.27
 1035.99        2979.00           1610          51.00       193.99
 1036.03        2979.25           1613          47.00       176.55
 1036.06        2979.50           1616          52.00       198.34
 1036.09        2979.75           1620          46.00       172.19
 1036.12        2980.00           1623          53.00       202.70
 1036.15        2980.25           1626          44.00       163.47
 1036.18        2980.50           1630          49.00       185.27
 1036.21        2980.75           1633          46.00       172.19
 1036.24        2981.00           1637          57.00       220.14
 1036.27        2981.25           1640          44.00       163.47
 1036.31        2981.50           1643          55.00       211.42
 1036.34        2981.75           1647          36.00       128.60
 1036.37        2982.00           1650          52.00       198.34
 1036.40        2982.25           1653          57.00       220.14
 1036.43        2982.50           1657          50.00       189.63
 1036.46        2982.75           1660          46.00       172.19
 1036.49        2983.00           1663          57.00       220.14
 1036.52        2983.25           1667          48.00       180.91
 1036.55        2983.50           1670          46.00       172.19
 1036.58        2983.75           1673          57.00       220.14
 1036.61        2984.00           1677          51.00       193.99
HS scan finished at 17:16:50
end
