************************************************************
  HS Scan of (1) Internal mercury lamp
************************************************************
Integration time is 0.2294 seconds per sample
dh010117Manchester 53.47 2.23 2.750537pr1000
************************************************************
Dead Time -------------------------  3E-08 
Number of Cycles Used -------------  4 
Starting Wavelength (Angstroms) ---  2950 
Final Wavelength (Angstoms) -------  2984 
Wavelength Increment (Angstroms) --  .25 
Filter Wheel #1 Position ---------- (1) Ground quartz diffuser (ND=2.32)
Filter Wheel #2 Position ---------- (1) Neutral Density 0.494



************************************************************
HS scan start time = 05:26:18
Dark Count =  5.1 


Time (GMT)  Wavelength (Ang)  Step Number  Raw Counts  Counts/Second

  326.68        2950.00           1222          49.00       191.37
  326.74        2950.25           1226          47.00       182.65
  326.77        2950.50           1229          44.00       169.57
  326.80        2950.75           1232          46.00       178.29
  326.84        2951.00           1236          43.00       165.21
  326.87        2951.25           1239          37.00       139.06
  326.90        2951.50           1242          47.00       182.65
  326.93        2951.75           1246          49.00       191.37
  326.96        2952.00           1249          46.00       178.29
  326.99        2952.25           1252          47.00       182.65
  327.02        2952.50           1256          48.00       187.01
  327.05        2952.75           1259          54.00       213.17
  327.08        2953.00           1262          48.00       187.01
  327.11        2953.25           1266          45.00       173.93
  327.14        2953.50           1269          48.00       187.01
  327.18        2953.75           1272          46.00       178.29
  327.21        2954.00           1276          42.00       160.86
  327.24        2954.25           1279          47.00       182.65
  327.27        2954.50           1282          43.00       165.21
  327.30        2954.75           1286          44.00       169.57
  327.33        2955.00           1289          48.00       187.01
  327.36        2955.25           1292          48.00       187.01
  327.39        2955.50           1296          48.00       187.01
  327.42        2955.75           1299          35.00       130.34
  327.45        2956.00           1302          53.00       208.81
  327.48        2956.25           1306          43.00       165.21
  327.52        2956.50           1309          42.00       160.86
  327.55        2956.75           1312          48.00       187.01
  327.58        2957.00           1316          40.00       152.14
  327.61        2957.25           1319          44.00       169.57
  327.64        2957.50           1322          40.00       152.14
  327.67        2957.75           1326          47.00       182.65
  327.70        2958.00           1329          42.00       160.86
  327.73        2958.25           1332          51.00       200.09
  327.76        2958.50           1336          40.00       152.14
  327.79        2958.75           1339          42.00       160.86
  327.82        2959.00           1342          42.00       160.86
  327.85        2959.25           1346          46.00       178.29
  327.88        2959.50           1349          55.00       217.53
  327.91        2959.75           1352          58.00       230.60
  327.94        2960.00           1356          85.00       348.30
  327.98        2960.25           1359         118.00       492.16
  328.01        2960.50           1362         148.00       622.94
  328.04        2960.75           1366         189.00       801.68
  328.07        2961.00           1369         247.00      1054.52
  328.10        2961.25           1372         305.00      1307.37
  328.13        2961.50           1376         368.00      1582.03
  328.16        2961.75           1379         591.00      2554.25
  328.19        2962.00           1382        1304.00      5663.12
  328.22        2962.25           1386        3195.00     13911.21
  328.25        2962.50           1389        4782.00     20836.47
  328.28        2962.75           1392        6411.00     27948.01
  328.31        2963.00           1396        8562.00     37343.04
  328.35        2963.25           1399       10229.00     44627.72
  328.38        2963.50           1402       11829.00     51622.61
  328.41        2963.75           1406       14003.00     61131.63
  328.44        2964.00           1409       15679.00     68466.12
  328.47        2964.25           1412       17500.00     76438.83
  328.50        2964.50           1416       19869.00     86816.49
  328.53        2964.75           1419       21419.00     93609.94
  328.56        2965.00           1422       23232.00    101559.60
  328.59        2965.25           1426       25519.00    111593.10
  328.63        2965.50           1429       27265.00    119257.20
  328.66        2965.75           1432       28928.00    126560.30
  328.69        2966.00           1436       31072.00    135980.40
  328.72        2966.25           1439       32951.00    144240.50
  328.75        2966.50           1442       34181.00    149649.90
  328.78        2966.75           1446       35711.00    156381.00
  328.81        2967.00           1449       35979.00    157560.40
  328.84        2967.25           1452       35948.00    157423.90
  328.87        2967.50           1456       36103.00    158106.00
  328.90        2967.75           1459       36114.00    158154.40
  328.94        2968.00           1462       35807.00    156803.50
  328.97        2968.25           1466       34679.00    151840.50
  329.00        2968.50           1469       33220.00    145423.40
  329.03        2968.75           1472       31618.00    138380.20
  329.06        2969.00           1476       29516.00    129143.20
  329.09        2969.25           1479       27858.00    121861.00
  329.12        2969.50           1482       26299.00    115016.50
  329.15        2969.75           1486       24139.00    105538.10
  329.18        2970.00           1489       22471.00     98222.31
  329.22        2970.25           1492       20825.00     91006.19
  329.25        2970.50           1496       18809.00     82172.25
  329.28        2970.75           1499       16979.00     74157.40
  329.31        2971.00           1502       15431.00     67380.63
  329.34        2971.25           1506       13154.00     57417.48
  329.37        2971.50           1509       11368.00     49606.90
  329.40        2971.75           1513        9145.00     39890.35
  329.43        2972.00           1516        7402.00     32275.79
  329.46        2972.25           1519        5778.00     25184.23
  329.49        2972.50           1523        3721.00     16206.22
  329.53        2972.75           1526        2325.00     10115.97
  329.56        2973.00           1529        1128.00      4895.66
  329.59        2973.25           1533         482.00      2079.03
  329.62        2973.50           1536         369.00      1586.39
  329.65        2973.75           1539         313.00      1342.25
  329.68        2974.00           1543         241.00      1028.37
  329.71        2974.25           1546         205.00       871.43
  329.74        2974.50           1549         147.00       618.58
  329.77        2974.75           1553         104.00       431.13
  329.80        2975.00           1556          70.00       282.91
  329.83        2975.25           1559          59.00       234.96
  329.87        2975.50           1563          60.00       239.32
  329.90        2975.75           1566          46.00       178.29
  329.93        2976.00           1569          45.00       173.93
  329.96        2976.25           1573          45.00       173.93
  329.99        2976.50           1576          45.00       173.93
  330.02        2976.75           1579          51.00       200.09
  330.05        2977.00           1583          58.00       230.60
  330.08        2977.25           1586          49.00       191.37
  330.11        2977.50           1590          41.00       156.50
  330.14        2977.75           1593          54.00       213.17
  330.17        2978.00           1596          44.00       169.57
  330.20        2978.25           1600          43.00       165.21
  330.23        2978.50           1603          46.00       178.29
  330.27        2978.75           1606          47.00       182.65
  330.30        2979.00           1610          52.00       204.45
  330.33        2979.25           1613          41.00       156.50
  330.36        2979.50           1616          52.00       204.45
  330.39        2979.75           1620          38.00       143.42
  330.42        2980.00           1623          42.00       160.86
  330.45        2980.25           1626          47.00       182.65
  330.48        2980.50           1630          39.00       147.78
  330.51        2980.75           1633          46.00       178.29
  330.54        2981.00           1637          44.00       169.57
  330.58        2981.25           1640          40.00       152.14
  330.61        2981.50           1643          41.00       156.50
  330.64        2981.75           1647          39.00       147.78
  330.67        2982.00           1650          41.00       156.50
  330.70        2982.25           1653          41.00       156.50
  330.73        2982.50           1657          41.00       156.50
  330.76        2982.75           1660          49.00       191.37
  330.79        2983.00           1663          36.00       134.70
  330.82        2983.25           1667          38.00       143.42
  330.85        2983.50           1670          44.00       169.57
  330.88        2983.75           1673          41.00       156.50
  330.92        2984.00           1677          42.00       160.86
HS scan finished at 05:31:08
end
************************************************************
  HS Scan of (1) Internal mercury lamp
************************************************************
Integration time is 0.2294 seconds per sample
dh010117Manchester 53.47 2.23 2.750537pr1000
************************************************************
Dead Time -------------------------  3E-08 
Number of Cycles Used -------------  4 
Starting Wavelength (Angstroms) ---  2950 
Final Wavelength (Angstoms) -------  2984 
Wavelength Increment (Angstroms) --  .25 
Filter Wheel #1 Position ---------- (1) Ground quartz diffuser (ND=2.32)
Filter Wheel #2 Position ---------- (1) Neutral Density 0.494



************************************************************
HS scan start time = 17:12:01
Dark Count =  7 


Time (GMT)  Wavelength (Ang)  Step Number  Raw Counts  Counts/Second

 1032.39        2950.00           1222          44.00       161.29
 1032.46        2950.25           1226          38.00       135.14
 1032.49        2950.50           1229          49.00       183.09
 1032.52        2950.75           1232          44.00       161.29
 1032.55        2951.00           1236          40.00       143.85
 1032.58        2951.25           1239          47.00       174.37
 1032.61        2951.50           1242          43.00       156.93
 1032.64        2951.75           1246          45.00       165.65
 1032.67        2952.00           1249          48.00       178.73
 1032.71        2952.25           1252          45.00       165.65
 1032.74        2952.50           1256          46.00       170.01
 1032.77        2952.75           1259          43.00       156.93
 1032.80        2953.00           1262          48.00       178.73
 1032.83        2953.25           1266          50.00       187.45
 1032.86        2953.50           1269          41.00       148.21
 1032.89        2953.75           1272          40.00       143.85
 1032.92        2954.00           1276          49.00       183.09
 1032.95        2954.25           1279          43.00       156.93
 1032.98        2954.50           1282          45.00       165.65
 1033.02        2954.75           1286          40.00       143.85
 1033.05        2955.00           1289          45.00       165.65
 1033.08        2955.25           1292          41.00       148.21
 1033.11        2955.50           1296          42.00       152.57
 1033.14        2955.75           1299          48.00       178.73
 1033.17        2956.00           1302          43.00       156.93
 1033.20        2956.25           1306          48.00       178.73
 1033.23        2956.50           1309          43.00       156.93
 1033.26        2956.75           1312          46.00       170.01
 1033.29        2957.00           1316          48.00       178.73
 1033.32        2957.25           1319          39.00       139.49
 1033.35        2957.50           1322          48.00       178.73
 1033.39        2957.75           1326          47.00       174.37
 1033.42        2958.00           1329          50.00       187.45
 1033.45        2958.25           1332          49.00       183.09
 1033.48        2958.50           1336          49.00       183.09
 1033.51        2958.75           1339          45.00       165.65
 1033.54        2959.00           1342          44.00       161.29
 1033.57        2959.25           1346          50.00       187.45
 1033.60        2959.50           1349          53.00       200.52
 1033.63        2959.75           1352          60.00       231.04
 1033.66        2960.00           1356          93.00       374.90
 1033.69        2960.25           1359         122.00       501.32
 1033.73        2960.50           1362         154.00       640.81
 1033.76        2960.75           1366         217.00       915.46
 1033.79        2961.00           1369         255.00      1081.12
 1033.82        2961.25           1372         320.00      1364.48
 1033.85        2961.50           1376         395.00      1691.45
 1033.88        2961.75           1379         533.00      2293.10
 1033.91        2962.00           1382        1073.00      4647.55
 1033.94        2962.25           1386        2574.00     11193.82
 1033.97        2962.50           1389        4086.00     17790.66
 1034.00        2962.75           1392        5720.00     24922.73
 1034.04        2963.00           1396        7687.00     33512.32
 1034.07        2963.25           1399        9258.00     40375.82
 1034.10        2963.50           1402       11101.00     48431.26
 1034.13        2963.75           1406       13352.00     58275.29
 1034.16        2964.00           1409       14970.00     65354.69
 1034.19        2964.25           1412       16642.00     72673.53
 1034.22        2964.50           1416       19022.00     83097.04
 1034.25        2964.75           1419       20750.00     90669.14
 1034.28        2965.00           1422       22343.00     97652.71
 1034.31        2965.25           1426       24424.00    106780.10
 1034.35        2965.50           1429       26292.00    114977.40
 1034.38        2965.75           1432       27747.00    121365.20
 1034.41        2966.00           1436       29981.00    131177.80
 1034.44        2966.25           1439       31480.00    137765.20
 1034.47        2966.50           1442       33159.00    145146.80
 1034.50        2966.75           1446       34742.00    152109.30
 1034.53        2967.00           1449       35398.00    154995.40
 1034.56        2967.25           1452       35545.00    155642.20
 1034.59        2967.50           1456       35693.00    156293.50
 1034.62        2967.75           1459       35705.00    156346.30
 1034.66        2968.00           1462       35602.00    155893.00
 1034.69        2968.25           1466       34707.00    151955.30
 1034.72        2968.50           1469       33444.00    146400.10
 1034.75        2968.75           1472       32056.00    140297.20
 1034.78        2969.00           1476       29865.00    130668.20
 1034.81        2969.25           1479       28113.00    122972.50
 1034.84        2969.50           1482       26499.00    115886.10
 1034.87        2969.75           1486       24260.00    106060.60
 1034.90        2970.00           1489       22567.00     98634.94
 1034.94        2970.25           1492       20915.00     91392.34
 1034.97        2970.50           1496       18737.00     81848.51
 1035.00        2970.75           1499       17211.00     75164.94
 1035.03        2971.00           1502       15520.00     67761.85
 1035.06        2971.25           1506       13359.00     58305.91
 1035.09        2971.50           1509       11630.00     50744.15
 1035.12        2971.75           1513        9509.00     41472.67
 1035.15        2972.00           1516        7847.00     34211.21
 1035.18        2972.25           1519        6360.00     27717.02
 1035.22        2972.50           1523        4278.00     18628.54
 1035.25        2972.75           1526        2678.00     11647.49
 1035.28        2973.00           1529        1375.00      5964.45
 1035.31        2973.25           1533         490.00      2105.63
 1035.34        2973.50           1536         346.00      1477.83
 1035.37        2973.75           1539         290.00      1233.70
 1035.40        2974.00           1543         250.00      1059.32
 1035.43        2974.25           1546         195.00       819.55
 1035.46        2974.50           1549         145.00       601.58
 1035.49        2974.75           1553         112.00       457.72
 1035.52        2975.00           1556          59.00       226.68
 1035.56        2975.25           1559          56.00       213.60
 1035.59        2975.50           1563          49.00       183.09
 1035.62        2975.75           1566          56.00       213.60
 1035.65        2976.00           1569          49.00       183.09
 1035.68        2976.25           1573          50.00       187.45
 1035.71        2976.50           1576          41.00       148.21
 1035.74        2976.75           1579          44.00       161.29
 1035.77        2977.00           1583          46.00       170.01
 1035.80        2977.25           1586          44.00       161.29
 1035.83        2977.50           1590          49.00       183.09
 1035.86        2977.75           1593          52.00       196.17
 1035.89        2978.00           1596          44.00       161.29
 1035.93        2978.25           1600          42.00       152.57
 1035.96        2978.50           1603          48.00       178.73
 1035.99        2978.75           1606          43.00       156.93
 1036.02        2979.00           1610          46.00       170.01
 1036.05        2979.25           1613          51.00       191.81
 1036.08        2979.50           1616          44.00       161.29
 1036.11        2979.75           1620          45.00       165.65
 1036.14        2980.00           1623          45.00       165.65
 1036.17        2980.25           1626          39.00       139.49
 1036.20        2980.50           1630          52.00       196.17
 1036.23        2980.75           1633          45.00       165.65
 1036.26        2981.00           1637          45.00       165.65
 1036.29        2981.25           1640          39.00       139.49
 1036.32        2981.50           1643          39.00       139.49
 1036.36        2981.75           1647          41.00       148.21
 1036.39        2982.00           1650          40.00       143.85
 1036.42        2982.25           1653          46.00       170.01
 1036.45        2982.50           1657          44.00       161.29
 1036.48        2982.75           1660          41.00       148.21
 1036.51        2983.00           1663          40.00       143.85
 1036.54        2983.25           1667          41.00       148.21
 1036.57        2983.50           1670          44.00       161.29
 1036.60        2983.75           1673          48.00       178.73
 1036.63        2984.00           1677          45.00       165.65
HS scan finished at 17:16:51
end
