************************************************************
  HS Scan of (1) Internal mercury lamp
************************************************************
Integration time is 0.2294 seconds per sample
dh090118Manchester 53.47 2.23 2.804185pr1000
************************************************************
Dead Time -------------------------  3E-08 
Number of Cycles Used -------------  4 
Starting Wavelength (Angstroms) ---  2950 
Final Wavelength (Angstoms) -------  2984 
Wavelength Increment (Angstroms) --  .25 
Filter Wheel #1 Position ---------- (1) Ground quartz diffuser (ND=2.32)
Filter Wheel #2 Position ---------- (1) Neutral Density 0.494



************************************************************
HS scan start time = 05:25:19
Dark Count =  5.6 


Time (GMT)  Wavelength (Ang)  Step Number  Raw Counts  Counts/Second

  325.69        2950.00           1222          59.00       232.78
  325.76        2950.25           1226          65.00       258.94
  325.79        2950.50           1229          53.00       206.63
  325.82        2950.75           1232          54.00       210.99
  325.85        2951.00           1236          61.00       241.50
  325.88        2951.25           1239          63.00       250.22
  325.91        2951.50           1242          60.00       237.14
  325.94        2951.75           1246          61.00       241.50
  325.97        2952.00           1249          69.00       276.38
  326.00        2952.25           1252          63.00       250.22
  326.03        2952.50           1256          61.00       241.50
  326.06        2952.75           1259          65.00       258.94
  326.09        2953.00           1262          68.00       272.02
  326.12        2953.25           1266          52.00       202.27
  326.15        2953.50           1269          63.00       250.22
  326.19        2953.75           1272          64.00       254.58
  326.22        2954.00           1276          60.00       237.14
  326.25        2954.25           1279          59.00       232.78
  326.28        2954.50           1282          58.00       228.42
  326.31        2954.75           1286          55.00       215.35
  326.34        2955.00           1289          57.00       224.06
  326.37        2955.25           1292          60.00       237.14
  326.40        2955.50           1296          56.00       219.71
  326.43        2955.75           1299          68.00       272.02
  326.46        2956.00           1302          55.00       215.35
  326.49        2956.25           1306          61.00       241.50
  326.53        2956.50           1309          59.00       232.78
  326.56        2956.75           1312          66.00       263.30
  326.59        2957.00           1316          55.00       215.35
  326.62        2957.25           1319          62.00       245.86
  326.65        2957.50           1322          66.00       263.30
  326.68        2957.75           1326          65.00       258.94
  326.71        2958.00           1329          57.00       224.06
  326.74        2958.25           1332          66.00       263.30
  326.77        2958.50           1336          61.00       241.50
  326.80        2958.75           1339          63.00       250.22
  326.83        2959.00           1342          65.00       258.94
  326.86        2959.25           1346          65.00       258.94
  326.89        2959.50           1349          61.00       241.50
  326.93        2959.75           1352          79.00       319.97
  326.96        2960.00           1356         102.00       420.23
  326.99        2960.25           1359         137.00       572.81
  327.02        2960.50           1362         169.00       712.31
  327.05        2960.75           1366         208.00       882.32
  327.08        2961.00           1369         267.00      1139.53
  327.11        2961.25           1372         302.00      1292.12
  327.14        2961.50           1376         385.00      1653.96
  327.17        2961.75           1379         669.00      2892.14
  327.20        2962.00           1382        1456.00      6323.78
  327.23        2962.25           1386        3258.00     14183.89
  327.27        2962.50           1389        4690.00     20432.75
  327.30        2962.75           1392        6153.00     26819.31
  327.33        2963.00           1396        8071.00     35195.82
  327.36        2963.25           1399        9608.00     41911.43
  327.39        2963.50           1402       11186.00     48808.99
  327.42        2963.75           1406       13120.00     57266.57
  327.45        2964.00           1409       14753.00     64411.18
  327.48        2964.25           1412       16380.00     71532.60
  327.51        2964.50           1416       18389.00     80330.24
  327.55        2964.75           1419       19950.00     87169.25
  327.58        2965.00           1422       21559.00     94221.49
  327.61        2965.25           1426       23441.00    102474.10
  327.64        2965.50           1429       24993.00    109282.70
  327.67        2965.75           1432       26489.00    115848.30
  327.70        2966.00           1436       28514.00    124739.70
  327.73        2966.25           1439       29950.00    131047.80
  327.76        2966.50           1442       31377.00    137318.70
  327.79        2966.75           1446       32519.00    142338.90
  327.83        2967.00           1449       32886.00    143952.50
  327.86        2967.25           1452       32881.00    143930.50
  327.89        2967.50           1456       32913.00    144071.20
  327.92        2967.75           1459       33009.00    144493.40
  327.95        2968.00           1462       32467.00    142110.30
  327.98        2968.25           1466       31322.00    137076.90
  328.01        2968.50           1469       30018.00    131346.60
  328.04        2968.75           1472       28674.00    125442.40
  328.07        2969.00           1476       26740.00    116950.20
  328.11        2969.25           1479       25029.00    109440.70
  328.14        2969.50           1482       23658.00    103425.90
  328.17        2969.75           1486       21862.00     95549.88
  328.20        2970.00           1489       20245.00     88462.02
  328.23        2970.25           1492       18789.00     82082.44
  328.26        2970.50           1496       16930.00     73940.65
  328.29        2970.75           1499       15347.00     67010.78
  328.32        2971.00           1502       13797.00     60228.17
  328.35        2971.25           1506       11617.00     50693.43
  328.38        2971.50           1509       10149.00     44275.87
  328.41        2971.75           1513        8127.00     35440.45
  328.44        2972.00           1516        6712.00     29260.20
  328.47        2972.25           1519        5132.00     22361.99
  328.51        2972.50           1523        3153.00     13725.79
  328.54        2972.75           1526        1790.00      7780.37
  328.57        2973.00           1529         798.00      3454.59
  328.60        2973.25           1533         424.00      1823.99
  328.63        2973.50           1536         349.00      1497.02
  328.66        2973.75           1539         300.00      1283.40
  328.69        2974.00           1543         260.00      1109.02
  328.72        2974.25           1546         182.00       768.98
  328.75        2974.50           1549         156.00       655.64
  328.78        2974.75           1553         109.00       450.75
  328.82        2975.00           1556          86.00       350.48
  328.85        2975.25           1559          66.00       263.30
  328.88        2975.50           1563          59.00       232.78
  328.91        2975.75           1566          67.00       267.66
  328.94        2976.00           1569          68.00       272.02
  328.97        2976.25           1573          62.00       245.86
  329.00        2976.50           1576          69.00       276.38
  329.03        2976.75           1579          62.00       245.86
  329.06        2977.00           1583          70.00       280.73
  329.09        2977.25           1586          62.00       245.86
  329.12        2977.50           1590          48.00       184.83
  329.15        2977.75           1593          54.00       210.99
  329.18        2978.00           1596          59.00       232.78
  329.21        2978.25           1600          56.00       219.71
  329.25        2978.50           1603          61.00       241.50
  329.28        2978.75           1606          60.00       237.14
  329.31        2979.00           1610          55.00       215.35
  329.34        2979.25           1613          62.00       245.86
  329.37        2979.50           1616          56.00       219.71
  329.40        2979.75           1620          51.00       197.91
  329.43        2980.00           1623          58.00       228.42
  329.46        2980.25           1626          57.00       224.06
  329.49        2980.50           1630          52.00       202.27
  329.52        2980.75           1633          61.00       241.50
  329.55        2981.00           1637          56.00       219.71
  329.58        2981.25           1640          52.00       202.27
  329.61        2981.50           1643          54.00       210.99
  329.64        2981.75           1647          58.00       228.42
  329.68        2982.00           1650          50.00       193.55
  329.71        2982.25           1653          57.00       224.06
  329.74        2982.50           1657          66.00       263.30
  329.77        2982.75           1660          53.00       206.63
  329.80        2983.00           1663          50.00       193.55
  329.83        2983.25           1667          55.00       215.35
  329.86        2983.50           1670          56.00       219.71
  329.89        2983.75           1673          51.00       197.91
  329.92        2984.00           1677          56.00       219.71
HS scan finished at 05:30:08
end
************************************************************
  HS Scan of (1) Internal mercury lamp
************************************************************
Integration time is 0.2294 seconds per sample
dh090118Manchester 53.47 2.23 2.750537pr1000
************************************************************
Dead Time -------------------------  3E-08 
Number of Cycles Used -------------  4 
Starting Wavelength (Angstroms) ---  2950 
Final Wavelength (Angstoms) -------  2984 
Wavelength Increment (Angstroms) --  .25 
Filter Wheel #1 Position ---------- (1) Ground quartz diffuser (ND=2.32)
Filter Wheel #2 Position ---------- (1) Neutral Density 0.494



************************************************************
HS scan start time = 17:12:03
Dark Count =  6.2 


Time (GMT)  Wavelength (Ang)  Step Number  Raw Counts  Counts/Second

 1032.43        2950.00           1222          67.00       265.04
 1032.50        2950.25           1226          57.00       221.45
 1032.53        2950.50           1229          60.00       234.53
 1032.56        2950.75           1232          66.00       260.68
 1032.59        2951.00           1236          58.00       225.81
 1032.62        2951.25           1239          64.00       251.96
 1032.65        2951.50           1242          64.00       251.96
 1032.68        2951.75           1246          55.00       212.73
 1032.71        2952.00           1249          81.00       326.07
 1032.75        2952.25           1252          61.00       238.89
 1032.78        2952.50           1256          53.00       204.01
 1032.81        2952.75           1259          62.00       243.25
 1032.84        2953.00           1262          65.00       256.32
 1032.87        2953.25           1266          53.00       204.01
 1032.90        2953.50           1269          59.00       230.17
 1032.93        2953.75           1272          57.00       221.45
 1032.96        2954.00           1276          54.00       208.37
 1032.99        2954.25           1279          61.00       238.89
 1033.02        2954.50           1282          59.00       230.17
 1033.05        2954.75           1286          62.00       243.25
 1033.09        2955.00           1289          51.00       195.29
 1033.12        2955.25           1292          68.00       269.40
 1033.15        2955.50           1296          55.00       212.73
 1033.18        2955.75           1299          56.00       217.09
 1033.21        2956.00           1302          69.00       273.76
 1033.24        2956.25           1306          66.00       260.68
 1033.27        2956.50           1309          63.00       247.60
 1033.30        2956.75           1312          58.00       225.81
 1033.33        2957.00           1316          59.00       230.17
 1033.36        2957.25           1319          65.00       256.32
 1033.39        2957.50           1322          65.00       256.32
 1033.42        2957.75           1326          69.00       273.76
 1033.46        2958.00           1329          59.00       230.17
 1033.49        2958.25           1332          64.00       251.96
 1033.52        2958.50           1336          58.00       225.81
 1033.55        2958.75           1339          65.00       256.32
 1033.58        2959.00           1342          55.00       212.73
 1033.61        2959.25           1346          63.00       247.60
 1033.64        2959.50           1349          72.00       286.84
 1033.67        2959.75           1352          75.00       299.92
 1033.70        2960.00           1356         113.00       465.57
 1033.73        2960.25           1359         135.00       561.47
 1033.76        2960.50           1362         174.00       731.49
 1033.79        2960.75           1366         222.00       940.74
 1033.83        2961.00           1369         264.00      1123.84
 1033.86        2961.25           1372         296.00      1263.34
 1033.89        2961.50           1376         400.00      1716.74
 1033.92        2961.75           1379         625.00      2697.69
 1033.95        2962.00           1382        1440.00      6251.39
 1033.98        2962.25           1386        3262.00     14198.72
 1034.01        2962.50           1389        4674.00     20360.30
 1034.04        2962.75           1392        6231.00     27157.25
 1034.07        2963.00           1396        8292.00     36158.65
 1034.10        2963.25           1399        9761.00     42577.46
 1034.13        2963.50           1402       11344.00     49497.16
 1034.16        2963.75           1406       13430.00     58620.00
 1034.20        2964.00           1409       15012.00     65542.00
 1034.23        2964.25           1412       16564.00     72335.54
 1034.26        2964.50           1416       18475.00     80704.32
 1034.29        2964.75           1419       19897.00     86934.37
 1034.32        2965.00           1422       21416.00     93591.98
 1034.35        2965.25           1426       23541.00    102910.10
 1034.38        2965.50           1429       25135.00    109903.20
 1034.41        2965.75           1432       26861.00    117478.70
 1034.44        2966.00           1436       28753.00    125786.80
 1034.47        2966.25           1439       30076.00    131598.70
 1034.51        2966.50           1442       31617.00    138370.90
 1034.54        2966.75           1446       32558.00    142507.70
 1034.57        2967.00           1449       32697.00    143118.90
 1034.60        2967.25           1452       32921.00    144103.80
 1034.63        2967.50           1456       32809.00    143611.30
 1034.66        2967.75           1459       32611.00    142740.70
 1034.69        2968.00           1462       32453.00    142046.10
 1034.72        2968.25           1466       30924.00    135325.10
 1034.75        2968.50           1469       29599.00    129503.00
 1034.78        2968.75           1472       28234.00    123507.40
 1034.82        2969.00           1476       26428.00    115577.90
 1034.85        2969.25           1479       24670.00    107862.90
 1034.88        2969.50           1482       23242.00    101598.70
 1034.91        2969.75           1486       21166.00     92496.07
 1034.94        2970.00           1489       19677.00     85970.35
 1034.97        2970.25           1492       18170.00     79368.35
 1035.00        2970.50           1496       16206.00     70768.22
 1035.03        2970.75           1499       14737.00     64338.54
 1035.06        2971.00           1502       13120.00     57263.94
 1035.09        2971.25           1506       11258.00     49121.16
 1035.13        2971.50           1509        9743.00     42498.79
 1035.16        2971.75           1513        7800.00     34009.40
 1035.19        2972.00           1516        6214.00     27083.02
 1035.22        2972.25           1519        4631.00     20172.62
 1035.25        2972.50           1523        2795.00     12161.37
 1035.28        2972.75           1526        1477.00      6412.74
 1035.31        2973.00           1529         684.00      2954.93
 1035.34        2973.25           1533         379.00      1625.19
 1035.37        2973.50           1536         302.00      1289.50
 1035.40        2973.75           1539         258.00      1097.68
 1035.43        2974.00           1543         204.00       862.27
 1035.46        2974.25           1546         174.00       731.49
 1035.50        2974.50           1549         119.00       491.72
 1035.53        2974.75           1553          94.00       382.74
 1035.56        2975.00           1556          73.00       291.20
 1035.59        2975.25           1559          64.00       251.96
 1035.62        2975.50           1563          62.00       243.25
 1035.65        2975.75           1566          56.00       217.09
 1035.68        2976.00           1569          68.00       269.40
 1035.71        2976.25           1573          60.00       234.53
 1035.74        2976.50           1576          60.00       234.53
 1035.77        2976.75           1579          65.00       256.32
 1035.80        2977.00           1583          61.00       238.89
 1035.83        2977.25           1586          58.00       225.81
 1035.87        2977.50           1590          59.00       230.17
 1035.90        2977.75           1593          56.00       217.09
 1035.93        2978.00           1596          67.00       265.04
 1035.96        2978.25           1600          65.00       256.32
 1035.99        2978.50           1603          58.00       225.81
 1036.02        2978.75           1606          60.00       234.53
 1036.05        2979.00           1610          59.00       230.17
 1036.08        2979.25           1613          67.00       265.04
 1036.11        2979.50           1616          56.00       217.09
 1036.14        2979.75           1620          47.00       177.86
 1036.17        2980.00           1623          60.00       234.53
 1036.21        2980.25           1626          63.00       247.60
 1036.24        2980.50           1630          51.00       195.29
 1036.27        2980.75           1633          56.00       217.09
 1036.30        2981.00           1637          56.00       217.09
 1036.33        2981.25           1640          55.00       212.73
 1036.36        2981.50           1643          50.00       190.93
 1036.39        2981.75           1647          57.00       221.45
 1036.42        2982.00           1650          59.00       230.17
 1036.45        2982.25           1653          62.00       243.25
 1036.48        2982.50           1657          61.00       238.89
 1036.51        2982.75           1660          58.00       225.81
 1036.54        2983.00           1663          57.00       221.45
 1036.57        2983.25           1667          46.00       173.50
 1036.60        2983.50           1670          57.00       221.45
 1036.64        2983.75           1673          56.00       217.09
 1036.67        2984.00           1677          50.00       190.93
HS scan finished at 17:16:53
end
