************************************************************
  HS Scan of (1) Internal mercury lamp
************************************************************
Integration time is 0.2294 seconds per sample
dh070117Manchester 53.47 2.23 2.804185pr1000
************************************************************
Dead Time -------------------------  3E-08 
Number of Cycles Used -------------  4 
Starting Wavelength (Angstroms) ---  2950 
Final Wavelength (Angstoms) -------  2984 
Wavelength Increment (Angstroms) --  .25 
Filter Wheel #1 Position ---------- (1) Ground quartz diffuser (ND=2.32)
Filter Wheel #2 Position ---------- (1) Neutral Density 0.494



************************************************************
HS scan start time = 05:25:46
Dark Count =  4.8 


Time (GMT)  Wavelength (Ang)  Step Number  Raw Counts  Counts/Second

  326.13        2950.00           1222          42.00       162.16
  326.20        2950.25           1226          46.00       179.60
  326.23        2950.50           1229          45.00       175.24
  326.26        2950.75           1232          51.00       201.40
  326.29        2951.00           1236          51.00       201.40
  326.32        2951.25           1239          43.00       166.52
  326.35        2951.50           1242          44.00       170.88
  326.38        2951.75           1246          43.00       166.52
  326.41        2952.00           1249          37.00       140.37
  326.44        2952.25           1252          45.00       175.24
  326.47        2952.50           1256          40.00       153.44
  326.50        2952.75           1259          44.00       170.88
  326.53        2953.00           1262          39.00       149.09
  326.56        2953.25           1266          44.00       170.88
  326.60        2953.50           1269          50.00       197.04
  326.63        2953.75           1272          45.00       175.24
  326.66        2954.00           1276          45.00       175.24
  326.69        2954.25           1279          43.00       166.52
  326.72        2954.50           1282          44.00       170.88
  326.75        2954.75           1286          45.00       175.24
  326.78        2955.00           1289          47.00       183.96
  326.81        2955.25           1292          43.00       166.52
  326.84        2955.50           1296          48.00       188.32
  326.87        2955.75           1299          50.00       197.04
  326.90        2956.00           1302          48.00       188.32
  326.93        2956.25           1306          46.00       179.60
  326.96        2956.50           1309          48.00       188.32
  326.99        2956.75           1312          45.00       175.24
  327.03        2957.00           1316          45.00       175.24
  327.06        2957.25           1319          38.00       144.73
  327.09        2957.50           1322          42.00       162.16
  327.12        2957.75           1326          50.00       197.04
  327.15        2958.00           1329          46.00       179.60
  327.18        2958.25           1332          46.00       179.60
  327.21        2958.50           1336          42.00       162.16
  327.24        2958.75           1339          46.00       179.60
  327.27        2959.00           1342          53.00       210.11
  327.30        2959.25           1346          49.00       192.68
  327.33        2959.50           1349          55.00       218.83
  327.37        2959.75           1352          55.00       218.83
  327.40        2960.00           1356          77.00       314.74
  327.43        2960.25           1359         105.00       436.80
  327.46        2960.50           1362         144.00       606.81
  327.49        2960.75           1366         192.00       816.06
  327.52        2961.00           1369         227.00       968.64
  327.55        2961.25           1372         283.00      1212.77
  327.58        2961.50           1376         347.00      1491.78
  327.61        2961.75           1379         437.00      1884.15
  327.64        2962.00           1382         695.00      3008.99
  327.67        2962.25           1386        1882.00      8185.10
  327.71        2962.50           1389        3223.00     14034.68
  327.74        2962.75           1392        4708.00     20514.80
  327.77        2963.00           1396        6991.00     30482.10
  327.80        2963.25           1399        8478.00     36977.36
  327.83        2963.50           1402       10171.00     44375.52
  327.86        2963.75           1406       12570.00     54864.42
  327.89        2964.00           1409       14319.00     62515.57
  327.92        2964.25           1412       16143.00     70498.55
  327.95        2964.50           1416       18378.00     80285.56
  327.98        2964.75           1419       20094.00     87803.78
  328.01        2965.00           1422       21775.00     95171.96
  328.04        2965.25           1426       23871.00    104363.70
  328.07        2965.50           1429       25723.00    112489.70
  328.11        2965.75           1432       27113.00    118591.20
  328.14        2966.00           1436       29501.00    129078.70
  328.17        2966.25           1439       31098.00    136095.90
  328.20        2966.50           1442       32700.00    143138.20
  328.23        2966.75           1446       34590.00    151450.30
  328.26        2967.00           1449       35629.00    156021.50
  328.29        2967.25           1452       35785.00    156708.00
  328.32        2967.50           1456       35813.00    156831.20
  328.35        2967.75           1459       35924.00    157319.60
  328.39        2968.00           1462       36007.00    157684.90
  328.42        2968.25           1466       35453.00    155247.10
  328.45        2968.50           1469       34556.00    151300.70
  328.48        2968.75           1472       33128.00    145020.10
  328.51        2969.00           1476       31076.00    135999.30
  328.54        2969.25           1479       29457.00    128885.40
  328.57        2969.50           1482       27771.00    121480.30
  328.60        2969.75           1486       25566.00    111800.70
  328.63        2970.00           1489       23885.00    104425.20
  328.66        2970.25           1492       22023.00     96259.26
  328.69        2970.50           1496       19814.00     86576.79
  328.72        2970.75           1499       18280.00     79856.30
  328.76        2971.00           1502       16630.00     72630.63
  328.79        2971.25           1506       14395.00     62848.12
  328.82        2971.50           1509       12987.00     56688.31
  328.85        2971.75           1513       10794.00     47098.76
  328.88        2972.00           1516        9401.00     41010.33
  328.91        2972.25           1519        7715.00     33644.23
  328.94        2972.50           1523        5442.00     23718.70
  328.97        2972.75           1526        3788.00     16499.88
  329.01        2973.00           1529        2322.00     10104.20
  329.04        2973.25           1533         820.00      3554.00
  329.07        2973.50           1536         439.00      1892.87
  329.10        2973.75           1539         313.00      1343.56
  329.13        2974.00           1543         262.00      1121.22
  329.16        2974.25           1546         204.00       868.37
  329.19        2974.50           1549         148.00       624.25
  329.22        2974.75           1553          88.00       362.69
  329.25        2975.00           1556          75.00       306.02
  329.29        2975.25           1559          61.00       244.99
  329.32        2975.50           1563          45.00       175.24
  329.35        2975.75           1566          49.00       192.68
  329.38        2976.00           1569          48.00       188.32
  329.41        2976.25           1573          51.00       201.40
  329.44        2976.50           1576          42.00       162.16
  329.47        2976.75           1579          51.00       201.40
  329.50        2977.00           1583          46.00       179.60
  329.53        2977.25           1586          47.00       183.96
  329.56        2977.50           1590          43.00       166.52
  329.59        2977.75           1593          46.00       179.60
  329.62        2978.00           1596          50.00       197.04
  329.65        2978.25           1600          52.00       205.76
  329.68        2978.50           1603          49.00       192.68
  329.72        2978.75           1606          46.00       179.60
  329.75        2979.00           1610          39.00       149.09
  329.78        2979.25           1613          45.00       175.24
  329.81        2979.50           1616          50.00       197.04
  329.84        2979.75           1620          46.00       179.60
  329.87        2980.00           1623          30.00       109.85
  329.90        2980.25           1626          39.00       149.09
  329.93        2980.50           1630          45.00       175.24
  329.96        2980.75           1633          47.00       183.96
  329.99        2981.00           1637          39.00       149.09
  330.02        2981.25           1640          41.00       157.80
  330.06        2981.50           1643          37.00       140.37
  330.09        2981.75           1647          43.00       166.52
  330.12        2982.00           1650          47.00       183.96
  330.15        2982.25           1653          43.00       166.52
  330.18        2982.50           1657          40.00       153.44
  330.21        2982.75           1660          38.00       144.73
  330.24        2983.00           1663          49.00       192.68
  330.27        2983.25           1667          39.00       149.09
  330.30        2983.50           1670          43.00       166.52
  330.33        2983.75           1673          35.00       131.65
  330.36        2984.00           1677          39.00       149.09
HS scan finished at 05:30:35
end
************************************************************
  HS Scan of (1) Internal mercury lamp
************************************************************
Integration time is 0.2294 seconds per sample
dh070117Manchester 53.47 2.23 2.804185pr1000
************************************************************
Dead Time -------------------------  3E-08 
Number of Cycles Used -------------  4 
Starting Wavelength (Angstroms) ---  2950 
Final Wavelength (Angstoms) -------  2984 
Wavelength Increment (Angstroms) --  .25 
Filter Wheel #1 Position ---------- (1) Ground quartz diffuser (ND=2.32)
Filter Wheel #2 Position ---------- (1) Neutral Density 0.494



************************************************************
HS scan start time = 17:13:13
Dark Count =  4.8 


Time (GMT)  Wavelength (Ang)  Step Number  Raw Counts  Counts/Second

 1033.58        2950.00           1222          42.00       162.16
 1033.65        2950.25           1226          48.00       188.32
 1033.68        2950.50           1229          44.00       170.88
 1033.71        2950.75           1232          46.00       179.60
 1033.74        2951.00           1236          50.00       197.04
 1033.77        2951.25           1239          45.00       175.24
 1033.80        2951.50           1242          44.00       170.88
 1033.83        2951.75           1246          40.00       153.44
 1033.86        2952.00           1249          37.00       140.37
 1033.89        2952.25           1252          49.00       192.68
 1033.92        2952.50           1256          52.00       205.76
 1033.95        2952.75           1259          51.00       201.40
 1033.98        2953.00           1262          48.00       188.32
 1034.01        2953.25           1266          46.00       179.60
 1034.05        2953.50           1269          40.00       153.44
 1034.08        2953.75           1272          40.00       153.44
 1034.11        2954.00           1276          43.00       166.52
 1034.14        2954.25           1279          42.00       162.16
 1034.17        2954.50           1282          43.00       166.52
 1034.20        2954.75           1286          40.00       153.44
 1034.23        2955.00           1289          38.00       144.73
 1034.26        2955.25           1292          45.00       175.24
 1034.29        2955.50           1296          44.00       170.88
 1034.32        2955.75           1299          43.00       166.52
 1034.35        2956.00           1302          51.00       201.40
 1034.38        2956.25           1306          42.00       162.16
 1034.41        2956.50           1309          45.00       175.24
 1034.44        2956.75           1312          47.00       183.96
 1034.47        2957.00           1316          47.00       183.96
 1034.50        2957.25           1319          49.00       192.68
 1034.53        2957.50           1322          50.00       197.04
 1034.57        2957.75           1326          49.00       192.68
 1034.60        2958.00           1329          46.00       179.60
 1034.63        2958.25           1332          41.00       157.80
 1034.66        2958.50           1336          51.00       201.40
 1034.69        2958.75           1339          43.00       166.52
 1034.72        2959.00           1342          46.00       179.60
 1034.75        2959.25           1346          48.00       188.32
 1034.78        2959.50           1349          55.00       218.83
 1034.81        2959.75           1352          66.00       266.79
 1034.84        2960.00           1356         104.00       432.44
 1034.87        2960.25           1359         130.00       545.78
 1034.90        2960.50           1362         159.00       672.20
 1034.93        2960.75           1366         223.00       951.20
 1034.96        2961.00           1369         266.00      1138.66
 1034.99        2961.25           1372         328.00      1408.95
 1035.03        2961.50           1376         384.00      1653.09
 1035.06        2961.75           1379         572.00      2472.72
 1035.09        2962.00           1382        1165.00      5058.31
 1035.12        2962.25           1386        2824.00     12293.99
 1035.15        2962.50           1389        4391.00     19131.29
 1035.18        2962.75           1392        5944.00     25910.28
 1035.21        2963.00           1396        8157.00     35575.01
 1035.24        2963.25           1399        9746.00     42518.02
 1035.27        2963.50           1402       11300.00     49310.91
 1035.30        2963.75           1406       13426.00     58608.63
 1035.33        2964.00           1409       15183.00     66296.51
 1035.37        2964.25           1412       16862.00     73646.40
 1035.40        2964.50           1416       18964.00     82852.58
 1035.43        2964.75           1419       20684.00     90389.50
 1035.46        2965.00           1422       22482.00     98271.85
 1035.49        2965.25           1426       24734.00    108149.80
 1035.52        2965.50           1429       26403.00    115474.30
 1035.55        2965.75           1432       28009.00    122525.40
 1035.58        2966.00           1436       30158.00    131965.20
 1035.62        2966.25           1439       31493.00    137832.10
 1035.65        2966.50           1442       33099.00    144892.60
 1035.68        2966.75           1446       34764.00    152215.70
 1035.71        2967.00           1449       35421.00    155106.30
 1035.74        2967.25           1452       35393.00    154983.10
 1035.77        2967.50           1456       35182.00    154054.70
 1035.80        2967.75           1459       35327.00    154692.70
 1035.83        2968.00           1462       35202.00    154142.70
 1035.86        2968.25           1466       34160.00    149558.80
 1035.90        2968.50           1469       32958.00    144272.60
 1035.93        2968.75           1472       31232.00    136684.90
 1035.96        2969.00           1476       29300.00    128195.70
 1035.99        2969.25           1479       27953.00    122279.50
 1036.02        2969.50           1482       26264.00    114864.20
 1036.05        2969.75           1486       24250.00    106026.30
 1036.08        2970.00           1489       22546.00     98552.50
 1036.11        2970.25           1492       21008.00     91809.62
 1036.14        2970.50           1496       18900.00     82572.21
 1036.17        2970.75           1499       17094.00     74662.25
 1036.21        2971.00           1502       15431.00     67381.93
 1036.24        2971.25           1506       13352.00     58284.92
 1036.27        2971.50           1509       11540.00     50360.25
 1036.30        2971.75           1513        9358.00     40822.42
 1036.33        2972.00           1516        7770.00     33884.48
 1036.36        2972.25           1519        6102.00     26600.12
 1036.39        2972.50           1523        4027.00     17542.80
 1036.42        2972.75           1526        2528.00     11002.76
 1036.45        2973.00           1529        1247.00      5415.88
 1036.48        2973.25           1533         491.00      2119.58
 1036.51        2973.50           1536         336.00      1443.83
 1036.54        2973.75           1539         303.00      1299.96
 1036.57        2974.00           1543         229.00       977.36
 1036.60        2974.25           1546         183.00       776.83
 1036.63        2974.50           1549         137.00       576.30
 1036.67        2974.75           1553          99.00       410.64
 1036.70        2975.00           1556          63.00       253.71
 1036.73        2975.25           1559          51.00       201.40
 1036.76        2975.50           1563          48.00       188.32
 1036.79        2975.75           1566          47.00       183.96
 1036.82        2976.00           1569          44.00       170.88
 1036.85        2976.25           1573          44.00       170.88
 1036.88        2976.50           1576          41.00       157.80
 1036.91        2976.75           1579          45.00       175.24
 1036.94        2977.00           1583          41.00       157.80
 1036.97        2977.25           1586          43.00       166.52
 1037.00        2977.50           1590          33.00       122.93
 1037.03        2977.75           1593          44.00       170.88
 1037.06        2978.00           1596          48.00       188.32
 1037.10        2978.25           1600          46.00       179.60
 1037.13        2978.50           1603          53.00       210.11
 1037.16        2978.75           1606          42.00       162.16
 1037.19        2979.00           1610          44.00       170.88
 1037.22        2979.25           1613          39.00       149.09
 1037.25        2979.50           1616          51.00       201.40
 1037.28        2979.75           1620          45.00       175.24
 1037.31        2980.00           1623          47.00       183.96
 1037.34        2980.25           1626          45.00       175.24
 1037.37        2980.50           1630          45.00       175.24
 1037.40        2980.75           1633          47.00       183.96
 1037.43        2981.00           1637          39.00       149.09
 1037.46        2981.25           1640          39.00       149.09
 1037.49        2981.50           1643          42.00       162.16
 1037.52        2981.75           1647          44.00       170.88
 1037.55        2982.00           1650          42.00       162.16
 1037.58        2982.25           1653          44.00       170.88
 1037.62        2982.50           1657          45.00       175.24
 1037.65        2982.75           1660          38.00       144.73
 1037.68        2983.00           1663          42.00       162.16
 1037.71        2983.25           1667          37.00       140.37
 1037.74        2983.50           1670          48.00       188.32
 1037.77        2983.75           1673          49.00       192.68
 1037.80        2984.00           1677          45.00       175.24
HS scan finished at 17:18:01
end
