************************************************************
  HS Scan of (1) Internal mercury lamp
************************************************************
Integration time is 0.2294 seconds per sample
dh070119Manchester 53.47 2.23 2.804185pr1000
************************************************************
Dead Time -------------------------  3E-08 
Number of Cycles Used -------------  4 
Starting Wavelength (Angstroms) ---  2950 
Final Wavelength (Angstoms) -------  2984 
Wavelength Increment (Angstroms) --  .25 
Filter Wheel #1 Position ---------- (1) Ground quartz diffuser (ND=2.32)
Filter Wheel #2 Position ---------- (1) Neutral Density 0.494



************************************************************
HS scan start time = 05:25:53
Dark Count =  7.4 


Time (GMT)  Wavelength (Ang)  Step Number  Raw Counts  Counts/Second

  326.25        2950.00           1222          54.00       203.14
  326.32        2950.25           1226          59.00       224.94
  326.35        2950.50           1229          64.00       246.73
  326.38        2950.75           1232          56.00       211.86
  326.41        2951.00           1236          60.00       229.30
  326.44        2951.25           1239          62.00       238.01
  326.48        2951.50           1242          61.00       233.65
  326.51        2951.75           1246          56.00       211.86
  326.54        2952.00           1249          57.00       216.22
  326.57        2952.25           1252          62.00       238.01
  326.60        2952.50           1256          52.00       194.42
  326.63        2952.75           1259          50.00       185.70
  326.66        2953.00           1262          62.00       238.01
  326.69        2953.25           1266          61.00       233.65
  326.72        2953.50           1269          52.00       194.42
  326.75        2953.75           1272          51.00       190.06
  326.78        2954.00           1276          55.00       207.50
  326.82        2954.25           1279          54.00       203.14
  326.85        2954.50           1282          57.00       216.22
  326.88        2954.75           1286          54.00       203.14
  326.91        2955.00           1289          58.00       220.58
  326.94        2955.25           1292          57.00       216.22
  326.97        2955.50           1296          56.00       211.86
  327.00        2955.75           1299          60.00       229.30
  327.03        2956.00           1302          58.00       220.58
  327.06        2956.25           1306          54.00       203.14
  327.09        2956.50           1309          52.00       194.42
  327.12        2956.75           1312          54.00       203.14
  327.15        2957.00           1316          55.00       207.50
  327.19        2957.25           1319          59.00       224.94
  327.22        2957.50           1322          51.00       190.06
  327.25        2957.75           1326          45.00       163.91
  327.28        2958.00           1329          55.00       207.50
  327.31        2958.25           1332          61.00       233.65
  327.34        2958.50           1336          54.00       203.14
  327.37        2958.75           1339          62.00       238.01
  327.40        2959.00           1342          58.00       220.58
  327.43        2959.25           1346          55.00       207.50
  327.46        2959.50           1349          60.00       229.30
  327.49        2959.75           1352          66.00       255.45
  327.52        2960.00           1356          85.00       338.28
  327.56        2960.25           1359         107.00       434.18
  327.59        2960.50           1362         127.00       521.37
  327.62        2960.75           1366         186.00       778.57
  327.65        2961.00           1369         200.00       839.60
  327.68        2961.25           1372         246.00      1040.14
  327.71        2961.50           1376         286.00      1214.52
  327.74        2961.75           1379         388.00      1659.19
  327.77        2962.00           1382         762.00      3289.78
  327.80        2962.25           1386        1962.00      8522.67
  327.83        2962.50           1389        3120.00     13573.97
  327.86        2962.75           1392        4200.00     18286.40
  327.89        2963.00           1396        5646.00     24597.92
  327.92        2963.25           1399        6864.00     29916.11
  327.96        2963.50           1402        7929.00     34567.66
  327.99        2963.75           1406        9597.00     41855.49
  328.02        2964.00           1409       10754.00     46912.53
  328.05        2964.25           1412       12071.00     52670.79
  328.08        2964.50           1416       13619.00     59441.56
  328.11        2964.75           1419       14777.00     64508.33
  328.14        2965.00           1422       16121.00     70390.86
  328.17        2965.25           1426       17497.00     76415.61
  328.20        2965.50           1429       18581.00     81163.38
  328.24        2965.75           1432       19862.00     86775.74
  328.27        2966.00           1436       21559.00     94213.59
  328.30        2966.25           1439       22396.00     97883.34
  328.33        2966.50           1442       23641.00    103343.40
  328.36        2966.75           1446       24672.00    107866.40
  328.39        2967.00           1449       24962.00    109138.80
  328.42        2967.25           1452       25190.00    110139.30
  328.45        2967.50           1456       25247.00    110389.40
  328.48        2967.75           1459       25190.00    110139.30
  328.52        2968.00           1462       25068.00    109603.90
  328.55        2968.25           1466       24354.00    106471.20
  328.58        2968.50           1469       23411.00    102334.60
  328.61        2968.75           1472       22248.00     97234.41
  328.64        2969.00           1476       20869.00     91188.97
  328.67        2969.25           1479       19605.00     85649.61
  328.70        2969.50           1482       18292.00     79897.47
  328.73        2969.75           1486       16758.00     73179.66
  328.76        2970.00           1489       15625.00     68219.69
  328.80        2970.25           1492       14496.00     63278.69
  328.83        2970.50           1496       13068.00     57031.24
  328.86        2970.75           1499       11794.00     51459.50
  328.89        2971.00           1502       10769.00     46978.11
  328.92        2971.25           1506        9114.00     39744.83
  328.95        2971.50           1509        7990.00     34834.12
  328.98        2971.75           1513        6543.00     28514.36
  329.01        2972.00           1516        5180.00     22563.66
  329.04        2972.25           1519        4191.00     18247.13
  329.08        2972.50           1523        2659.00     11562.86
  329.11        2972.75           1526        1548.00      6717.13
  329.14        2973.00           1529         717.00      3093.57
  329.17        2973.25           1533         332.00      1415.06
  329.20        2973.50           1536         249.00      1053.22
  329.23        2973.75           1539         216.00       909.35
  329.26        2974.00           1543         183.00       765.49
  329.29        2974.25           1546         129.00       530.09
  329.32        2974.50           1549         109.00       442.90
  329.36        2974.75           1553          75.00       294.68
  329.39        2975.00           1556          67.00       259.81
  329.42        2975.25           1559          59.00       224.94
  329.45        2975.50           1563          56.00       211.86
  329.48        2975.75           1566          47.00       172.63
  329.51        2976.00           1569          58.00       220.58
  329.54        2976.25           1573          50.00       185.70
  329.57        2976.50           1576          50.00       185.70
  329.60        2976.75           1579          42.00       150.83
  329.63        2977.00           1583          52.00       194.42
  329.66        2977.25           1586          58.00       220.58
  329.70        2977.50           1590          52.00       194.42
  329.73        2977.75           1593          47.00       172.63
  329.76        2978.00           1596          58.00       220.58
  329.79        2978.25           1600          54.00       203.14
  329.82        2978.50           1603          53.00       198.78
  329.85        2978.75           1606          56.00       211.86
  329.88        2979.00           1610          44.00       159.55
  329.91        2979.25           1613          51.00       190.06
  329.94        2979.50           1616          55.00       207.50
  329.97        2979.75           1620          48.00       176.98
  330.01        2980.00           1623          47.00       172.63
  330.04        2980.25           1626          53.00       198.78
  330.07        2980.50           1630          46.00       168.27
  330.10        2980.75           1633          42.00       150.83
  330.13        2981.00           1637          51.00       190.06
  330.16        2981.25           1640          58.00       220.58
  330.19        2981.50           1643          45.00       163.91
  330.22        2981.75           1647          50.00       185.70
  330.25        2982.00           1650          42.00       150.83
  330.28        2982.25           1653          57.00       216.22
  330.31        2982.50           1657          51.00       190.06
  330.34        2982.75           1660          56.00       211.86
  330.38        2983.00           1663          45.00       163.91
  330.41        2983.25           1667          50.00       185.70
  330.44        2983.50           1670          47.00       172.63
  330.47        2983.75           1673          65.00       251.09
  330.50        2984.00           1677          53.00       198.78
HS scan finished at 05:30:43
end
************************************************************
  HS Scan of (1) Internal mercury lamp
************************************************************
Integration time is 0.2294 seconds per sample
dh070119Manchester 53.47 2.23 2.804185pr1000
************************************************************
Dead Time -------------------------  3E-08 
Number of Cycles Used -------------  4 
Starting Wavelength (Angstroms) ---  2950 
Final Wavelength (Angstoms) -------  2984 
Wavelength Increment (Angstroms) --  .25 
Filter Wheel #1 Position ---------- (1) Ground quartz diffuser (ND=2.32)
Filter Wheel #2 Position ---------- (1) Neutral Density 0.494



************************************************************
HS scan start time = 17:12:03
Dark Count =  6.7 


Time (GMT)  Wavelength (Ang)  Step Number  Raw Counts  Counts/Second

 1032.42        2950.00           1222          56.00       214.91
 1032.49        2950.25           1226          62.00       241.07
 1032.52        2950.50           1229          44.00       162.60
 1032.55        2950.75           1232          66.00       258.50
 1032.58        2951.00           1236          48.00       180.04
 1032.61        2951.25           1239          56.00       214.91
 1032.64        2951.50           1242          55.00       210.55
 1032.67        2951.75           1246          59.00       227.99
 1032.70        2952.00           1249          57.00       219.27
 1032.73        2952.25           1252          61.00       236.71
 1032.76        2952.50           1256          47.00       175.68
 1032.80        2952.75           1259          66.00       258.50
 1032.83        2953.00           1262          53.00       201.83
 1032.86        2953.25           1266          57.00       219.27
 1032.89        2953.50           1269          56.00       214.91
 1032.92        2953.75           1272          51.00       193.11
 1032.95        2954.00           1276          52.00       197.47
 1032.98        2954.25           1279          52.00       197.47
 1033.01        2954.50           1282          54.00       206.19
 1033.04        2954.75           1286          54.00       206.19
 1033.07        2955.00           1289          49.00       184.40
 1033.10        2955.25           1292          54.00       206.19
 1033.14        2955.50           1296          52.00       197.47
 1033.17        2955.75           1299          58.00       223.63
 1033.20        2956.00           1302          60.00       232.35
 1033.23        2956.25           1306          59.00       227.99
 1033.26        2956.50           1309          62.00       241.07
 1033.29        2956.75           1312          56.00       214.91
 1033.32        2957.00           1316          56.00       214.91
 1033.35        2957.25           1319          54.00       206.19
 1033.38        2957.50           1322          53.00       201.83
 1033.41        2957.75           1326          50.00       188.75
 1033.44        2958.00           1329          57.00       219.27
 1033.48        2958.25           1332          49.00       184.40
 1033.51        2958.50           1336          55.00       210.55
 1033.54        2958.75           1339          51.00       193.11
 1033.57        2959.00           1342          51.00       193.11
 1033.60        2959.25           1346          54.00       206.19
 1033.63        2959.50           1349          63.00       245.42
 1033.66        2959.75           1352          64.00       249.78
 1033.69        2960.00           1356          88.00       354.41
 1033.72        2960.25           1359          92.00       371.84
 1033.75        2960.50           1362         128.00       528.78
 1033.79        2960.75           1366         176.00       738.03
 1033.82        2961.00           1369         209.00       881.89
 1033.85        2961.25           1372         236.00       999.59
 1033.88        2961.50           1376         284.00      1208.85
 1033.91        2961.75           1379         380.00      1627.37
 1033.94        2962.00           1382         798.00      3449.79
 1033.97        2962.25           1386        2058.00      8944.42
 1034.00        2962.50           1389        3232.00     14065.65
 1034.03        2962.75           1392        4311.00     18773.87
 1034.06        2963.00           1396        5945.00     25906.35
 1034.09        2963.25           1399        6934.00     30224.87
 1034.12        2963.50           1402        8124.00     35422.54
 1034.15        2963.75           1406        9723.00     42409.19
 1034.18        2964.00           1409       10742.00     46863.14
 1034.21        2964.25           1412       11940.00     52100.99
 1034.25        2964.50           1416       13426.00     58600.32
 1034.28        2964.75           1419       14584.00     63666.83
 1034.31        2965.00           1422       15737.00     68713.00
 1034.34        2965.25           1426       17275.00     75446.52
 1034.37        2965.50           1429       18622.00     81346.05
 1034.40        2965.75           1432       19685.00     86003.22
 1034.43        2966.00           1436       21282.00     93002.37
 1034.46        2966.25           1439       22231.00     97162.94
 1034.49        2966.50           1442       23344.00    102043.80
 1034.53        2966.75           1446       24644.00    107746.60
 1034.56        2967.00           1449       24897.00    108856.70
 1034.59        2967.25           1452       24859.00    108689.90
 1034.62        2967.50           1456       24717.00    108066.90
 1034.65        2967.75           1459       24783.00    108356.50
 1034.68        2968.00           1462       24833.00    108575.90
 1034.71        2968.25           1466       24280.00    106149.60
 1034.74        2968.50           1469       23221.00    101504.40
 1034.77        2968.75           1472       22038.00     96316.71
 1034.81        2969.00           1476       20422.00     89232.89
 1034.84        2969.25           1479       19244.00     84070.98
 1034.87        2969.50           1482       18106.00     79085.85
 1034.90        2969.75           1486       16644.00     72683.60
 1034.93        2970.00           1489       15660.00     68375.96
 1034.96        2970.25           1492       14509.00     63338.64
 1034.99        2970.50           1496       13135.00     57327.37
 1035.02        2970.75           1499       11953.00     52157.83
 1035.05        2971.00           1502       10733.00     46823.80
 1035.09        2971.25           1506        9088.00     39634.28
 1035.12        2971.50           1509        7955.00     34684.28
 1035.15        2971.75           1513        6589.00     28718.28
 1035.18        2972.00           1516        5389.00     23479.04
 1035.21        2972.25           1519        4222.00     18385.46
 1035.24        2972.50           1523        2633.00     11452.50
 1035.27        2972.75           1526        1577.00      6846.66
 1035.30        2973.00           1529         707.00      3053.03
 1035.33        2973.25           1533         310.00      1322.20
 1035.36        2973.50           1536         253.00      1073.71
 1035.39        2973.75           1539         214.00       903.69
 1035.42        2974.00           1543         177.00       742.39
 1035.45        2974.25           1546         142.00       589.81
 1035.49        2974.50           1549         110.00       450.31
 1035.52        2974.75           1553          84.00       336.97
 1035.55        2975.00           1556          62.00       241.07
 1035.58        2975.25           1559          54.00       206.19
 1035.61        2975.50           1563          43.00       158.24
 1035.64        2975.75           1566          48.00       180.04
 1035.67        2976.00           1569          49.00       184.40
 1035.70        2976.25           1573          54.00       206.19
 1035.73        2976.50           1576          60.00       232.35
 1035.76        2976.75           1579          52.00       197.47
 1035.79        2977.00           1583          55.00       210.55
 1035.83        2977.25           1586          53.00       201.83
 1035.86        2977.50           1590          59.00       227.99
 1035.89        2977.75           1593          55.00       210.55
 1035.92        2978.00           1596          48.00       180.04
 1035.95        2978.25           1600          56.00       214.91
 1035.98        2978.50           1603          54.00       206.19
 1036.01        2978.75           1606          48.00       180.04
 1036.04        2979.00           1610          54.00       206.19
 1036.07        2979.25           1613          48.00       180.04
 1036.10        2979.50           1616          53.00       201.83
 1036.14        2979.75           1620          47.00       175.68
 1036.17        2980.00           1623          50.00       188.75
 1036.20        2980.25           1626          47.00       175.68
 1036.23        2980.50           1630          48.00       180.04
 1036.26        2980.75           1633          53.00       201.83
 1036.29        2981.00           1637          50.00       188.75
 1036.32        2981.25           1640          49.00       184.40
 1036.35        2981.50           1643          51.00       193.11
 1036.38        2981.75           1647          44.00       162.60
 1036.41        2982.00           1650          50.00       188.75
 1036.45        2982.25           1653          50.00       188.75
 1036.48        2982.50           1657          55.00       210.55
 1036.51        2982.75           1660          45.00       166.96
 1036.54        2983.00           1663          50.00       188.75
 1036.57        2983.25           1667          47.00       175.68
 1036.60        2983.50           1670          47.00       175.68
 1036.63        2983.75           1673          49.00       184.40
 1036.66        2984.00           1677          47.00       175.68
HS scan finished at 17:16:53
end
