************************************************************
  HS Scan of (1) Internal mercury lamp
************************************************************
Integration time is 0.2294 seconds per sample
dh060117Manchester 53.47 2.23 2.750537pr1000
************************************************************
Dead Time -------------------------  3E-08 
Number of Cycles Used -------------  4 
Starting Wavelength (Angstroms) ---  2950 
Final Wavelength (Angstoms) -------  2984 
Wavelength Increment (Angstroms) --  .25 
Filter Wheel #1 Position ---------- (1) Ground quartz diffuser (ND=2.32)
Filter Wheel #2 Position ---------- (1) Neutral Density 0.494



************************************************************
HS scan start time = 05:25:57
Dark Count =  5.8 


Time (GMT)  Wavelength (Ang)  Step Number  Raw Counts  Counts/Second

  326.31        2950.00           1222          43.00       162.16
  326.38        2950.25           1226          39.00       144.73
  326.41        2950.50           1229          49.00       188.32
  326.44        2950.75           1232          44.00       166.52
  326.47        2951.00           1236          39.00       144.73
  326.50        2951.25           1239          35.00       127.29
  326.54        2951.50           1242          51.00       197.04
  326.57        2951.75           1246          49.00       188.32
  326.60        2952.00           1249          39.00       144.73
  326.63        2952.25           1252          45.00       170.88
  326.66        2952.50           1256          38.00       140.37
  326.69        2952.75           1259          44.00       166.52
  326.72        2953.00           1262          45.00       170.88
  326.75        2953.25           1266          49.00       188.32
  326.78        2953.50           1269          38.00       140.37
  326.81        2953.75           1272          37.00       136.01
  326.85        2954.00           1276          48.00       183.96
  326.88        2954.25           1279          43.00       162.16
  326.91        2954.50           1282          46.00       175.24
  326.94        2954.75           1286          51.00       197.04
  326.97        2955.00           1289          46.00       175.24
  327.00        2955.25           1292          42.00       157.80
  327.03        2955.50           1296          43.00       162.16
  327.06        2955.75           1299          48.00       183.96
  327.09        2956.00           1302          45.00       170.88
  327.12        2956.25           1306          44.00       166.52
  327.15        2956.50           1309          48.00       183.96
  327.18        2956.75           1312          43.00       162.16
  327.22        2957.00           1316          51.00       197.04
  327.25        2957.25           1319          35.00       127.29
  327.28        2957.50           1322          50.00       192.68
  327.31        2957.75           1326          50.00       192.68
  327.34        2958.00           1329          44.00       166.52
  327.37        2958.25           1332          47.00       179.60
  327.40        2958.50           1336          49.00       188.32
  327.43        2958.75           1339          47.00       179.60
  327.46        2959.00           1342          40.00       149.09
  327.49        2959.25           1346          45.00       170.88
  327.52        2959.50           1349          55.00       214.47
  327.55        2959.75           1352          58.00       227.55
  327.58        2960.00           1356          84.00       340.89
  327.61        2960.25           1359         117.00       484.75
  327.64        2960.50           1362         153.00       641.69
  327.68        2960.75           1366         200.00       846.58
  327.71        2961.00           1369         241.00      1025.31
  327.74        2961.25           1372         295.00      1260.73
  327.77        2961.50           1376         395.00      1696.69
  327.80        2961.75           1379         626.00      2703.79
  327.83        2962.00           1382        1358.00      5895.55
  327.86        2962.25           1386        3139.00     13663.84
  327.89        2962.50           1389        4705.00     20497.34
  327.92        2962.75           1392        6217.00     27097.87
  327.95        2963.00           1396        8499.00     37064.74
  327.99        2963.25           1399        9932.00     43326.56
  328.02        2963.50           1402       11617.00     50692.56
  328.05        2963.75           1406       13900.00     60677.92
  328.08        2964.00           1409       15318.00     66882.99
  328.11        2964.25           1412       17045.00     74443.31
  328.14        2964.50           1416       19335.00     84473.60
  328.17        2964.75           1419       21116.00     92278.65
  328.20        2965.00           1422       22814.00     99723.35
  328.23        2965.25           1426       25057.00    109562.70
  328.26        2965.50           1429       26746.00    116975.60
  328.30        2965.75           1432       28400.00    124238.10
  328.33        2966.00           1436       30410.00    133068.10
  328.36        2966.25           1439       31993.00    140025.50
  328.39        2966.50           1442       33611.00    147139.80
  328.42        2966.75           1446       35320.00    154657.50
  328.45        2967.00           1449       35561.00    155717.90
  328.48        2967.25           1452       35585.00    155823.50
  328.51        2967.50           1456       35620.00    155977.50
  328.55        2967.75           1459       35507.00    155480.30
  328.58        2968.00           1462       35432.00    155150.30
  328.61        2968.25           1466       34177.00    149629.20
  328.64        2968.50           1469       32959.00    144272.60
  328.67        2968.75           1472       31254.00    136777.20
  328.70        2969.00           1476       29354.00    128428.50
  328.73        2969.25           1479       27829.00    121730.60
  328.76        2969.50           1482       26151.00    114363.80
  328.79        2969.75           1486       24179.00    105710.50
  328.83        2970.00           1489       22463.00     98184.15
  328.86        2970.25           1492       20886.00     91270.49
  328.89        2970.50           1496       18712.00     81744.25
  328.92        2970.75           1499       16963.00     74084.27
  328.95        2971.00           1502       15334.00     66953.00
  328.98        2971.25           1506       13054.00     56977.00
  329.01        2971.50           1509       11386.00     49682.54
  329.04        2971.75           1513        9139.00     39861.07
  329.07        2972.00           1516        7501.00     32705.14
  329.10        2972.25           1519        5885.00     25648.33
  329.13        2972.50           1523        3858.00     16800.97
  329.17        2972.75           1526        2408.00     10474.96
  329.20        2973.00           1529        1244.00      5398.43
  329.23        2973.25           1533         504.00      2171.89
  329.26        2973.50           1536         355.00      1522.30
  329.29        2973.75           1539         304.00      1299.96
  329.32        2974.00           1543         258.00      1099.43
  329.35        2974.25           1546         202.00       855.30
  329.38        2974.50           1549         147.00       615.53
  329.41        2974.75           1553          97.00       397.56
  329.44        2975.00           1556          73.00       292.94
  329.47        2975.25           1559          58.00       227.55
  329.51        2975.50           1563          49.00       188.32
  329.54        2975.75           1566          49.00       188.32
  329.57        2976.00           1569          48.00       183.96
  329.60        2976.25           1573          44.00       166.52
  329.63        2976.50           1576          47.00       179.60
  329.66        2976.75           1579          50.00       192.68
  329.69        2977.00           1583          40.00       149.09
  329.72        2977.25           1586          45.00       170.88
  329.75        2977.50           1590          54.00       210.11
  329.78        2977.75           1593          44.00       166.52
  329.81        2978.00           1596          41.00       153.44
  329.85        2978.25           1600          49.00       188.32
  329.88        2978.50           1603          42.00       157.80
  329.91        2978.75           1606          41.00       153.44
  329.94        2979.00           1610          43.00       162.16
  329.97        2979.25           1613          39.00       144.73
  330.00        2979.50           1616          40.00       149.09
  330.03        2979.75           1620          44.00       166.52
  330.06        2980.00           1623          44.00       166.52
  330.09        2980.25           1626          45.00       170.88
  330.12        2980.50           1630          43.00       162.16
  330.15        2980.75           1633          48.00       183.96
  330.19        2981.00           1637          47.00       179.60
  330.22        2981.25           1640          39.00       144.73
  330.25        2981.50           1643          47.00       179.60
  330.28        2981.75           1647          43.00       162.16
  330.31        2982.00           1650          37.00       136.01
  330.34        2982.25           1653          42.00       157.80
  330.37        2982.50           1657          39.00       144.73
  330.40        2982.75           1660          38.00       140.37
  330.43        2983.00           1663          40.00       149.09
  330.46        2983.25           1667          39.00       144.73
  330.49        2983.50           1670          43.00       162.16
  330.53        2983.75           1673          38.00       140.37
  330.56        2984.00           1677          45.00       170.88
HS scan finished at 05:30:46
end
************************************************************
  HS Scan of (1) Internal mercury lamp
************************************************************
Integration time is 0.2294 seconds per sample
dh060117Manchester 53.47 2.23 2.750537pr1000
************************************************************
Dead Time -------------------------  3E-08 
Number of Cycles Used -------------  4 
Starting Wavelength (Angstroms) ---  2950 
Final Wavelength (Angstoms) -------  2984 
Wavelength Increment (Angstroms) --  .25 
Filter Wheel #1 Position ---------- (1) Ground quartz diffuser (ND=2.32)
Filter Wheel #2 Position ---------- (1) Neutral Density 0.494



************************************************************
HS scan start time = 17:11:59
Dark Count =  8.399999 


Time (GMT)  Wavelength (Ang)  Step Number  Raw Counts  Counts/Second

 1032.35        2950.00           1222          44.00       155.19
 1032.41        2950.25           1226          48.00       172.63
 1032.45        2950.50           1229          42.00       146.47
 1032.48        2950.75           1232          44.00       155.19
 1032.51        2951.00           1236          42.00       146.47
 1032.54        2951.25           1239          43.00       150.83
 1032.57        2951.50           1242          44.00       155.19
 1032.60        2951.75           1246          35.00       115.96
 1032.63        2952.00           1249          52.00       190.06
 1032.66        2952.25           1252          40.00       137.75
 1032.69        2952.50           1256          44.00       155.19
 1032.72        2952.75           1259          44.00       155.19
 1032.75        2953.00           1262          46.00       163.91
 1032.78        2953.25           1266          41.00       142.11
 1032.82        2953.50           1269          55.00       203.14
 1032.85        2953.75           1272          40.00       137.75
 1032.88        2954.00           1276          45.00       159.55
 1032.91        2954.25           1279          39.00       133.39
 1032.94        2954.50           1282          47.00       168.27
 1032.97        2954.75           1286          44.00       155.19
 1033.00        2955.00           1289          45.00       159.55
 1033.03        2955.25           1292          39.00       133.39
 1033.06        2955.50           1296          43.00       150.83
 1033.09        2955.75           1299          49.00       176.98
 1033.12        2956.00           1302          42.00       146.47
 1033.15        2956.25           1306          38.00       129.03
 1033.18        2956.50           1309          45.00       159.55
 1033.21        2956.75           1312          43.00       150.83
 1033.25        2957.00           1316          46.00       163.91
 1033.28        2957.25           1319          41.00       142.11
 1033.31        2957.50           1322          46.00       163.91
 1033.34        2957.75           1326          44.00       155.19
 1033.37        2958.00           1329          48.00       172.63
 1033.40        2958.25           1332          45.00       159.55
 1033.43        2958.50           1336          41.00       142.11
 1033.46        2958.75           1339          39.00       133.39
 1033.49        2959.00           1342          53.00       194.42
 1033.52        2959.25           1346          44.00       155.19
 1033.55        2959.50           1349          55.00       203.14
 1033.58        2959.75           1352          62.00       233.65
 1033.61        2960.00           1356          84.00       329.56
 1033.64        2960.25           1359         119.00       482.13
 1033.67        2960.50           1362         139.00       569.32
 1033.71        2960.75           1366         203.00       848.32
 1033.74        2961.00           1369         258.00      1088.09
 1033.77        2961.25           1372         273.00      1153.48
 1033.80        2961.50           1376         345.00      1467.37
 1033.83        2961.75           1379         473.00      2025.41
 1033.86        2962.00           1382         837.00      3612.42
 1033.89        2962.25           1386        2147.00      9325.19
 1033.92        2962.50           1389        3580.00     15576.59
 1033.95        2962.75           1392        5097.00     22196.99
 1033.98        2963.00           1396        7227.00     31497.05
 1034.01        2963.25           1399        9008.00     39277.29
 1034.05        2963.50           1402       10470.00     45666.71
 1034.08        2963.75           1406       12756.00     55662.19
 1034.11        2964.00           1409       14316.00     62486.69
 1034.14        2964.25           1412       16130.00     70425.88
 1034.17        2964.50           1416       18329.00     80055.16
 1034.20        2964.75           1419       20139.00     87985.21
 1034.23        2965.00           1422       21614.00     94450.34
 1034.26        2965.25           1426       23862.00    104308.50
 1034.29        2965.50           1429       25474.00    111381.20
 1034.33        2965.75           1432       26930.00    117772.00
 1034.36        2966.00           1436       29026.00    126976.20
 1034.39        2966.25           1439       30555.00    133693.80
 1034.42        2966.50           1442       32031.00    140181.10
 1034.45        2966.75           1446       33977.00    148738.10
 1034.48        2967.00           1449       34977.00    153137.00
 1034.51        2967.25           1452       35427.00    155116.90
 1034.54        2967.50           1456       35437.00    155160.90
 1034.57        2967.75           1459       35421.00    155090.50
 1034.60        2968.00           1462       35164.00    153959.70
 1034.63        2968.25           1466       34841.00    152538.70
 1034.67        2968.50           1469       33787.00    147902.40
 1034.70        2968.75           1472       32276.00    141258.20
 1034.73        2969.00           1476       30254.00    132371.20
 1034.76        2969.25           1479       28601.00    125109.50
 1034.79        2969.50           1482       27232.00    119097.80
 1034.82        2969.75           1486       25059.00    109560.00
 1034.85        2970.00           1489       23256.00    101650.40
 1034.88        2970.25           1492       21765.00     95112.33
 1034.91        2970.50           1496       19450.00     84966.09
 1034.94        2970.75           1499       17848.00     77948.41
 1034.98        2971.00           1502       16119.00     70377.74
 1035.01        2971.25           1506       13946.00     60867.81
 1035.04        2971.50           1509       12212.00     53283.01
 1035.07        2971.75           1513       10199.00     44482.16
 1035.10        2972.00           1516        8639.00     37665.03
 1035.13        2972.25           1519        7034.00     30654.16
 1035.16        2972.50           1523        4919.00     21420.04
 1035.19        2972.75           1526        3327.00     14472.72
 1035.22        2973.00           1529        1712.00      7427.99
 1035.25        2973.25           1533         648.00      2788.38
 1035.29        2973.50           1536         365.00      1554.56
 1035.32        2973.75           1539         295.00      1249.39
 1035.35        2974.00           1543         257.00      1083.73
 1035.38        2974.25           1546         181.00       752.41
 1035.41        2974.50           1549         149.00       612.91
 1035.44        2974.75           1553         102.00       408.03
 1035.47        2975.00           1556          83.00       325.20
 1035.50        2975.25           1559          57.00       211.86
 1035.53        2975.50           1563          44.00       155.19
 1035.56        2975.75           1566          48.00       172.63
 1035.59        2976.00           1569          47.00       168.27
 1035.62        2976.25           1573          49.00       176.98
 1035.65        2976.50           1576          50.00       181.34
 1035.69        2976.75           1579          42.00       146.47
 1035.72        2977.00           1583          54.00       198.78
 1035.75        2977.25           1586          47.00       168.27
 1035.78        2977.50           1590          50.00       181.34
 1035.81        2977.75           1593          48.00       172.63
 1035.84        2978.00           1596          42.00       146.47
 1035.87        2978.25           1600          43.00       150.83
 1035.90        2978.50           1603          49.00       176.98
 1035.93        2978.75           1606          38.00       129.03
 1035.96        2979.00           1610          48.00       172.63
 1035.99        2979.25           1613          41.00       142.11
 1036.02        2979.50           1616          38.00       129.03
 1036.05        2979.75           1620          38.00       129.03
 1036.08        2980.00           1623          48.00       172.63
 1036.12        2980.25           1626          42.00       146.47
 1036.15        2980.50           1630          47.00       168.27
 1036.18        2980.75           1633          52.00       190.06
 1036.21        2981.00           1637          54.00       198.78
 1036.24        2981.25           1640          40.00       137.75
 1036.27        2981.50           1643          41.00       142.11
 1036.30        2981.75           1647          47.00       168.27
 1036.33        2982.00           1650          41.00       142.11
 1036.36        2982.25           1653          45.00       159.55
 1036.39        2982.50           1657          42.00       146.47
 1036.43        2982.75           1660          43.00       150.83
 1036.46        2983.00           1663          49.00       176.98
 1036.49        2983.25           1667          47.00       168.27
 1036.52        2983.50           1670          47.00       168.27
 1036.55        2983.75           1673          35.00       115.96
 1036.58        2984.00           1677          43.00       150.83
HS scan finished at 17:16:48
end
