************************************************************
  HS Scan of (1) Internal mercury lamp
************************************************************
Integration time is 0.2294 seconds per sample
dh010118Manchester 53.47 2.23 2.804185pr1000
************************************************************
Dead Time -------------------------  3E-08 
Number of Cycles Used -------------  4 
Starting Wavelength (Angstroms) ---  2950 
Final Wavelength (Angstoms) -------  2984 
Wavelength Increment (Angstroms) --  .25 
Filter Wheel #1 Position ---------- (1) Ground quartz diffuser (ND=2.32)
Filter Wheel #2 Position ---------- (1) Neutral Density 0.494



************************************************************
HS scan start time = 05:26:19
Dark Count =  7.6 


Time (GMT)  Wavelength (Ang)  Step Number  Raw Counts  Counts/Second

  326.68        2950.00           1222          60.00       228.42
  326.75        2950.25           1226          70.00       272.02
  326.78        2950.50           1229          66.00       254.58
  326.81        2950.75           1232          62.00       237.14
  326.84        2951.00           1236          53.00       197.91
  326.87        2951.25           1239          68.00       263.30
  326.91        2951.50           1242          56.00       210.99
  326.94        2951.75           1246          65.00       250.22
  326.97        2952.00           1249          66.00       254.58
  327.00        2952.25           1252          63.00       241.50
  327.03        2952.50           1256          57.00       215.35
  327.06        2952.75           1259          58.00       219.71
  327.09        2953.00           1262          61.00       232.78
  327.12        2953.25           1266          62.00       237.14
  327.15        2953.50           1269          62.00       237.14
  327.18        2953.75           1272          66.00       254.58
  327.21        2954.00           1276          61.00       232.78
  327.24        2954.25           1279          63.00       241.50
  327.27        2954.50           1282          70.00       272.02
  327.30        2954.75           1286          58.00       219.71
  327.33        2955.00           1289          62.00       237.14
  327.36        2955.25           1292          69.00       267.66
  327.40        2955.50           1296          64.00       245.86
  327.43        2955.75           1299          64.00       245.86
  327.46        2956.00           1302          62.00       237.14
  327.49        2956.25           1306          54.00       202.27
  327.52        2956.50           1309          85.00       337.41
  327.55        2956.75           1312          54.00       202.27
  327.58        2957.00           1316          58.00       219.71
  327.61        2957.25           1319          64.00       245.86
  327.64        2957.50           1322          60.00       228.42
  327.67        2957.75           1326          64.00       245.86
  327.70        2958.00           1329          58.00       219.71
  327.73        2958.25           1332          66.00       254.58
  327.76        2958.50           1336          60.00       228.42
  327.80        2958.75           1339          69.00       267.66
  327.83        2959.00           1342          60.00       228.42
  327.86        2959.25           1346          62.00       237.14
  327.89        2959.50           1349          60.00       228.42
  327.92        2959.75           1352          74.00       289.45
  327.95        2960.00           1356          97.00       389.72
  327.98        2960.25           1359         129.00       529.21
  328.01        2960.50           1362         165.00       686.15
  328.04        2960.75           1366         204.00       856.17
  328.07        2961.00           1369         247.00      1043.62
  328.11        2961.25           1372         281.00      1191.85
  328.14        2961.50           1376         378.00      1614.73
  328.17        2961.75           1379         558.00      2399.48
  328.20        2962.00           1382        1269.00      5499.60
  328.23        2962.25           1386        2918.00     12691.84
  328.26        2962.50           1389        4217.00     18359.72
  328.29        2962.75           1392        5723.00     24933.20
  328.32        2963.00           1396        7710.00     33610.16
  328.35        2963.25           1399        9147.00     39888.16
  328.38        2963.50           1402       10786.00     47051.55
  328.42        2963.75           1406       12949.00     56509.85
  328.45        2964.00           1409       14529.00     63422.22
  328.48        2964.25           1412       16118.00     70376.85
  328.51        2964.50           1416       18290.00     79887.84
  328.54        2964.75           1419       19850.00     86722.28
  328.57        2965.00           1422       21554.00     94190.80
  328.60        2965.25           1426       23637.00    103325.00
  328.63        2965.50           1429       24983.00    109230.10
  328.66        2965.75           1432       26587.00    116269.70
  328.70        2966.00           1436       28468.00    124528.90
  328.73        2966.25           1439       29846.00    130582.00
  328.76        2966.50           1442       31533.00    137995.60
  328.79        2966.75           1446       32638.00    142853.30
  328.82        2967.00           1449       33103.00    144897.90
  328.85        2967.25           1452       33136.00    145043.00
  328.88        2967.50           1456       33088.00    144831.90
  328.91        2967.75           1459       33267.00    145619.10
  328.94        2968.00           1462       32901.00    144009.70
  328.97        2968.25           1466       31881.00    139525.30
  329.00        2968.50           1469       30474.00    133341.40
  329.04        2968.75           1472       29370.00    128490.90
  329.07        2969.00           1476       27204.00    118978.40
  329.10        2969.25           1479       25828.00    112938.20
  329.13        2969.50           1482       24280.00    106145.70
  329.16        2969.75           1486       22241.00     97202.84
  329.19        2970.00           1489       20747.00     90653.37
  329.22        2970.25           1492       19248.00     84084.56
  329.25        2970.50           1496       17205.00     75136.05
  329.28        2970.75           1499       15752.00     68774.72
  329.31        2971.00           1502       14141.00     61724.49
  329.35        2971.25           1506       12047.00     52564.96
  329.38        2971.50           1509       10617.00     46312.78
  329.41        2971.75           1513        8716.00     38004.95
  329.44        2972.00           1516        7122.00     31041.98
  329.47        2972.25           1519        5864.00     25548.78
  329.50        2972.50           1523        3824.00     16644.75
  329.53        2972.75           1526        2313.00     10052.73
  329.56        2973.00           1529        1065.00      4610.05
  329.59        2973.25           1533         450.00      1928.62
  329.62        2973.50           1536         350.00      1492.66
  329.66        2973.75           1539         303.00      1287.76
  329.69        2974.00           1543         248.00      1047.98
  329.72        2974.25           1546         203.00       851.81
  329.75        2974.50           1549         159.00       660.00
  329.78        2974.75           1553         124.00       507.42
  329.81        2975.00           1556          85.00       337.41
  329.84        2975.25           1559          78.00       306.89
  329.87        2975.50           1563          64.00       245.86
  329.90        2975.75           1566          59.00       224.06
  329.93        2976.00           1569          65.00       250.22
  329.96        2976.25           1573          64.00       245.86
  329.99        2976.50           1576          60.00       228.42
  330.03        2976.75           1579          66.00       254.58
  330.06        2977.00           1583          56.00       210.99
  330.09        2977.25           1586          58.00       219.71
  330.12        2977.50           1590          62.00       237.14
  330.15        2977.75           1593          54.00       202.27
  330.18        2978.00           1596          53.00       197.91
  330.21        2978.25           1600          53.00       197.91
  330.24        2978.50           1603          55.00       206.63
  330.27        2978.75           1606          64.00       245.86
  330.30        2979.00           1610          57.00       215.35
  330.33        2979.25           1613          63.00       241.50
  330.36        2979.50           1616          58.00       219.71
  330.39        2979.75           1620          63.00       241.50
  330.42        2980.00           1623          54.00       202.27
  330.46        2980.25           1626          55.00       206.63
  330.49        2980.50           1630          62.00       237.14
  330.52        2980.75           1633          72.00       280.73
  330.55        2981.00           1637          60.00       228.42
  330.58        2981.25           1640          54.00       202.27
  330.61        2981.50           1643          58.00       219.71
  330.64        2981.75           1647          57.00       215.35
  330.67        2982.00           1650          59.00       224.06
  330.70        2982.25           1653          54.00       202.27
  330.73        2982.50           1657          54.00       202.27
  330.76        2982.75           1660          55.00       206.63
  330.79        2983.00           1663          52.00       193.55
  330.83        2983.25           1667          59.00       224.06
  330.86        2983.50           1670          55.00       206.63
  330.89        2983.75           1673          49.00       180.47
  330.92        2984.00           1677          56.00       210.99
HS scan finished at 05:31:08
end
************************************************************
  HS Scan of (1) Internal mercury lamp
************************************************************
Integration time is 0.2294 seconds per sample
dh010118Manchester 53.47 2.23 2.750537pr1000
************************************************************
Dead Time -------------------------  3E-08 
Number of Cycles Used -------------  4 
Starting Wavelength (Angstroms) ---  2950 
Final Wavelength (Angstoms) -------  2984 
Wavelength Increment (Angstroms) --  .25 
Filter Wheel #1 Position ---------- (1) Ground quartz diffuser (ND=2.32)
Filter Wheel #2 Position ---------- (1) Neutral Density 0.494



************************************************************
HS scan start time = 17:12:00
Dark Count =  8.100001 


Time (GMT)  Wavelength (Ang)  Step Number  Raw Counts  Counts/Second

 1032.37        2950.00           1222          61.00       230.60
 1032.44        2950.25           1226          58.00       217.53
 1032.47        2950.50           1229          67.00       256.76
 1032.50        2950.75           1232          62.00       234.96
 1032.53        2951.00           1236          59.00       221.88
 1032.56        2951.25           1239          63.00       239.32
 1032.60        2951.50           1242          68.00       261.12
 1032.63        2951.75           1246          69.00       265.48
 1032.66        2952.00           1249          60.00       226.24
 1032.69        2952.25           1252          68.00       261.12
 1032.72        2952.50           1256          70.00       269.84
 1032.75        2952.75           1259          63.00       239.32
 1032.78        2953.00           1262          61.00       230.60
 1032.81        2953.25           1266          60.00       226.24
 1032.84        2953.50           1269          65.00       248.04
 1032.87        2953.75           1272          68.00       261.12
 1032.91        2954.00           1276          65.00       248.04
 1032.94        2954.25           1279          56.00       208.81
 1032.97        2954.50           1282          61.00       230.60
 1033.00        2954.75           1286          66.00       252.40
 1033.03        2955.00           1289          68.00       261.12
 1033.06        2955.25           1292          60.00       226.24
 1033.09        2955.50           1296          61.00       230.60
 1033.12        2955.75           1299          68.00       261.12
 1033.15        2956.00           1302          65.00       248.04
 1033.18        2956.25           1306          64.00       243.68
 1033.21        2956.50           1309          65.00       248.04
 1033.25        2956.75           1312          57.00       213.17
 1033.28        2957.00           1316          65.00       248.04
 1033.31        2957.25           1319          63.00       239.32
 1033.34        2957.50           1322          62.00       234.96
 1033.37        2957.75           1326          73.00       282.91
 1033.40        2958.00           1329          59.00       221.88
 1033.43        2958.25           1332          66.00       252.40
 1033.46        2958.50           1336          58.00       217.53
 1033.49        2958.75           1339          70.00       269.84
 1033.52        2959.00           1342          61.00       230.60
 1033.56        2959.25           1346          69.00       265.48
 1033.59        2959.50           1349          70.00       269.84
 1033.62        2959.75           1352          88.00       348.30
 1033.65        2960.00           1356         122.00       496.52
 1033.68        2960.25           1359         154.00       636.02
 1033.71        2960.50           1362         168.00       697.05
 1033.74        2960.75           1366         222.00       932.46
 1033.77        2961.00           1369         269.00      1137.35
 1033.80        2961.25           1372         297.00      1259.42
 1033.83        2961.50           1376         409.00      1747.69
 1033.86        2961.75           1379         591.00      2541.17
 1033.89        2962.00           1382        1273.00      5514.86
 1033.92        2962.25           1386        2795.00     12153.08
 1033.96        2962.50           1389        4193.00     18252.80
 1033.99        2962.75           1392        5726.00     24944.12
 1034.02        2963.00           1396        7535.00     32843.59
 1034.05        2963.25           1399        9206.00     40143.79
 1034.08        2963.50           1402       10673.00     46555.39
 1034.11        2963.75           1406       12659.00     55239.25
 1034.14        2964.00           1409       14325.00     62527.39
 1034.17        2964.25           1412       15919.00     69503.53
 1034.20        2964.50           1416       18137.00     79215.50
 1034.23        2964.75           1419       19568.00     85484.42
 1034.27        2965.00           1422       21196.00     92619.24
 1034.30        2965.25           1426       23101.00    100971.90
 1034.33        2965.50           1429       24630.00    107679.00
 1034.36        2965.75           1432       26151.00    114353.70
 1034.39        2966.00           1436       28067.00    122765.60
 1034.42        2966.25           1439       29704.00    129956.00
 1034.45        2966.50           1442       30722.00    134429.00
 1034.48        2966.75           1446       32291.00    141325.50
 1034.51        2967.00           1449       32779.00    143471.00
 1034.55        2967.25           1452       32954.00    144240.50
 1034.58        2967.50           1456       32887.00    143945.90
 1034.61        2967.75           1459       32871.00    143875.60
 1034.64        2968.00           1462       32829.00    143690.90
 1034.67        2968.25           1466       31807.00    139197.80
 1034.70        2968.50           1469       30376.00    132908.60
 1034.73        2968.75           1472       29084.00    127232.30
 1034.76        2969.00           1476       27357.00    119648.00
 1034.79        2969.25           1479       25856.00    113059.00
 1034.83        2969.50           1482       24595.00    107525.50
 1034.86        2969.75           1486       22432.00     98038.13
 1034.89        2970.00           1489       20718.00     90524.06
 1034.92        2970.25           1492       19259.00     84130.56
 1034.95        2970.50           1496       17331.00     75685.61
 1034.98        2970.75           1499       15735.00     68698.11
 1035.01        2971.00           1502       14202.00     61989.20
 1035.04        2971.25           1506       12155.00     53035.06
 1035.07        2971.50           1509       10492.00     45764.19
 1035.10        2971.75           1513        8533.00     37203.23
 1035.13        2972.00           1516        7172.00     31258.16
 1035.17        2972.25           1519        5740.00     25005.24
 1035.20        2972.50           1523        3871.00     16847.66
 1035.23        2972.75           1526        2458.00     10683.02
 1035.26        2973.00           1529        1149.00      4974.15
 1035.29        2973.25           1533         451.00      1930.80
 1035.32        2973.50           1536         336.00      1429.44
 1035.35        2973.75           1539         279.00      1180.95
 1035.38        2974.00           1543         236.00       993.49
 1035.41        2974.25           1546         173.00       718.85
 1035.44        2974.50           1549         130.00       531.39
 1035.48        2974.75           1553          91.00       361.38
 1035.51        2975.00           1556          73.00       282.91
 1035.54        2975.25           1559          69.00       265.48
 1035.57        2975.50           1563          62.00       234.96
 1035.60        2975.75           1566          65.00       248.04
 1035.63        2976.00           1569          62.00       234.96
 1035.66        2976.25           1573          58.00       217.53
 1035.69        2976.50           1576          59.00       221.88
 1035.72        2976.75           1579          62.00       234.96
 1035.75        2977.00           1583          57.00       213.17
 1035.78        2977.25           1586          55.00       204.45
 1035.81        2977.50           1590          56.00       208.81
 1035.85        2977.75           1593          56.00       208.81
 1035.88        2978.00           1596          53.00       195.73
 1035.91        2978.25           1600          61.00       230.60
 1035.94        2978.50           1603          54.00       200.09
 1035.97        2978.75           1606          63.00       239.32
 1036.00        2979.00           1610          53.00       195.73
 1036.03        2979.25           1613          53.00       195.73
 1036.06        2979.50           1616          67.00       256.76
 1036.09        2979.75           1620          54.00       200.09
 1036.12        2980.00           1623          58.00       217.53
 1036.15        2980.25           1626          64.00       243.68
 1036.18        2980.50           1630          53.00       195.73
 1036.22        2980.75           1633          58.00       217.53
 1036.25        2981.00           1637          56.00       208.81
 1036.28        2981.25           1640          66.00       252.40
 1036.31        2981.50           1643          62.00       234.96
 1036.34        2981.75           1647          60.00       226.24
 1036.37        2982.00           1650          58.00       217.53
 1036.40        2982.25           1653          62.00       234.96
 1036.43        2982.50           1657          53.00       195.73
 1036.46        2982.75           1660          55.00       204.45
 1036.49        2983.00           1663          58.00       217.53
 1036.52        2983.25           1667          53.00       195.73
 1036.55        2983.50           1670          52.00       191.37
 1036.59        2983.75           1673          46.00       165.21
 1036.62        2984.00           1677          48.00       173.93
HS scan finished at 17:16:50
end
