************************************************************
  HS Scan of (1) Internal mercury lamp
************************************************************
Integration time is 0.2294 seconds per sample
dh010119Manchester 53.47 2.23 2.804185pr1000
************************************************************
Dead Time -------------------------  3E-08 
Number of Cycles Used -------------  4 
Starting Wavelength (Angstroms) ---  2950 
Final Wavelength (Angstoms) -------  2984 
Wavelength Increment (Angstroms) --  .25 
Filter Wheel #1 Position ---------- (1) Ground quartz diffuser (ND=2.32)
Filter Wheel #2 Position ---------- (1) Neutral Density 0.494



************************************************************
HS scan start time = 05:26:23
Dark Count =  7 


Time (GMT)  Wavelength (Ang)  Step Number  Raw Counts  Counts/Second

  326.75        2950.00           1222          50.00       187.45
  326.82        2950.25           1226          61.00       235.40
  326.85        2950.50           1229          56.00       213.60
  326.88        2950.75           1232          57.00       217.96
  326.91        2951.00           1236          51.00       191.81
  326.94        2951.25           1239          60.00       231.04
  326.97        2951.50           1242          55.00       209.24
  327.00        2951.75           1246          51.00       191.81
  327.03        2952.00           1249          52.00       196.17
  327.06        2952.25           1252          59.00       226.68
  327.09        2952.50           1256          54.00       204.88
  327.12        2952.75           1259          61.00       235.40
  327.16        2953.00           1262          55.00       209.24
  327.19        2953.25           1266          52.00       196.17
  327.22        2953.50           1269          50.00       187.45
  327.25        2953.75           1272          60.00       231.04
  327.28        2954.00           1276          69.00       270.27
  327.31        2954.25           1279          52.00       196.17
  327.34        2954.50           1282          57.00       217.96
  327.37        2954.75           1286          55.00       209.24
  327.40        2955.00           1289          56.00       213.60
  327.43        2955.25           1292          53.00       200.52
  327.46        2955.50           1296          49.00       183.09
  327.49        2955.75           1299          59.00       226.68
  327.52        2956.00           1302          53.00       200.52
  327.56        2956.25           1306          54.00       204.88
  327.59        2956.50           1309          55.00       209.24
  327.62        2956.75           1312          54.00       204.88
  327.65        2957.00           1316          55.00       209.24
  327.68        2957.25           1319          50.00       187.45
  327.71        2957.50           1322          61.00       235.40
  327.74        2957.75           1326          52.00       196.17
  327.77        2958.00           1329          50.00       187.45
  327.80        2958.25           1332          56.00       213.60
  327.83        2958.50           1336          52.00       196.17
  327.86        2958.75           1339          52.00       196.17
  327.90        2959.00           1342          65.00       252.84
  327.93        2959.25           1346          48.00       178.73
  327.96        2959.50           1349          72.00       283.35
  327.99        2959.75           1352          59.00       226.68
  328.02        2960.00           1356          96.00       387.97
  328.05        2960.25           1359         108.00       440.28
  328.08        2960.50           1362         146.00       605.94
  328.11        2960.75           1366         185.00       775.96
  328.14        2961.00           1369         209.00       880.58
  328.17        2961.25           1372         234.00       989.57
  328.20        2961.50           1376         297.00      1264.22
  328.23        2961.75           1379         414.00      1774.29
  328.26        2962.00           1382        1007.00      4359.77
  328.30        2962.25           1386        2399.00     10430.47
  328.33        2962.50           1389        3501.00     15238.00
  328.36        2962.75           1392        4630.00     20164.77
  328.39        2963.00           1396        6122.00     26677.84
  328.42        2963.25           1399        7197.00     31372.15
  328.45        2963.50           1402        8403.00     36640.08
  328.48        2963.75           1406       10037.00     43780.23
  328.51        2964.00           1409       11198.00     48855.34
  328.54        2964.25           1412       12330.00     53805.18
  328.57        2964.50           1416       13996.00     61092.69
  328.61        2964.75           1419       15215.00     66426.93
  328.64        2965.00           1422       16428.00     71736.61
  328.67        2965.25           1426       17947.00     78388.15
  328.70        2965.50           1429       19208.00     83911.94
  328.73        2965.75           1432       20285.00     88631.16
  328.76        2966.00           1436       21826.00     95385.91
  328.79        2966.25           1439       22935.00    100248.70
  328.82        2966.50           1442       23899.00    104476.90
  328.85        2966.75           1446       24965.00    109153.70
  328.88        2967.00           1449       25211.00    110233.20
  328.92        2967.25           1452       25102.00    109754.90
  328.95        2967.50           1456       25018.00    109386.30
  328.98        2967.75           1459       25208.00    110220.00
  329.01        2968.00           1462       24676.00    107885.70
  329.04        2968.25           1466       23862.00    104314.60
  329.07        2968.50           1469       22590.00     98735.80
  329.10        2968.75           1472       21657.00     94644.99
  329.13        2969.00           1476       20196.00     88241.14
  329.16        2969.25           1479       18954.00     82799.15
  329.20        2969.50           1482       17854.00     77980.82
  329.23        2969.75           1486       16241.00     70917.94
  329.26        2970.00           1489       15248.00     66571.36
  329.29        2970.25           1492       14140.00     61722.73
  329.32        2970.50           1496       12475.00     54439.32
  329.35        2970.75           1499       11277.00     49200.73
  329.38        2971.00           1502       10113.00     44112.40
  329.41        2971.25           1506        8340.00     36364.85
  329.44        2971.50           1509        7274.00     31708.44
  329.47        2971.75           1513        5888.00     25656.18
  329.51        2972.00           1516        4656.00     20278.25
  329.54        2972.25           1519        3622.00     15765.96
  329.57        2972.50           1523        2213.00      9619.17
  329.60        2972.75           1526        1230.00      5332.15
  329.63        2973.00           1529         569.00      2450.05
  329.66        2973.25           1533         342.00      1460.40
  329.69        2973.50           1536         262.00      1111.63
  329.72        2973.75           1539         239.00      1011.36
  329.75        2974.00           1543         199.00       836.99
  329.79        2974.25           1546         165.00       688.77
  329.82        2974.50           1549         124.00       510.03
  329.85        2974.75           1553          99.00       401.05
  329.88        2975.00           1556          64.00       248.48
  329.91        2975.25           1559          60.00       231.04
  329.94        2975.50           1563          56.00       213.60
  329.97        2975.75           1566          57.00       217.96
  330.00        2976.00           1569          52.00       196.17
  330.03        2976.25           1573          54.00       204.88
  330.06        2976.50           1576          44.00       161.29
  330.10        2976.75           1579          48.00       178.73
  330.13        2977.00           1583          59.00       226.68
  330.16        2977.25           1586          56.00       213.60
  330.19        2977.50           1590          54.00       204.88
  330.22        2977.75           1593          46.00       170.01
  330.25        2978.00           1596          47.00       174.37
  330.28        2978.25           1600          48.00       178.73
  330.31        2978.50           1603          54.00       204.88
  330.34        2978.75           1606          56.00       213.60
  330.37        2979.00           1610          58.00       222.32
  330.40        2979.25           1613          53.00       200.52
  330.43        2979.50           1616          63.00       244.12
  330.47        2979.75           1620          49.00       183.09
  330.50        2980.00           1623          50.00       187.45
  330.53        2980.25           1626          51.00       191.81
  330.56        2980.50           1630          48.00       178.73
  330.59        2980.75           1633          47.00       174.37
  330.62        2981.00           1637          49.00       183.09
  330.65        2981.25           1640          51.00       191.81
  330.68        2981.50           1643          54.00       204.88
  330.71        2981.75           1647          49.00       183.09
  330.74        2982.00           1650          68.00       265.91
  330.77        2982.25           1653          58.00       222.32
  330.80        2982.50           1657          44.00       161.29
  330.84        2982.75           1660          47.00       174.37
  330.87        2983.00           1663          44.00       161.29
  330.90        2983.25           1667          49.00       183.09
  330.93        2983.50           1670          45.00       165.65
  330.96        2983.75           1673          48.00       178.73
  330.99        2984.00           1677          49.00       183.09
HS scan finished at 05:31:12
end
************************************************************
  HS Scan of (1) Internal mercury lamp
************************************************************
Integration time is 0.2294 seconds per sample
dh010119Manchester 53.47 2.23 2.804185pr1000
************************************************************
Dead Time -------------------------  3E-08 
Number of Cycles Used -------------  4 
Starting Wavelength (Angstroms) ---  2950 
Final Wavelength (Angstoms) -------  2984 
Wavelength Increment (Angstroms) --  .25 
Filter Wheel #1 Position ---------- (1) Ground quartz diffuser (ND=2.32)
Filter Wheel #2 Position ---------- (1) Neutral Density 0.494



************************************************************
HS scan start time = 17:12:04
Dark Count =  7.2 


Time (GMT)  Wavelength (Ang)  Step Number  Raw Counts  Counts/Second

 1032.44        2950.00           1222          60.00       230.17
 1032.51        2950.25           1226          64.00       247.60
 1032.54        2950.50           1229          57.00       217.09
 1032.57        2950.75           1232          52.00       195.29
 1032.60        2951.00           1236          56.00       212.73
 1032.63        2951.25           1239          54.00       204.01
 1032.66        2951.50           1242          62.00       238.89
 1032.70        2951.75           1246          59.00       225.81
 1032.73        2952.00           1249          54.00       204.01
 1032.76        2952.25           1252          52.00       195.29
 1032.79        2952.50           1256          49.00       182.22
 1032.82        2952.75           1259          54.00       204.01
 1032.85        2953.00           1262          56.00       212.73
 1032.88        2953.25           1266          53.00       199.65
 1032.91        2953.50           1269          54.00       204.01
 1032.94        2953.75           1272          58.00       221.45
 1032.97        2954.00           1276          56.00       212.73
 1033.01        2954.25           1279          53.00       199.65
 1033.04        2954.50           1282          50.00       186.57
 1033.07        2954.75           1286          53.00       199.65
 1033.10        2955.00           1289          54.00       204.01
 1033.13        2955.25           1292          54.00       204.01
 1033.16        2955.50           1296          50.00       186.57
 1033.19        2955.75           1299          51.00       190.93
 1033.22        2956.00           1302          50.00       186.57
 1033.25        2956.25           1306          51.00       190.93
 1033.29        2956.50           1309          51.00       190.93
 1033.32        2956.75           1312          55.00       208.37
 1033.35        2957.00           1316          50.00       186.57
 1033.38        2957.25           1319          57.00       217.09
 1033.41        2957.50           1322          53.00       199.65
 1033.44        2957.75           1326          69.00       269.40
 1033.47        2958.00           1329          55.00       208.37
 1033.50        2958.25           1332          47.00       173.50
 1033.53        2958.50           1336          53.00       199.65
 1033.56        2958.75           1339          53.00       199.65
 1033.59        2959.00           1342          55.00       208.37
 1033.63        2959.25           1346          51.00       190.93
 1033.66        2959.50           1349          64.00       247.60
 1033.69        2959.75           1352          70.00       273.76
 1033.72        2960.00           1356          91.00       365.30
 1033.75        2960.25           1359         111.00       452.49
 1033.78        2960.50           1362         140.00       578.91
 1033.81        2960.75           1366         190.00       796.88
 1033.84        2961.00           1369         222.00       936.38
 1033.87        2961.25           1372         234.00       988.70
 1033.90        2961.50           1376         304.00      1293.86
 1033.94        2961.75           1379         427.00      1830.09
 1033.97        2962.00           1382         930.00      4023.15
 1034.00        2962.25           1386        2161.00      9391.49
 1034.03        2962.50           1389        3215.00     13989.31
 1034.06        2962.75           1392        4332.00     18863.33
 1034.09        2963.00           1396        5818.00     25349.70
 1034.12        2963.25           1399        6911.00     30122.24
 1034.15        2963.50           1402        8081.00     35232.51
 1034.18        2963.75           1406        9536.00     41589.79
 1034.21        2964.00           1409       10837.00     47276.25
 1034.25        2964.25           1412       11918.00     52002.60
 1034.28        2964.50           1416       13408.00     58519.39
 1034.31        2964.75           1419       14489.00     63248.93
 1034.34        2965.00           1422       15624.00     68216.19
 1034.37        2965.25           1426       17217.00     75190.35
 1034.40        2965.50           1429       18241.00     79674.97
 1034.43        2965.75           1432       19436.00     84910.02
 1034.46        2966.00           1436       21084.00     92132.24
 1034.49        2966.25           1439       22106.00     96612.66
 1034.52        2966.50           1442       23194.00    101383.80
 1034.56        2966.75           1446       24331.00    106371.20
 1034.59        2967.00           1449       24594.00    107525.00
 1034.62        2967.25           1452       24638.00    107718.10
 1034.65        2967.50           1456       24683.00    107915.50
 1034.68        2967.75           1459       24693.00    107959.40
 1034.71        2968.00           1462       24613.00    107608.40
 1034.74        2968.25           1466       23998.00    104910.30
 1034.77        2968.50           1469       22938.00    100261.00
 1034.80        2968.75           1472       21870.00     95577.94
 1034.83        2969.00           1476       20428.00     89256.99
 1034.86        2969.25           1479       19177.00     83775.25
 1034.89        2969.50           1482       18102.00     79066.15
 1034.93        2969.75           1486       16669.00     72790.86
 1034.96        2970.00           1489       15512.00     67725.96
 1034.99        2970.25           1492       14529.00     63423.96
 1035.02        2970.50           1496       13224.00     57714.49
 1035.05        2970.75           1499       12029.00     52487.99
 1035.08        2971.00           1502       10733.00     46821.61
 1035.11        2971.25           1506        9340.00     40733.27
 1035.14        2971.50           1509        8084.00     35245.62
 1035.17        2971.75           1513        6572.00     28641.86
 1035.20        2972.00           1516        5417.00     23599.09
 1035.24        2972.25           1519        4324.00     18828.42
 1035.27        2972.50           1523        2845.00     12375.13
 1035.30        2972.75           1526        1751.00      7603.30
 1035.33        2973.00           1529         762.00      3290.65
 1035.36        2973.25           1533         334.00      1424.65
 1035.39        2973.50           1536         261.00      1106.40
 1035.42        2973.75           1539         217.00       914.58
 1035.45        2974.00           1543         177.00       740.21
 1035.48        2974.25           1546         136.00       561.47
 1035.51        2974.50           1549         101.00       408.90
 1035.54        2974.75           1553          80.00       317.35
 1035.57        2975.00           1556          66.00       256.32
 1035.61        2975.25           1559          65.00       251.96
 1035.64        2975.50           1563          60.00       230.17
 1035.67        2975.75           1566          55.00       208.37
 1035.70        2976.00           1569          61.00       234.53
 1035.73        2976.25           1573          50.00       186.57
 1035.76        2976.50           1576          53.00       199.65
 1035.79        2976.75           1579          53.00       199.65
 1035.82        2977.00           1583          50.00       186.57
 1035.85        2977.25           1586          49.00       182.22
 1035.89        2977.50           1590          48.00       177.86
 1035.92        2977.75           1593          50.00       186.57
 1035.95        2978.00           1596          52.00       195.29
 1035.98        2978.25           1600          51.00       190.93
 1036.01        2978.50           1603          49.00       182.22
 1036.04        2978.75           1606          49.00       182.22
 1036.07        2979.00           1610          65.00       251.96
 1036.10        2979.25           1613          54.00       204.01
 1036.13        2979.50           1616          45.00       164.78
 1036.16        2979.75           1620          46.00       169.14
 1036.19        2980.00           1623          47.00       173.50
 1036.22        2980.25           1626          59.00       225.81
 1036.25        2980.50           1630          52.00       195.29
 1036.29        2980.75           1633          44.00       160.42
 1036.32        2981.00           1637          50.00       186.57
 1036.35        2981.25           1640          48.00       177.86
 1036.38        2981.50           1643          47.00       173.50
 1036.41        2981.75           1647          50.00       186.57
 1036.44        2982.00           1650          46.00       169.14
 1036.47        2982.25           1653          48.00       177.86
 1036.50        2982.50           1657          47.00       173.50
 1036.54        2982.75           1660          53.00       199.65
 1036.57        2983.00           1663          56.00       212.73
 1036.60        2983.25           1667          47.00       173.50
 1036.63        2983.50           1670          46.00       169.14
 1036.66        2983.75           1673          49.00       182.22
 1036.69        2984.00           1677          45.00       164.78
HS scan finished at 17:16:54
end
