************************************************************
  HS Scan of (1) Internal mercury lamp
************************************************************
Integration time is 0.2294 seconds per sample
dh030118Manchester 53.47 2.23 2.750537pr1000
************************************************************
Dead Time -------------------------  3E-08 
Number of Cycles Used -------------  4 
Starting Wavelength (Angstroms) ---  2950 
Final Wavelength (Angstoms) -------  2984 
Wavelength Increment (Angstroms) --  .25 
Filter Wheel #1 Position ---------- (1) Ground quartz diffuser (ND=2.32)
Filter Wheel #2 Position ---------- (1) Neutral Density 0.494



************************************************************
HS scan start time = 05:26:22
Dark Count =  6.5 


Time (GMT)  Wavelength (Ang)  Step Number  Raw Counts  Counts/Second

  326.73        2950.00           1222          65.00       255.02
  326.80        2950.25           1226          59.00       228.86
  326.83        2950.50           1229          61.00       237.58
  326.86        2950.75           1232          62.00       241.94
  326.89        2951.00           1236          65.00       255.02
  326.92        2951.25           1239          68.00       268.09
  326.95        2951.50           1242          60.00       233.22
  326.98        2951.75           1246          66.00       259.37
  327.02        2952.00           1249          62.00       241.94
  327.05        2952.25           1252          57.00       220.14
  327.08        2952.50           1256          66.00       259.37
  327.11        2952.75           1259          60.00       233.22
  327.14        2953.00           1262          66.00       259.37
  327.17        2953.25           1266          63.00       246.30
  327.20        2953.50           1269          63.00       246.30
  327.23        2953.75           1272          62.00       241.94
  327.26        2954.00           1276          63.00       246.30
  327.29        2954.25           1279          64.00       250.66
  327.33        2954.50           1282          58.00       224.50
  327.36        2954.75           1286          59.00       228.86
  327.39        2955.00           1289          59.00       228.86
  327.42        2955.25           1292          61.00       237.58
  327.45        2955.50           1296          61.00       237.58
  327.48        2955.75           1299          65.00       255.02
  327.51        2956.00           1302          69.00       272.45
  327.54        2956.25           1306          72.00       285.53
  327.57        2956.50           1309          58.00       224.50
  327.60        2956.75           1312          60.00       233.22
  327.63        2957.00           1316          56.00       215.78
  327.66        2957.25           1319          51.00       193.99
  327.69        2957.50           1322          57.00       220.14
  327.72        2957.75           1326          54.00       207.06
  327.76        2958.00           1329          67.00       263.73
  327.79        2958.25           1332          65.00       255.02
  327.82        2958.50           1336          58.00       224.50
  327.85        2958.75           1339          55.00       211.42
  327.88        2959.00           1342          60.00       233.22
  327.91        2959.25           1346          61.00       237.58
  327.94        2959.50           1349          77.00       307.33
  327.97        2959.75           1352          87.00       350.92
  328.00        2960.00           1356         117.00       481.70
  328.03        2960.25           1359         140.00       581.96
  328.06        2960.50           1362         179.00       751.98
  328.09        2960.75           1366         236.00      1000.47
  328.12        2961.00           1369         273.00      1161.77
  328.16        2961.25           1372         308.00      1314.35
  328.19        2961.50           1376         379.00      1623.88
  328.22        2961.75           1379         467.00      2007.53
  328.25        2962.00           1382         796.00      3441.94
  328.28        2962.25           1386        2342.00     10184.02
  328.31        2962.50           1389        3810.00     16588.46
  328.34        2962.75           1392        5250.00     22873.15
  328.37        2963.00           1396        7244.00     31579.60
  328.40        2963.25           1399        8757.00     38188.89
  328.43        2963.50           1402       10380.00     45281.61
  328.46        2963.75           1406       12503.00     54563.97
  328.49        2964.00           1409       13985.00     61046.75
  328.52        2964.25           1412       15449.00     67453.28
  328.55        2964.50           1416       17585.00     76804.93
  328.59        2964.75           1419       19047.00     83208.76
  328.62        2965.00           1422       20915.00     91394.54
  328.65        2965.25           1426       23039.00    100707.00
  328.68        2965.50           1429       24618.00    107633.40
  328.71        2965.75           1432       26308.00    115049.90
  328.74        2966.00           1436       28265.00    123642.20
  328.77        2966.25           1439       29816.00    130455.10
  328.80        2966.50           1442       31147.00    136303.80
  328.83        2966.75           1446       32649.00    142906.50
  328.86        2967.00           1449       33225.00    145439.20
  328.89        2967.25           1452       33349.00    145984.50
  328.92        2967.50           1456       33334.00    145918.50
  328.96        2967.75           1459       33330.00    145901.00
  328.99        2968.00           1462       33230.00    145461.20
  329.02        2968.25           1466       32248.00    141143.50
  329.05        2968.50           1469       31231.00    136673.00
  329.08        2968.75           1472       29560.00    129330.40
  329.11        2969.00           1476       27665.00    121007.40
  329.14        2969.25           1479       26272.00    114891.80
  329.17        2969.50           1482       24633.00    107699.20
  329.20        2969.75           1486       22665.00     99066.88
  329.23        2970.00           1489       21264.00     92924.34
  329.27        2970.25           1492       19778.00     86411.59
  329.30        2970.50           1496       17582.00     76791.80
  329.33        2970.75           1499       16232.00     70880.73
  329.36        2971.00           1502       14649.00     63952.14
  329.39        2971.25           1506       12475.00     54441.51
  329.42        2971.50           1509       10831.00     47253.08
  329.45        2971.75           1513        8823.00     38477.26
  329.48        2972.00           1516        7234.00     31535.93
  329.51        2972.25           1519        5696.00     24820.13
  329.55        2972.50           1523        3979.00     17325.92
  329.58        2972.75           1526        2550.00     11091.31
  329.61        2973.00           1529        1251.00      5425.91
  329.64        2973.25           1533         466.00      2003.17
  329.67        2973.50           1536         340.00      1453.86
  329.70        2973.75           1539         295.00      1257.68
  329.73        2974.00           1543         230.00       974.31
  329.76        2974.25           1546         177.00       743.26
  329.79        2974.50           1549         127.00       525.29
  329.82        2974.75           1553         102.00       416.31
  329.85        2975.00           1556          88.00       355.28
  329.88        2975.25           1559          59.00       228.86
  329.91        2975.50           1563          58.00       224.50
  329.94        2975.75           1566          62.00       241.94
  329.97        2976.00           1569          59.00       228.86
  330.01        2976.25           1573          56.00       215.78
  330.04        2976.50           1576          57.00       220.14
  330.07        2976.75           1579          56.00       215.78
  330.10        2977.00           1583          53.00       202.70
  330.13        2977.25           1586          57.00       220.14
  330.16        2977.50           1590          60.00       233.22
  330.19        2977.75           1593          58.00       224.50
  330.22        2978.00           1596          58.00       224.50
  330.25        2978.25           1600          57.00       220.14
  330.28        2978.50           1603          56.00       215.78
  330.31        2978.75           1606          58.00       224.50
  330.34        2979.00           1610          57.00       220.14
  330.38        2979.25           1613          58.00       224.50
  330.41        2979.50           1616          53.00       202.70
  330.44        2979.75           1620          58.00       224.50
  330.47        2980.00           1623          59.00       228.86
  330.50        2980.25           1626          56.00       215.78
  330.53        2980.50           1630          59.00       228.86
  330.56        2980.75           1633          59.00       228.86
  330.59        2981.00           1637          50.00       189.63
  330.62        2981.25           1640          55.00       211.42
  330.65        2981.50           1643          55.00       211.42
  330.68        2981.75           1647          57.00       220.14
  330.71        2982.00           1650          52.00       198.34
  330.74        2982.25           1653          56.00       215.78
  330.77        2982.50           1657          60.00       233.22
  330.80        2982.75           1660          52.00       198.34
  330.84        2983.00           1663          52.00       198.34
  330.87        2983.25           1667          59.00       228.86
  330.90        2983.50           1670          59.00       228.86
  330.93        2983.75           1673          56.00       215.78
  330.96        2984.00           1677          54.00       207.06
HS scan finished at 05:31:11
end
************************************************************
  HS Scan of (1) Internal mercury lamp
************************************************************
Integration time is 0.2294 seconds per sample
dh030118Manchester 53.47 2.23 2.804185pr1000
************************************************************
Dead Time -------------------------  3E-08 
Number of Cycles Used -------------  4 
Starting Wavelength (Angstroms) ---  2950 
Final Wavelength (Angstoms) -------  2984 
Wavelength Increment (Angstroms) --  .25 
Filter Wheel #1 Position ---------- (1) Ground quartz diffuser (ND=2.32)
Filter Wheel #2 Position ---------- (1) Neutral Density 0.494



************************************************************
HS scan start time = 17:12:03
Dark Count =  6.7 


Time (GMT)  Wavelength (Ang)  Step Number  Raw Counts  Counts/Second

 1032.42        2950.00           1222          63.00       245.42
 1032.49        2950.25           1226          72.00       284.66
 1032.52        2950.50           1229          68.00       267.22
 1032.55        2950.75           1232          61.00       236.71
 1032.58        2951.00           1236          56.00       214.91
 1032.61        2951.25           1239          61.00       236.71
 1032.64        2951.50           1242          65.00       254.14
 1032.67        2951.75           1246          63.00       245.42
 1032.70        2952.00           1249          63.00       245.42
 1032.73        2952.25           1252          66.00       258.50
 1032.76        2952.50           1256          52.00       197.47
 1032.79        2952.75           1259          62.00       241.07
 1032.82        2953.00           1262          69.00       271.58
 1032.85        2953.25           1266          72.00       284.66
 1032.88        2953.50           1269          56.00       214.91
 1032.92        2953.75           1272          52.00       197.47
 1032.95        2954.00           1276          67.00       262.86
 1032.98        2954.25           1279          63.00       245.42
 1033.01        2954.50           1282          64.00       249.78
 1033.04        2954.75           1286          60.00       232.35
 1033.07        2955.00           1289          61.00       236.71
 1033.10        2955.25           1292          71.00       280.30
 1033.13        2955.50           1296          65.00       254.14
 1033.16        2955.75           1299          63.00       245.42
 1033.19        2956.00           1302          60.00       232.35
 1033.22        2956.25           1306          63.00       245.42
 1033.25        2956.50           1309          68.00       267.22
 1033.28        2956.75           1312          63.00       245.42
 1033.31        2957.00           1316          55.00       210.55
 1033.34        2957.25           1319          64.00       249.78
 1033.38        2957.50           1322          65.00       254.14
 1033.41        2957.75           1326          60.00       232.35
 1033.44        2958.00           1329          59.00       227.99
 1033.47        2958.25           1332          68.00       267.22
 1033.50        2958.50           1336          61.00       236.71
 1033.53        2958.75           1339          63.00       245.42
 1033.56        2959.00           1342          75.00       297.74
 1033.59        2959.25           1346          73.00       289.02
 1033.62        2959.50           1349          73.00       289.02
 1033.66        2959.75           1352          80.00       319.53
 1033.69        2960.00           1356         115.00       472.11
 1033.72        2960.25           1359         141.00       585.45
 1033.75        2960.50           1362         193.00       812.14
 1033.78        2960.75           1366         243.00      1030.11
 1033.81        2961.00           1369         260.00      1104.22
 1033.84        2961.25           1372         325.00      1387.59
 1033.87        2961.50           1376         398.00      1705.84
 1033.90        2961.75           1379         564.00      2429.56
 1033.93        2962.00           1382        1189.00      5154.68
 1033.96        2962.25           1386        2945.00     12813.56
 1033.99        2962.50           1389        4284.00     18656.04
 1034.02        2962.75           1392        5722.00     24932.77
 1034.05        2963.00           1396        7696.00     33552.94
 1034.09        2963.25           1399        9313.00     40617.47
 1034.12        2963.50           1402       10716.00     46749.48
 1034.15        2963.75           1406       12880.00     56211.98
 1034.18        2964.00           1409       14363.00     62699.78
 1034.21        2964.25           1412       15922.00     69522.80
 1034.24        2964.50           1416       18021.00     78713.56
 1034.27        2964.75           1419       19314.00     84377.66
 1034.30        2965.00           1422       20895.00     91306.00
 1034.33        2965.25           1426       22917.00    100171.10
 1034.36        2965.50           1429       24429.00    106803.30
 1034.40        2965.75           1432       26166.00    114425.70
 1034.43        2966.00           1436       28100.00    122916.70
 1034.46        2966.25           1439       29460.00    128890.20
 1034.49        2966.50           1442       30958.00    135472.30
 1034.52        2966.75           1446       32432.00    141951.50
 1034.55        2967.00           1449       32959.00    144268.70
 1034.58        2967.25           1452       32983.00    144374.20
 1034.61        2967.50           1456       33004.00    144466.50
 1034.64        2967.75           1459       33049.00    144664.40
 1034.67        2968.00           1462       32989.00    144400.60
 1034.71        2968.25           1466       31880.00    139524.80
 1034.74        2968.50           1469       30647.00    134105.60
 1034.77        2968.75           1472       29134.00    127458.10
 1034.80        2969.00           1476       27084.00    118455.50
 1034.83        2969.25           1479       25504.00    111520.30
 1034.86        2969.50           1482       24043.00    105109.90
 1034.89        2969.75           1486       22154.00     96825.31
 1034.92        2970.00           1489       20687.00     90394.32
 1034.95        2970.25           1492       19249.00     84092.88
 1034.98        2970.50           1496       17257.00     75367.69
 1035.02        2970.75           1499       15776.00     68883.71
 1035.05        2971.00           1502       14288.00     62371.62
 1035.08        2971.25           1506       12256.00     53482.87
 1035.11        2971.50           1509       10684.00     46609.60
 1035.14        2971.75           1513        8532.00     37204.97
 1035.17        2972.00           1516        7087.00     30893.05
 1035.20        2972.25           1519        5457.00     23775.89
 1035.23        2972.50           1523        3425.00     14907.71
 1035.26        2972.75           1526        2082.00      9049.10
 1035.29        2973.00           1529         922.00      3990.45
 1035.32        2973.25           1533         425.00      1823.55
 1035.35        2973.50           1536         314.00      1339.64
 1035.38        2973.75           1539         260.00      1104.22
 1035.41        2974.00           1543         221.00       934.20
 1035.45        2974.25           1546         167.00       698.79
 1035.48        2974.50           1549         127.00       524.42
 1035.51        2974.75           1553          96.00       389.28
 1035.54        2975.00           1556          80.00       319.53
 1035.57        2975.25           1559          65.00       254.14
 1035.60        2975.50           1563          63.00       245.42
 1035.63        2975.75           1566          68.00       267.22
 1035.66        2976.00           1569          54.00       206.19
 1035.69        2976.25           1573          62.00       241.07
 1035.72        2976.50           1576          65.00       254.14
 1035.75        2976.75           1579          62.00       241.07
 1035.78        2977.00           1583          57.00       219.27
 1035.82        2977.25           1586          68.00       267.22
 1035.85        2977.50           1590          60.00       232.35
 1035.88        2977.75           1593          61.00       236.71
 1035.91        2978.00           1596          64.00       249.78
 1035.94        2978.25           1600          55.00       210.55
 1035.97        2978.50           1603          58.00       223.63
 1036.00        2978.75           1606          52.00       197.47
 1036.03        2979.00           1610          60.00       232.35
 1036.06        2979.25           1613          60.00       232.35
 1036.09        2979.50           1616          58.00       223.63
 1036.13        2979.75           1620          59.00       227.99
 1036.16        2980.00           1623          55.00       210.55
 1036.19        2980.25           1626          61.00       236.71
 1036.22        2980.50           1630          58.00       223.63
 1036.25        2980.75           1633          55.00       210.55
 1036.28        2981.00           1637          67.00       262.86
 1036.31        2981.25           1640          54.00       206.19
 1036.34        2981.50           1643          57.00       219.27
 1036.37        2981.75           1647          56.00       214.91
 1036.40        2982.00           1650          54.00       206.19
 1036.43        2982.25           1653          67.00       262.86
 1036.46        2982.50           1657          57.00       219.27
 1036.49        2982.75           1660          51.00       193.11
 1036.52        2983.00           1663          58.00       223.63
 1036.56        2983.25           1667          58.00       223.63
 1036.59        2983.50           1670          58.00       223.63
 1036.62        2983.75           1673          56.00       214.91
 1036.65        2984.00           1677          61.00       236.71
HS scan finished at 17:16:52
end
