************************************************************
  HS Scan of (1) Internal mercury lamp
************************************************************
Integration time is 0.2294 seconds per sample
dh050117Manchester 53.47 2.23 2.750537pr1000
************************************************************
Dead Time -------------------------  3E-08 
Number of Cycles Used -------------  4 
Starting Wavelength (Angstroms) ---  2950 
Final Wavelength (Angstoms) -------  2984 
Wavelength Increment (Angstroms) --  .25 
Filter Wheel #1 Position ---------- (1) Ground quartz diffuser (ND=2.32)
Filter Wheel #2 Position ---------- (1) Neutral Density 0.494



************************************************************
HS scan start time = 05:26:07
Dark Count =  6.3 


Time (GMT)  Wavelength (Ang)  Step Number  Raw Counts  Counts/Second

  326.49        2950.00           1222          40.00       146.91
  326.55        2950.25           1226          39.00       142.55
  326.58        2950.50           1229          36.00       129.47
  326.61        2950.75           1232          41.00       151.26
  326.64        2951.00           1236          44.00       164.34
  326.68        2951.25           1239          47.00       177.42
  326.71        2951.50           1242          54.00       207.94
  326.74        2951.75           1246          35.00       125.11
  326.77        2952.00           1249          50.00       190.50
  326.80        2952.25           1252          44.00       164.34
  326.83        2952.50           1256          50.00       190.50
  326.86        2952.75           1259          46.00       173.06
  326.89        2953.00           1262          47.00       177.42
  326.92        2953.25           1266          41.00       151.26
  326.95        2953.50           1269          41.00       151.26
  326.98        2953.75           1272          43.00       159.98
  327.01        2954.00           1276          50.00       190.50
  327.04        2954.25           1279          44.00       164.34
  327.07        2954.50           1282          44.00       164.34
  327.11        2954.75           1286          38.00       138.19
  327.14        2955.00           1289          44.00       164.34
  327.17        2955.25           1292          46.00       173.06
  327.20        2955.50           1296          41.00       151.26
  327.23        2955.75           1299          53.00       203.58
  327.26        2956.00           1302          43.00       159.98
  327.29        2956.25           1306          48.00       181.78
  327.32        2956.50           1309          40.00       146.91
  327.35        2956.75           1312          47.00       177.42
  327.38        2957.00           1316          44.00       164.34
  327.41        2957.25           1319          50.00       190.50
  327.44        2957.50           1322          44.00       164.34
  327.47        2957.75           1326          44.00       164.34
  327.51        2958.00           1329          45.00       168.70
  327.54        2958.25           1332          51.00       194.86
  327.57        2958.50           1336          49.00       186.14
  327.60        2958.75           1339          40.00       146.91
  327.63        2959.00           1342          42.00       155.62
  327.66        2959.25           1346          43.00       159.98
  327.69        2959.50           1349          50.00       190.50
  327.72        2959.75           1352          51.00       194.86
  327.75        2960.00           1356          67.00       264.61
  327.78        2960.25           1359          80.00       321.28
  327.81        2960.50           1362         117.00       482.57
  327.85        2960.75           1366         184.00       774.65
  327.88        2961.00           1369         226.00       957.74
  327.91        2961.25           1372         259.00      1101.61
  327.94        2961.50           1376         324.00      1384.97
  327.97        2961.75           1379         445.00      1912.49
  328.00        2962.00           1382         841.00      3639.02
  328.03        2962.25           1386        2201.00      9569.88
  328.06        2962.50           1389        3708.00     16144.26
  328.09        2962.75           1392        5248.00     22865.29
  328.12        2963.00           1396        7391.00     32222.51
  328.16        2963.25           1399        8883.00     38740.29
  328.19        2963.50           1402       10501.00     45811.40
  328.22        2963.75           1406       12800.00     55863.82
  328.25        2964.00           1409       14412.00     62915.94
  328.28        2964.25           1412       16207.00     70772.16
  328.31        2964.50           1416       18307.00     79968.00
  328.34        2964.75           1419       19936.00     87104.83
  328.37        2965.00           1422       21590.00     94354.33
  328.40        2965.25           1426       23894.00    104458.10
  328.43        2965.50           1429       25510.00    111548.30
  328.46        2965.75           1432       27300.00    119405.60
  328.50        2966.00           1436       29375.00    128518.50
  328.53        2966.25           1439       31114.00    136159.70
  328.56        2966.50           1442       32357.00    141623.60
  328.59        2966.75           1446       34192.00    149693.00
  328.62        2967.00           1449       35228.00    154250.50
  328.65        2967.25           1452       35720.00    156415.40
  328.68        2967.50           1456       35571.00    155759.70
  328.71        2967.75           1459       35595.00    155865.30
  328.75        2968.00           1462       35502.00    155456.10
  328.78        2968.25           1466       34903.00    152820.60
  328.81        2968.50           1469       33739.00    147700.50
  328.84        2968.75           1472       32345.00    141570.80
  328.87        2969.00           1476       30292.00    132547.40
  328.90        2969.25           1479       28470.00    124543.40
  328.93        2969.50           1482       27124.00    118632.90
  328.96        2969.75           1486       24843.00    108621.50
  328.99        2970.00           1489       23333.00    101997.30
  329.03        2970.25           1492       21732.00     94976.86
  329.06        2970.50           1496       19737.00     86232.81
  329.09        2970.75           1499       17860.00     78010.16
  329.12        2971.00           1502       16264.00     71021.69
  329.15        2971.25           1506       14085.00     61485.16
  329.18        2971.50           1509       12191.00     53200.36
  329.21        2971.75           1513       10108.00     44093.60
  329.24        2972.00           1516        8541.00     37246.05
  329.27        2972.25           1519        6923.00     30178.58
  329.30        2972.50           1523        4839.00     21080.03
  329.33        2972.75           1526        3243.00     14115.39
  329.36        2973.00           1529        1932.00      8396.62
  329.40        2973.25           1533         685.00      2958.85
  329.43        2973.50           1536         404.00      1733.74
  329.46        2973.75           1539         315.00      1345.74
  329.49        2974.00           1543         259.00      1101.61
  329.52        2974.25           1546         208.00       879.27
  329.55        2974.50           1549         150.00       626.43
  329.58        2974.75           1553         113.00       465.13
  329.61        2975.00           1556          88.00       356.15
  329.64        2975.25           1559          65.00       255.89
  329.67        2975.50           1563          54.00       207.94
  329.70        2975.75           1566          48.00       181.78
  329.73        2976.00           1569          48.00       181.78
  329.77        2976.25           1573          43.00       159.98
  329.80        2976.50           1576          45.00       168.70
  329.83        2976.75           1579          45.00       168.70
  329.86        2977.00           1583          51.00       194.86
  329.89        2977.25           1586          51.00       194.86
  329.92        2977.50           1590          42.00       155.62
  329.95        2977.75           1593          51.00       194.86
  329.98        2978.00           1596          39.00       142.55
  330.01        2978.25           1600          49.00       186.14
  330.04        2978.50           1603          37.00       133.83
  330.07        2978.75           1606          46.00       173.06
  330.11        2979.00           1610          43.00       159.98
  330.14        2979.25           1613          46.00       173.06
  330.17        2979.50           1616          47.00       177.42
  330.20        2979.75           1620          43.00       159.98
  330.23        2980.00           1623          40.00       146.91
  330.26        2980.25           1626          40.00       146.91
  330.29        2980.50           1630          43.00       159.98
  330.32        2980.75           1633          38.00       138.19
  330.35        2981.00           1637          42.00       155.62
  330.38        2981.25           1640          42.00       155.62
  330.42        2981.50           1643          43.00       159.98
  330.45        2981.75           1647          42.00       155.62
  330.48        2982.00           1650          42.00       155.62
  330.51        2982.25           1653          53.00       203.58
  330.54        2982.50           1657          43.00       159.98
  330.57        2982.75           1660          49.00       186.14
  330.60        2983.00           1663          43.00       159.98
  330.63        2983.25           1667          44.00       164.34
  330.66        2983.50           1670          48.00       181.78
  330.69        2983.75           1673          39.00       142.55
  330.73        2984.00           1677          43.00       159.98
HS scan finished at 05:30:57
end
************************************************************
  HS Scan of (1) Internal mercury lamp
************************************************************
Integration time is 0.2294 seconds per sample
dh050117Manchester 53.47 2.23 2.750537pr1000
************************************************************
Dead Time -------------------------  3E-08 
Number of Cycles Used -------------  4 
Starting Wavelength (Angstroms) ---  2950 
Final Wavelength (Angstoms) -------  2984 
Wavelength Increment (Angstroms) --  .25 
Filter Wheel #1 Position ---------- (1) Ground quartz diffuser (ND=2.32)
Filter Wheel #2 Position ---------- (1) Neutral Density 0.494



************************************************************
HS scan start time = 17:11:56
Dark Count =  7.6 


Time (GMT)  Wavelength (Ang)  Step Number  Raw Counts  Counts/Second

 1032.30        2950.00           1222          42.00       149.96
 1032.37        2950.25           1226          49.00       180.47
 1032.40        2950.50           1229          51.00       189.19
 1032.43        2950.75           1232          42.00       149.96
 1032.46        2951.00           1236          42.00       149.96
 1032.49        2951.25           1239          40.00       141.24
 1032.52        2951.50           1242          47.00       171.75
 1032.55        2951.75           1246          39.00       136.88
 1032.58        2952.00           1249          44.00       158.68
 1032.61        2952.25           1252          42.00       149.96
 1032.64        2952.50           1256          51.00       189.19
 1032.67        2952.75           1259          41.00       145.60
 1032.71        2953.00           1262          49.00       180.47
 1032.74        2953.25           1266          42.00       149.96
 1032.77        2953.50           1269          50.00       184.83
 1032.80        2953.75           1272          39.00       136.88
 1032.83        2954.00           1276          49.00       180.47
 1032.86        2954.25           1279          49.00       180.47
 1032.89        2954.50           1282          42.00       149.96
 1032.92        2954.75           1286          38.00       132.52
 1032.95        2955.00           1289          45.00       163.03
 1032.98        2955.25           1292          37.00       128.16
 1033.01        2955.50           1296          42.00       149.96
 1033.04        2955.75           1299          49.00       180.47
 1033.07        2956.00           1302          39.00       136.88
 1033.11        2956.25           1306          48.00       176.11
 1033.14        2956.50           1309          44.00       158.68
 1033.17        2956.75           1312          38.00       132.52
 1033.20        2957.00           1316          49.00       180.47
 1033.23        2957.25           1319          46.00       167.39
 1033.26        2957.50           1322          45.00       163.03
 1033.29        2957.75           1326          44.00       158.68
 1033.32        2958.00           1329          46.00       167.39
 1033.35        2958.25           1332          42.00       149.96
 1033.39        2958.50           1336          41.00       145.60
 1033.42        2958.75           1339          45.00       163.03
 1033.45        2959.00           1342          46.00       167.39
 1033.48        2959.25           1346          41.00       145.60
 1033.51        2959.50           1349          53.00       197.91
 1033.54        2959.75           1352          58.00       219.71
 1033.57        2960.00           1356          96.00       385.36
 1033.60        2960.25           1359         128.00       524.86
 1033.63        2960.50           1362         168.00       699.23
 1033.66        2960.75           1366         241.00      1017.47
 1033.70        2961.00           1369         266.00      1126.45
 1033.73        2961.25           1372         305.00      1296.48
 1033.76        2961.50           1376         374.00      1597.29
 1033.79        2961.75           1379         501.00      2150.97
 1033.82        2962.00           1382         868.00      3751.08
 1033.85        2962.25           1386        2129.00      9250.17
 1033.88        2962.50           1389        3660.00     15929.15
 1033.91        2962.75           1392        5184.00     22580.24
 1033.94        2963.00           1396        7258.00     31635.94
 1033.97        2963.25           1399        9006.00     39272.05
 1034.00        2963.50           1402       10503.00     45814.46
 1034.04        2963.75           1406       12910.00     56339.26
 1034.07        2964.00           1409       14608.00     63767.91
 1034.10        2964.25           1412       16177.00     70635.15
 1034.13        2964.50           1416       18671.00     81556.77
 1034.16        2964.75           1419       20098.00     87809.04
 1034.19        2965.00           1422       21797.00     95256.13
 1034.22        2965.25           1426       24050.00    105136.70
 1034.25        2965.50           1429       25806.00    112841.70
 1034.29        2965.75           1432       27378.00    119742.40
 1034.32        2966.00           1436       29396.00    128605.10
 1034.35        2966.25           1439       30798.00    134765.20
 1034.38        2966.50           1442       32545.00    142444.40
 1034.41        2966.75           1446       33991.00    148803.10
 1034.44        2967.00           1449       34967.00    153096.50
 1034.47        2967.25           1452       35096.00    153664.00
 1034.50        2967.50           1456       35263.00    154398.80
 1034.53        2967.75           1459       35155.00    153923.60
 1034.57        2968.00           1462       35057.00    153492.40
 1034.60        2968.25           1466       34342.00    150347.10
 1034.63        2968.50           1469       33175.00    145214.50
 1034.66        2968.75           1472       31739.00    138901.10
 1034.69        2969.00           1476       29629.00    129628.70
 1034.72        2969.25           1479       27904.00    122052.00
 1034.75        2969.50           1482       26325.00    115119.70
 1034.78        2969.75           1486       24192.00    105759.60
 1034.81        2970.00           1489       22656.00     99022.59
 1034.84        2970.25           1492       21010.00     91806.13
 1034.88        2970.50           1496       18885.00     82494.24
 1034.91        2970.75           1499       17396.00     75972.45
 1034.94        2971.00           1502       15787.00     68927.91
 1034.97        2971.25           1506       13614.00     59418.82
 1035.00        2971.50           1509       11911.00     51970.25
 1035.03        2971.75           1513        9923.00     43279.35
 1035.06        2972.00           1516        8331.00     36322.91
 1035.09        2972.25           1519        6614.00     28823.52
 1035.12        2972.50           1523        4616.00     20101.05
 1035.16        2972.75           1526        3053.00     13280.79
 1035.19        2973.00           1529        1715.00      7444.56
 1035.22        2973.25           1533         591.00      2543.35
 1035.25        2973.50           1536         352.00      1501.38
 1035.28        2973.75           1539         280.00      1187.49
 1035.31        2974.00           1543         219.00       921.56
 1035.34        2974.25           1546         183.00       764.62
 1035.37        2974.50           1549         121.00       494.34
 1035.40        2974.75           1553          84.00       333.05
 1035.43        2975.00           1556          56.00       210.99
 1035.46        2975.25           1559          53.00       197.91
 1035.49        2975.50           1563          45.00       163.03
 1035.53        2975.75           1566          44.00       158.68
 1035.56        2976.00           1569          45.00       163.03
 1035.59        2976.25           1573          40.00       141.24
 1035.62        2976.50           1576          49.00       180.47
 1035.65        2976.75           1579          48.00       176.11
 1035.68        2977.00           1583          47.00       171.75
 1035.71        2977.25           1586          45.00       163.03
 1035.74        2977.50           1590          47.00       171.75
 1035.77        2977.75           1593          40.00       141.24
 1035.80        2978.00           1596          44.00       158.68
 1035.83        2978.25           1600          47.00       171.75
 1035.86        2978.50           1603          45.00       163.03
 1035.89        2978.75           1606          47.00       171.75
 1035.92        2979.00           1610          51.00       189.19
 1035.95        2979.25           1613          46.00       167.39
 1035.98        2979.50           1616          47.00       171.75
 1036.02        2979.75           1620          44.00       158.68
 1036.05        2980.00           1623          41.00       145.60
 1036.08        2980.25           1626          42.00       149.96
 1036.11        2980.50           1630          47.00       171.75
 1036.14        2980.75           1633          42.00       149.96
 1036.17        2981.00           1637          41.00       145.60
 1036.20        2981.25           1640          44.00       158.68
 1036.23        2981.50           1643          46.00       167.39
 1036.26        2981.75           1647          43.00       154.32
 1036.29        2982.00           1650          44.00       158.68
 1036.33        2982.25           1653          41.00       145.60
 1036.36        2982.50           1657          42.00       149.96
 1036.39        2982.75           1660          40.00       141.24
 1036.42        2983.00           1663          41.00       145.60
 1036.45        2983.25           1667          40.00       141.24
 1036.48        2983.50           1670          45.00       163.03
 1036.51        2983.75           1673          42.00       149.96
 1036.54        2984.00           1677          42.00       149.96
HS scan finished at 17:16:45
end
