************************************************************
  HS Scan of (1) Internal mercury lamp
************************************************************
Integration time is 0.2294 seconds per sample
dh050118Manchester 53.47 2.23 2.804185pr1000
************************************************************
Dead Time -------------------------  3E-08 
Number of Cycles Used -------------  4 
Starting Wavelength (Angstroms) ---  2950 
Final Wavelength (Angstoms) -------  2984 
Wavelength Increment (Angstroms) --  .25 
Filter Wheel #1 Position ---------- (1) Ground quartz diffuser (ND=2.32)
Filter Wheel #2 Position ---------- (1) Neutral Density 0.494



************************************************************
HS scan start time = 05:26:04
Dark Count =  6.3 


Time (GMT)  Wavelength (Ang)  Step Number  Raw Counts  Counts/Second

  326.43        2950.00           1222          64.00       251.53
  326.50        2950.25           1226          61.00       238.45
  326.53        2950.50           1229          62.00       242.81
  326.56        2950.75           1232          62.00       242.81
  326.59        2951.00           1236          62.00       242.81
  326.62        2951.25           1239          58.00       225.37
  326.65        2951.50           1242          60.00       234.09
  326.68        2951.75           1246          67.00       264.61
  326.72        2952.00           1249          64.00       251.53
  326.75        2952.25           1252          68.00       268.96
  326.78        2952.50           1256          59.00       229.73
  326.81        2952.75           1259          59.00       229.73
  326.84        2953.00           1262          63.00       247.17
  326.87        2953.25           1266          66.00       260.25
  326.90        2953.50           1269          62.00       242.81
  326.93        2953.75           1272          62.00       242.81
  326.96        2954.00           1276          70.00       277.68
  326.99        2954.25           1279          53.00       203.58
  327.02        2954.50           1282          64.00       251.53
  327.05        2954.75           1286          57.00       221.01
  327.09        2955.00           1289          61.00       238.45
  327.12        2955.25           1292          59.00       229.73
  327.15        2955.50           1296          67.00       264.61
  327.18        2955.75           1299          60.00       234.09
  327.21        2956.00           1302          61.00       238.45
  327.24        2956.25           1306          59.00       229.73
  327.27        2956.50           1309          68.00       268.96
  327.30        2956.75           1312          61.00       238.45
  327.33        2957.00           1316          55.00       212.29
  327.36        2957.25           1319          67.00       264.61
  327.39        2957.50           1322          64.00       251.53
  327.42        2957.75           1326          61.00       238.45
  327.45        2958.00           1329          68.00       268.96
  327.48        2958.25           1332          63.00       247.17
  327.52        2958.50           1336          66.00       260.25
  327.55        2958.75           1339          66.00       260.25
  327.58        2959.00           1342          61.00       238.45
  327.61        2959.25           1346          57.00       221.01
  327.64        2959.50           1349          82.00       329.99
  327.67        2959.75           1352          83.00       334.35
  327.70        2960.00           1356         105.00       430.26
  327.73        2960.25           1359         124.00       513.09
  327.76        2960.50           1362         166.00       696.18
  327.79        2960.75           1366         204.00       861.84
  327.83        2961.00           1369         273.00      1162.64
  327.86        2961.25           1372         292.00      1245.47
  327.89        2961.50           1376         345.00      1476.53
  327.92        2961.75           1379         443.00      1903.77
  327.95        2962.00           1382         760.00      3285.85
  327.98        2962.25           1386        2093.00      9098.82
  328.01        2962.50           1389        3395.00     14778.57
  328.04        2962.75           1392        5005.00     21804.58
  328.07        2963.00           1396        6933.00     30222.25
  328.10        2963.25           1399        8405.00     36651.88
  328.13        2963.50           1402        9947.00     43389.93
  328.16        2963.75           1406       12080.00     52714.95
  328.19        2964.00           1409       13593.00     59332.64
  328.23        2964.25           1412       15330.00     66933.31
  328.26        2964.50           1416       17383.00     75921.21
  328.29        2964.75           1419       18761.00     81956.71
  328.32        2965.00           1422       20388.00     89085.62
  328.35        2965.25           1426       22530.00     98475.77
  328.38        2965.50           1429       23761.00    103874.60
  328.41        2965.75           1432       25435.00    111219.20
  328.44        2966.00           1436       27625.00    120832.60
  328.47        2966.25           1439       29121.00    127402.80
  328.51        2966.50           1442       30582.00    133821.70
  328.54        2966.75           1446       32311.00    141421.30
  328.57        2967.00           1449       33030.00    144582.60
  328.60        2967.25           1452       33236.00    145488.50
  328.63        2967.50           1456       33175.00    145220.20
  328.66        2967.75           1459       33233.00    145475.30
  328.69        2968.00           1462       33034.00    144600.20
  328.72        2968.25           1466       32617.00    142766.70
  328.75        2968.50           1469       31557.00    138106.80
  328.78        2968.75           1472       30352.00    132811.00
  328.82        2969.00           1476       28300.00    123796.80
  328.85        2969.25           1479       26611.00    116380.80
  328.88        2969.50           1482       25300.00    110626.80
  328.91        2969.75           1486       23192.00    101378.90
  328.94        2970.00           1489       21464.00     93801.96
  328.97        2970.25           1492       20261.00     88529.06
  329.00        2970.50           1496       18344.00     80130.06
  329.03        2970.75           1499       16635.00     72645.94
  329.06        2971.00           1502       15148.00     66136.76
  329.09        2971.25           1506       13084.00     57106.04
  329.13        2971.50           1509       11667.00     50908.99
  329.16        2971.75           1513        9564.00     41716.08
  329.19        2972.00           1516        8056.00     35127.24
  329.22        2972.25           1519        6546.00     28532.26
  329.25        2972.50           1523        4449.00     19377.87
  329.28        2972.75           1526        2988.00     13002.89
  329.31        2973.00           1529        1623.00      7049.01
  329.34        2973.25           1533         567.00      2444.38
  329.37        2973.50           1536         361.00      1546.28
  329.40        2973.75           1539         301.00      1284.71
  329.44        2974.00           1543         248.00      1053.65
  329.47        2974.25           1546         195.00       822.60
  329.50        2974.50           1549         152.00       635.15
  329.53        2974.75           1553         106.00       434.62
  329.56        2975.00           1556         101.00       412.82
  329.59        2975.25           1559          78.00       312.56
  329.62        2975.50           1563          65.00       255.89
  329.65        2975.75           1566          59.00       229.73
  329.68        2976.00           1569          56.00       216.65
  329.71        2976.25           1573          66.00       260.25
  329.74        2976.50           1576          59.00       229.73
  329.77        2976.75           1579          58.00       225.37
  329.81        2977.00           1583          54.00       207.94
  329.84        2977.25           1586          63.00       247.17
  329.87        2977.50           1590          50.00       190.50
  329.90        2977.75           1593          57.00       221.01
  329.93        2978.00           1596          52.00       199.22
  329.96        2978.25           1600          64.00       251.53
  329.99        2978.50           1603          65.00       255.89
  330.02        2978.75           1606          56.00       216.65
  330.05        2979.00           1610          60.00       234.09
  330.08        2979.25           1613          61.00       238.45
  330.12        2979.50           1616          62.00       242.81
  330.15        2979.75           1620          58.00       225.37
  330.18        2980.00           1623          67.00       264.61
  330.21        2980.25           1626          58.00       225.37
  330.24        2980.50           1630          63.00       247.17
  330.27        2980.75           1633          64.00       251.53
  330.30        2981.00           1637          62.00       242.81
  330.33        2981.25           1640          62.00       242.81
  330.36        2981.50           1643          65.00       255.89
  330.39        2981.75           1647          54.00       207.94
  330.42        2982.00           1650          59.00       229.73
  330.45        2982.25           1653          57.00       221.01
  330.48        2982.50           1657          50.00       190.50
  330.52        2982.75           1660          51.00       194.86
  330.55        2983.00           1663          53.00       203.58
  330.58        2983.25           1667          60.00       234.09
  330.61        2983.50           1670          59.00       229.73
  330.64        2983.75           1673          59.00       229.73
  330.67        2984.00           1677          56.00       216.65
HS scan finished at 05:30:53
end
************************************************************
  HS Scan of (1) Internal mercury lamp
************************************************************
Integration time is 0.2294 seconds per sample
dh050118Manchester 53.47 2.23 2.804185pr1000
************************************************************
Dead Time -------------------------  3E-08 
Number of Cycles Used -------------  4 
Starting Wavelength (Angstroms) ---  2950 
Final Wavelength (Angstoms) -------  2984 
Wavelength Increment (Angstroms) --  .25 
Filter Wheel #1 Position ---------- (1) Ground quartz diffuser (ND=2.32)
Filter Wheel #2 Position ---------- (1) Neutral Density 0.494



************************************************************
HS scan start time = 17:12:00
Dark Count =  6.4 


Time (GMT)  Wavelength (Ang)  Step Number  Raw Counts  Counts/Second

 1032.37        2950.00           1222          72.00       285.97
 1032.44        2950.25           1226          57.00       220.58
 1032.47        2950.50           1229          64.00       251.09
 1032.50        2950.75           1232          70.00       277.25
 1032.53        2951.00           1236          66.00       259.81
 1032.56        2951.25           1239          66.00       259.81
 1032.60        2951.50           1242          60.00       233.65
 1032.63        2951.75           1246          58.00       224.94
 1032.66        2952.00           1249          68.00       268.53
 1032.69        2952.25           1252          62.00       242.37
 1032.72        2952.50           1256          63.00       246.73
 1032.75        2952.75           1259          62.00       242.37
 1032.78        2953.00           1262          72.00       285.97
 1032.81        2953.25           1266          62.00       242.37
 1032.84        2953.50           1269          65.00       255.45
 1032.87        2953.75           1272          69.00       272.89
 1032.90        2954.00           1276          69.00       272.89
 1032.93        2954.25           1279          61.00       238.01
 1032.96        2954.50           1282          61.00       238.01
 1033.00        2954.75           1286          60.00       233.65
 1033.03        2955.00           1289          65.00       255.45
 1033.06        2955.25           1292          58.00       224.94
 1033.09        2955.50           1296          55.00       211.86
 1033.12        2955.75           1299          59.00       229.30
 1033.15        2956.00           1302          64.00       251.09
 1033.18        2956.25           1306          58.00       224.94
 1033.21        2956.50           1309          62.00       242.37
 1033.24        2956.75           1312          57.00       220.58
 1033.27        2957.00           1316          62.00       242.37
 1033.31        2957.25           1319          65.00       255.45
 1033.34        2957.50           1322          68.00       268.53
 1033.37        2957.75           1326          65.00       255.45
 1033.40        2958.00           1329          61.00       238.01
 1033.43        2958.25           1332          61.00       238.01
 1033.46        2958.50           1336          52.00       198.78
 1033.49        2958.75           1339          51.00       194.42
 1033.52        2959.00           1342          69.00       272.89
 1033.55        2959.25           1346          69.00       272.89
 1033.58        2959.50           1349          70.00       277.25
 1033.61        2959.75           1352          74.00       294.68
 1033.64        2960.00           1356          98.00       399.31
 1033.67        2960.25           1359         136.00       564.96
 1033.70        2960.50           1362         163.00       682.66
 1033.73        2960.75           1366         211.00       891.92
 1033.77        2961.00           1369         251.00      1066.29
 1033.80        2961.25           1372         309.00      1319.15
 1033.83        2961.50           1376         371.00      1589.44
 1033.86        2961.75           1379         533.00      2295.71
 1033.89        2962.00           1382        1117.00      4842.03
 1033.92        2962.25           1386        2732.00     11885.67
 1033.95        2962.50           1389        4170.00     18159.85
 1033.98        2962.75           1392        5645.00     24597.92
 1034.01        2963.00           1396        7429.00     32388.04
 1034.04        2963.25           1399        8964.00     39093.77
 1034.07        2963.50           1402       10526.00     45920.24
 1034.11        2963.75           1406       12618.00     55067.36
 1034.14        2964.00           1409       14145.00     61747.24
 1034.17        2964.25           1412       15945.00     69624.79
 1034.20        2964.50           1416       18137.00     79222.94
 1034.23        2964.75           1419       19630.00     85763.53
 1034.26        2965.00           1422       21011.00     91815.77
 1034.29        2965.25           1426       23221.00    101505.70
 1034.32        2965.50           1429       24823.00    108533.30
 1034.35        2965.75           1432       26297.00    115002.00
 1034.39        2966.00           1436       28322.00    123892.90
 1034.42        2966.25           1439       29432.00    128768.50
 1034.45        2966.50           1442       30835.00    134933.10
 1034.48        2966.75           1446       32516.00    142322.20
 1034.51        2967.00           1449       32869.00    143874.30
 1034.54        2967.25           1452       32721.00    143223.50
 1034.57        2967.50           1456       32814.00    143632.40
 1034.60        2967.75           1459       32847.00    143777.50
 1034.63        2968.00           1462       32714.00    143192.70
 1034.66        2968.25           1466       31797.00    139161.30
 1034.70        2968.50           1469       30520.00    133548.80
 1034.73        2968.75           1472       29293.00    128157.90
 1034.76        2969.00           1476       27213.00    119023.20
 1034.79        2969.25           1479       25886.00    113198.10
 1034.82        2969.50           1482       24401.00    106681.80
 1034.85        2969.75           1486       22375.00     97795.66
 1034.88        2970.00           1489       20805.00     90912.83
 1034.91        2970.25           1492       19340.00     84492.89
 1034.95        2970.50           1496       17385.00     75929.52
 1034.98        2970.75           1499       15754.00     68788.72
 1035.01        2971.00           1502       14235.00     62141.03
 1035.04        2971.25           1506       12273.00     53558.52
 1035.07        2971.50           1509       10546.00     46007.66
 1035.10        2971.75           1513        8735.00     38093.20
 1035.13        2972.00           1516        7288.00     31772.21
 1035.16        2972.25           1519        5767.00     25130.54
 1035.19        2972.50           1523        3912.00     17033.99
 1035.22        2972.75           1526        2512.00     10925.99
 1035.25        2973.00           1529        1142.00      4951.04
 1035.29        2973.25           1533         443.00      1903.33
 1035.32        2973.50           1536         333.00      1423.77
 1035.35        2973.75           1539         288.00      1227.60
 1035.38        2974.00           1543         243.00      1031.42
 1035.41        2974.25           1546         176.00       739.34
 1035.44        2974.50           1549         131.00       543.16
 1035.47        2974.75           1553         100.00       408.03
 1035.50        2975.00           1556          80.00       320.84
 1035.53        2975.25           1559          68.00       268.53
 1035.57        2975.50           1563          67.00       264.17
 1035.60        2975.75           1566          61.00       238.01
 1035.63        2976.00           1569          61.00       238.01
 1035.66        2976.25           1573          64.00       251.09
 1035.69        2976.50           1576          59.00       229.30
 1035.72        2976.75           1579          57.00       220.58
 1035.75        2977.00           1583          53.00       203.14
 1035.78        2977.25           1586          57.00       220.58
 1035.81        2977.50           1590          61.00       238.01
 1035.84        2977.75           1593          54.00       207.50
 1035.87        2978.00           1596          52.00       198.78
 1035.91        2978.25           1600          55.00       211.86
 1035.94        2978.50           1603          55.00       211.86
 1035.97        2978.75           1606          63.00       246.73
 1036.00        2979.00           1610          60.00       233.65
 1036.03        2979.25           1613          60.00       233.65
 1036.06        2979.50           1616          54.00       207.50
 1036.09        2979.75           1620          58.00       224.94
 1036.12        2980.00           1623          57.00       220.58
 1036.15        2980.25           1626          61.00       238.01
 1036.18        2980.50           1630          49.00       185.70
 1036.21        2980.75           1633          53.00       203.14
 1036.25        2981.00           1637          62.00       242.37
 1036.28        2981.25           1640          58.00       224.94
 1036.31        2981.50           1643          57.00       220.58
 1036.34        2981.75           1647          65.00       255.45
 1036.37        2982.00           1650          51.00       194.42
 1036.40        2982.25           1653          59.00       229.30
 1036.43        2982.50           1657          50.00       190.06
 1036.46        2982.75           1660          51.00       194.42
 1036.49        2983.00           1663          61.00       238.01
 1036.52        2983.25           1667          56.00       216.22
 1036.55        2983.50           1670          58.00       224.94
 1036.58        2983.75           1673          61.00       238.01
 1036.61        2984.00           1677          59.00       229.30
HS scan finished at 17:16:50
end
