************************************************************
  HS Scan of (1) Internal mercury lamp
************************************************************
Integration time is 0.2294 seconds per sample
dh080119Manchester 53.47 2.23 2.804185pr1000
************************************************************
Dead Time -------------------------  3E-08 
Number of Cycles Used -------------  4 
Starting Wavelength (Angstroms) ---  2950 
Final Wavelength (Angstoms) -------  2984 
Wavelength Increment (Angstroms) --  .25 
Filter Wheel #1 Position ---------- (1) Ground quartz diffuser (ND=2.32)
Filter Wheel #2 Position ---------- (1) Neutral Density 0.494



************************************************************
HS scan start time = 05:25:41
Dark Count =  5.2 


Time (GMT)  Wavelength (Ang)  Step Number  Raw Counts  Counts/Second

  326.06        2950.00           1222          55.00       217.09
  326.13        2950.25           1226          57.00       225.81
  326.16        2950.50           1229          52.00       204.01
  326.19        2950.75           1232          53.00       208.37
  326.22        2951.00           1236          55.00       217.09
  326.25        2951.25           1239          52.00       204.01
  326.28        2951.50           1242          55.00       217.09
  326.31        2951.75           1246          58.00       230.17
  326.34        2952.00           1249          55.00       217.09
  326.38        2952.25           1252          58.00       230.17
  326.41        2952.50           1256          53.00       208.37
  326.44        2952.75           1259          51.00       199.65
  326.47        2953.00           1262          50.00       195.29
  326.50        2953.25           1266          54.00       212.73
  326.53        2953.50           1269          49.00       190.93
  326.56        2953.75           1272          51.00       199.65
  326.59        2954.00           1276          51.00       199.65
  326.62        2954.25           1279          58.00       230.17
  326.65        2954.50           1282          56.00       221.45
  326.68        2954.75           1286          62.00       247.60
  326.71        2955.00           1289          64.00       256.32
  326.74        2955.25           1292          48.00       186.57
  326.78        2955.50           1296          46.00       177.86
  326.81        2955.75           1299          53.00       208.37
  326.84        2956.00           1302          54.00       212.73
  326.87        2956.25           1306          52.00       204.01
  326.90        2956.50           1309          54.00       212.73
  326.93        2956.75           1312          53.00       208.37
  326.96        2957.00           1316          53.00       208.37
  326.99        2957.25           1319          53.00       208.37
  327.02        2957.50           1322          54.00       212.73
  327.05        2957.75           1326          57.00       225.81
  327.08        2958.00           1329          55.00       217.09
  327.11        2958.25           1332          60.00       238.89
  327.14        2958.50           1336          55.00       217.09
  327.18        2958.75           1339          55.00       217.09
  327.21        2959.00           1342          67.00       269.40
  327.24        2959.25           1346          60.00       238.89
  327.27        2959.50           1349          59.00       234.53
  327.30        2959.75           1352          62.00       247.60
  327.33        2960.00           1356          76.00       308.63
  327.36        2960.25           1359          98.00       404.54
  327.39        2960.50           1362         128.00       535.32
  327.42        2960.75           1366         157.00       661.74
  327.45        2961.00           1369         187.00       792.52
  327.48        2961.25           1372         226.00       962.54
  327.51        2961.50           1376         255.00      1088.96
  327.55        2961.75           1379         346.00      1485.68
  327.58        2962.00           1382         714.00      3090.09
  327.61        2962.25           1386        1873.00      8144.10
  327.64        2962.50           1389        2996.00     13042.59
  327.67        2962.75           1392        4082.00     17781.06
  327.70        2963.00           1396        5702.00     24852.00
  327.73        2963.25           1399        6714.00     29270.68
  327.76        2963.50           1402        7974.00     34773.84
  327.79        2963.75           1406        9483.00     41366.91
  327.82        2964.00           1409       10760.00     46948.38
  327.85        2964.25           1412       11803.00     51508.48
  327.89        2964.50           1416       13383.00     58418.77
  327.92        2964.75           1419       14581.00     63660.26
  327.95        2965.00           1422       15923.00     69533.75
  327.98        2965.25           1426       17447.00     76206.29
  328.01        2965.50           1429       18554.00     81054.76
  328.04        2965.75           1432       19765.00     86360.33
  328.07        2966.00           1436       21048.00     91983.21
  328.10        2966.25           1439       22289.00     97423.82
  328.13        2966.50           1442       23190.00    101375.00
  328.17        2966.75           1446       24537.00    107283.70
  328.20        2967.00           1449       24802.00    108446.40
  328.23        2967.25           1452       25059.00    109574.10
  328.26        2967.50           1456       24961.00    109144.10
  328.29        2967.75           1459       25083.00    109679.40
  328.32        2968.00           1462       25039.00    109486.30
  328.35        2968.25           1466       24429.00    106809.90
  328.38        2968.50           1469       23260.00    101682.00
  328.41        2968.75           1472       22278.00     97375.59
  328.45        2969.00           1476       20772.00     90773.46
  328.48        2969.25           1479       19742.00     86259.56
  328.51        2969.50           1482       18666.00     81545.38
  328.54        2969.75           1486       17038.00     74415.30
  328.57        2970.00           1489       15928.00     69555.63
  328.60        2970.25           1492       14767.00     64474.20
  328.63        2970.50           1496       13294.00     58029.45
  328.66        2970.75           1499       12075.00     52697.89
  328.69        2971.00           1502       10825.00     47232.53
  328.72        2971.25           1506        9353.00     40798.82
  328.76        2971.50           1509        8199.00     35756.73
  328.79        2971.75           1513        6675.00     29100.37
  328.82        2972.00           1516        5644.00     24598.79
  328.85        2972.25           1519        4467.00     19461.23
  328.88        2972.50           1523        3016.00     13129.85
  328.91        2972.75           1526        1927.00      8379.61
  328.94        2973.00           1529         935.00      4053.68
  328.97        2973.25           1533         402.00      1729.82
  329.00        2973.50           1536         285.00      1219.75
  329.03        2973.75           1539         261.00      1115.12
  329.06        2974.00           1543         187.00       792.52
  329.10        2974.25           1546         159.00       670.46
  329.13        2974.50           1549         129.00       539.68
  329.16        2974.75           1553          86.00       352.23
  329.19        2975.00           1556          79.00       321.71
  329.22        2975.25           1559          64.00       256.32
  329.25        2975.50           1563          55.00       217.09
  329.28        2975.75           1566          49.00       190.93
  329.31        2976.00           1569          54.00       212.73
  329.34        2976.25           1573          51.00       199.65
  329.37        2976.50           1576          50.00       195.29
  329.40        2976.75           1579          51.00       199.65
  329.43        2977.00           1583          57.00       225.81
  329.47        2977.25           1586          58.00       230.17
  329.50        2977.50           1590          50.00       195.29
  329.53        2977.75           1593          45.00       173.50
  329.56        2978.00           1596          48.00       186.57
  329.59        2978.25           1600          56.00       221.45
  329.62        2978.50           1603          48.00       186.57
  329.65        2978.75           1606          47.00       182.22
  329.68        2979.00           1610          55.00       217.09
  329.71        2979.25           1613          61.00       243.25
  329.74        2979.50           1616          52.00       204.01
  329.77        2979.75           1620          55.00       217.09
  329.80        2980.00           1623          50.00       195.29
  329.83        2980.25           1626          55.00       217.09
  329.86        2980.50           1630          58.00       230.17
  329.90        2980.75           1633          53.00       208.37
  329.93        2981.00           1637          53.00       208.37
  329.96        2981.25           1640          42.00       160.42
  329.99        2981.50           1643          57.00       225.81
  330.02        2981.75           1647          55.00       217.09
  330.05        2982.00           1650          50.00       195.29
  330.08        2982.25           1653          50.00       195.29
  330.11        2982.50           1657          56.00       221.45
  330.14        2982.75           1660          47.00       182.22
  330.17        2983.00           1663          47.00       182.22
  330.20        2983.25           1667          47.00       182.22
  330.24        2983.50           1670          49.00       190.93
  330.27        2983.75           1673          42.00       160.42
  330.30        2984.00           1677          47.00       182.22
HS scan finished at 05:30:31
end
************************************************************
  HS Scan of (1) Internal mercury lamp
************************************************************
Integration time is 0.2294 seconds per sample
dh080119Manchester 53.47 2.23 2.804185pr1000
************************************************************
Dead Time -------------------------  3E-08 
Number of Cycles Used -------------  4 
Starting Wavelength (Angstroms) ---  2950 
Final Wavelength (Angstoms) -------  2984 
Wavelength Increment (Angstroms) --  .25 
Filter Wheel #1 Position ---------- (1) Ground quartz diffuser (ND=2.32)
Filter Wheel #2 Position ---------- (1) Neutral Density 0.494



************************************************************
HS scan start time = 17:12:01
Dark Count =  9.100001 


Time (GMT)  Wavelength (Ang)  Step Number  Raw Counts  Counts/Second

 1032.39        2950.00           1222          56.00       204.45
 1032.46        2950.25           1226          49.00       173.93
 1032.49        2950.50           1229          62.00       230.60
 1032.52        2950.75           1232          52.00       187.01
 1032.55        2951.00           1236          59.00       217.53
 1032.58        2951.25           1239          57.00       208.81
 1032.61        2951.50           1242          59.00       217.53
 1032.64        2951.75           1246          55.00       200.09
 1032.67        2952.00           1249          53.00       191.37
 1032.70        2952.25           1252          49.00       173.93
 1032.73        2952.50           1256          54.00       195.73
 1032.76        2952.75           1259          54.00       195.73
 1032.79        2953.00           1262          53.00       191.37
 1032.82        2953.25           1266          49.00       173.93
 1032.86        2953.50           1269          54.00       195.73
 1032.89        2953.75           1272          54.00       195.73
 1032.92        2954.00           1276          58.00       213.17
 1032.95        2954.25           1279          53.00       191.37
 1032.98        2954.50           1282          53.00       191.37
 1033.01        2954.75           1286          59.00       217.53
 1033.04        2955.00           1289          59.00       217.53
 1033.07        2955.25           1292          54.00       195.73
 1033.10        2955.50           1296          53.00       191.37
 1033.13        2955.75           1299          60.00       221.88
 1033.16        2956.00           1302          57.00       208.81
 1033.19        2956.25           1306          53.00       191.37
 1033.22        2956.50           1309          50.00       178.29
 1033.25        2956.75           1312          54.00       195.73
 1033.28        2957.00           1316          54.00       195.73
 1033.31        2957.25           1319          54.00       195.73
 1033.35        2957.50           1322          65.00       243.68
 1033.38        2957.75           1326          59.00       217.53
 1033.41        2958.00           1329          54.00       195.73
 1033.44        2958.25           1332          60.00       221.88
 1033.47        2958.50           1336          55.00       200.09
 1033.50        2958.75           1339          59.00       217.53
 1033.53        2959.00           1342          54.00       195.73
 1033.56        2959.25           1346          53.00       191.37
 1033.59        2959.50           1349          64.00       239.32
 1033.62        2959.75           1352          69.00       261.12
 1033.65        2960.00           1356          94.00       370.10
 1033.68        2960.25           1359         111.00       444.21
 1033.71        2960.50           1362         147.00       601.14
 1033.75        2960.75           1366         184.00       762.44
 1033.78        2961.00           1369         204.00       849.63
 1033.81        2961.25           1372         255.00      1071.96
 1033.84        2961.50           1376         309.00      1307.37
 1033.87        2961.75           1379         440.00      1878.48
 1033.90        2962.00           1382         969.00      4184.92
 1033.93        2962.25           1386        2239.00      9723.41
 1033.96        2962.50           1389        3422.00     14884.15
 1033.99        2962.75           1392        4548.00     19797.72
 1034.03        2963.00           1396        6057.00     26384.87
 1034.06        2963.25           1399        7217.00     31450.32
 1034.09        2963.50           1402        8349.00     36394.99
 1034.12        2963.75           1406        9853.00     42966.86
 1034.15        2964.00           1409       11311.00     49340.21
 1034.18        2964.25           1412       12435.00     54255.20
 1034.21        2964.50           1416       13848.00     60435.99
 1034.24        2964.75           1419       14891.00     64999.78
 1034.27        2965.00           1422       16149.00     70506.00
 1034.31        2965.25           1426       17593.00     76828.58
 1034.34        2965.50           1429       18836.00     82273.00
 1034.37        2965.75           1432       20141.00     87990.91
 1034.40        2966.00           1436       21578.00     94289.44
 1034.43        2966.25           1439       22723.00     99309.82
 1034.46        2966.50           1442       23833.00    104178.20
 1034.49        2966.75           1446       24486.00    107042.90
 1034.52        2967.00           1449       24832.00    108560.90
 1034.56        2967.25           1452       24934.00    109008.50
 1034.59        2967.50           1456       24764.00    108262.60
 1034.62        2967.75           1459       24795.00    108398.60
 1034.65        2968.00           1462       24844.00    108613.60
 1034.68        2968.25           1466       23789.00    103985.20
 1034.71        2968.50           1469       22740.00     99384.37
 1034.74        2968.75           1472       21701.00     94828.68
 1034.77        2969.00           1476       20035.00     87526.39
 1034.80        2969.25           1479       18813.00     82172.25
 1034.83        2969.50           1482       17846.00     77936.59
 1034.86        2969.75           1486       16173.00     70611.06
 1034.89        2970.00           1489       15036.00     65634.35
 1034.93        2970.25           1492       14026.00     61214.76
 1034.96        2970.50           1496       12619.00     55059.93
 1034.99        2970.75           1499       11446.00     49930.46
 1035.02        2971.00           1502       10397.00     45344.56
 1035.05        2971.25           1506        8958.00     39055.76
 1035.08        2971.50           1509        7741.00     33739.02
 1035.11        2971.75           1513        6133.00     26716.70
 1035.14        2972.00           1516        4859.00     21155.10
 1035.17        2972.25           1519        3791.00     16494.21
 1035.21        2972.50           1523        2331.00     10124.70
 1035.24        2972.75           1526        1333.00      5772.14
 1035.27        2973.00           1529         588.00      2523.73
 1035.30        2973.25           1533         332.00      1407.64
 1035.33        2973.50           1536         252.00      1058.88
 1035.36        2973.75           1539         214.00       893.22
 1035.39        2974.00           1543         178.00       736.28
 1035.42        2974.25           1546         134.00       544.47
 1035.45        2974.50           1549          99.00       391.90
 1035.48        2974.75           1553          73.00       278.56
 1035.51        2975.00           1556          67.00       252.40
 1035.55        2975.25           1559          53.00       191.37
 1035.58        2975.50           1563          61.00       226.24
 1035.61        2975.75           1566          49.00       173.93
 1035.64        2976.00           1569          52.00       187.01
 1035.67        2976.25           1573          49.00       173.93
 1035.70        2976.50           1576          54.00       195.73
 1035.73        2976.75           1579          47.00       165.21
 1035.76        2977.00           1583          58.00       213.17
 1035.79        2977.25           1586          50.00       178.29
 1035.82        2977.50           1590          47.00       165.21
 1035.85        2977.75           1593          54.00       195.73
 1035.88        2978.00           1596          64.00       239.32
 1035.91        2978.25           1600          49.00       173.93
 1035.95        2978.50           1603          49.00       173.93
 1035.98        2978.75           1606          61.00       226.24
 1036.01        2979.00           1610          61.00       226.24
 1036.04        2979.25           1613          50.00       178.29
 1036.07        2979.50           1616          49.00       173.93
 1036.10        2979.75           1620          49.00       173.93
 1036.13        2980.00           1623          54.00       195.73
 1036.16        2980.25           1626          48.00       169.57
 1036.19        2980.50           1630          45.00       156.50
 1036.22        2980.75           1633          45.00       156.50
 1036.25        2981.00           1637          44.00       152.14
 1036.28        2981.25           1640          50.00       178.29
 1036.32        2981.50           1643          41.00       139.06
 1036.35        2981.75           1647          50.00       178.29
 1036.38        2982.00           1650          47.00       165.21
 1036.41        2982.25           1653          55.00       200.09
 1036.44        2982.50           1657          49.00       173.93
 1036.47        2982.75           1660          47.00       165.21
 1036.50        2983.00           1663          50.00       178.29
 1036.53        2983.25           1667          49.00       173.93
 1036.56        2983.50           1670          44.00       152.14
 1036.59        2983.75           1673          59.00       217.53
 1036.63        2984.00           1677          47.00       165.21
HS scan finished at 17:16:50
end
