************************************************************
  HS Scan of (1) Internal mercury lamp
************************************************************
Integration time is 0.2294 seconds per sample
dh020117Manchester 53.47 2.23 2.750537pr1000
************************************************************
Dead Time -------------------------  3E-08 
Number of Cycles Used -------------  4 
Starting Wavelength (Angstroms) ---  2950 
Final Wavelength (Angstoms) -------  2984 
Wavelength Increment (Angstroms) --  .25 
Filter Wheel #1 Position ---------- (1) Ground quartz diffuser (ND=2.32)
Filter Wheel #2 Position ---------- (1) Neutral Density 0.494



************************************************************
HS scan start time = 05:26:22
Dark Count =  5.9 


Time (GMT)  Wavelength (Ang)  Step Number  Raw Counts  Counts/Second

  326.74        2950.00           1222          49.00       187.88
  326.81        2950.25           1226          53.00       205.32
  326.84        2950.50           1229          50.00       192.24
  326.87        2950.75           1232          42.00       157.37
  326.90        2951.00           1236          37.00       135.57
  326.93        2951.25           1239          42.00       157.37
  326.96        2951.50           1242          42.00       157.37
  326.99        2951.75           1246          45.00       170.45
  327.02        2952.00           1249          46.00       174.80
  327.05        2952.25           1252          49.00       187.88
  327.08        2952.50           1256          43.00       161.73
  327.11        2952.75           1259          47.00       179.16
  327.14        2953.00           1262          39.00       144.29
  327.18        2953.25           1266          41.00       153.01
  327.21        2953.50           1269          44.00       166.09
  327.24        2953.75           1272          43.00       161.73
  327.27        2954.00           1276          44.00       166.09
  327.30        2954.25           1279          49.00       187.88
  327.33        2954.50           1282          46.00       174.80
  327.36        2954.75           1286          44.00       166.09
  327.39        2955.00           1289          40.00       148.65
  327.42        2955.25           1292          46.00       174.80
  327.45        2955.50           1296          49.00       187.88
  327.48        2955.75           1299          43.00       161.73
  327.51        2956.00           1302          49.00       187.88
  327.55        2956.25           1306          48.00       183.52
  327.58        2956.50           1309          45.00       170.45
  327.61        2956.75           1312          41.00       153.01
  327.64        2957.00           1316          41.00       153.01
  327.67        2957.25           1319          47.00       179.16
  327.70        2957.50           1322          38.00       139.93
  327.73        2957.75           1326          45.00       170.45
  327.76        2958.00           1329          50.00       192.24
  327.79        2958.25           1332          43.00       161.73
  327.82        2958.50           1336          43.00       161.73
  327.85        2958.75           1339          48.00       183.52
  327.89        2959.00           1342          46.00       174.80
  327.92        2959.25           1346          42.00       157.37
  327.95        2959.50           1349          47.00       179.16
  327.98        2959.75           1352          69.00       275.07
  328.01        2960.00           1356          98.00       401.49
  328.04        2960.25           1359         123.00       510.47
  328.07        2960.50           1362         144.00       602.02
  328.10        2960.75           1366         205.00       867.94
  328.13        2961.00           1369         270.00      1151.30
  328.16        2961.25           1372         311.00      1330.04
  328.19        2961.50           1376         400.00      1718.05
  328.22        2961.75           1379         609.00      2629.24
  328.26        2962.00           1382        1185.00      5140.72
  328.29        2962.25           1386        2862.00     12454.96
  328.32        2962.50           1389        4547.00     19807.32
  328.35        2962.75           1392        6001.00     26154.35
  328.38        2963.00           1396        8168.00     35618.25
  328.41        2963.25           1399       10018.00     43701.99
  328.44        2963.50           1402       11728.00     51177.47
  328.47        2963.75           1406       14045.00     61311.89
  328.50        2964.00           1409       15668.00     68414.47
  328.54        2964.25           1412       17511.00     76483.49
  328.57        2964.50           1416       19882.00     86869.94
  328.60        2964.75           1419       21497.00     93948.38
  328.63        2965.00           1422       23140.00    101152.60
  328.66        2965.25           1426       25460.00    111330.70
  328.69        2965.50           1429       26835.00    117365.90
  328.72        2965.75           1432       28610.00    125160.00
  328.75        2966.00           1436       30848.00    134992.40
  328.78        2966.25           1439       32386.00    141752.80
  328.81        2966.50           1442       34048.00    149061.40
  328.85        2966.75           1446       35628.00    156012.30
  328.88        2967.00           1449       36066.00    157939.70
  328.91        2967.25           1452       36117.00    158164.10
  328.94        2967.50           1456       36204.00    158547.00
  328.97        2967.75           1459       35948.00    157420.40
  329.00        2968.00           1462       35955.00    157451.20
  329.03        2968.25           1466       34947.00    153016.00
  329.06        2968.50           1469       33790.00    147926.60
  329.09        2968.75           1472       32232.00    141075.80
  329.12        2969.00           1476       29764.00    130229.20
  329.15        2969.25           1479       28044.00    122674.30
  329.18        2969.50           1482       26619.00    116417.70
  329.22        2969.75           1486       24387.00    106622.50
  329.25        2970.00           1489       22596.00     98766.93
  329.28        2970.25           1492       21116.00     92278.21
  329.31        2970.50           1496       18858.00     82383.40
  329.34        2970.75           1499       17328.00     75682.10
  329.37        2971.00           1502       15620.00     68204.37
  329.40        2971.25           1506       13412.00     58542.58
  329.43        2971.50           1509       11779.00     51400.47
  329.46        2971.75           1513        9570.00     41744.05
  329.49        2972.00           1516        7970.00     34753.31
  329.53        2972.25           1519        6217.00     27097.44
  329.56        2972.50           1523        4020.00     17507.45
  329.59        2972.75           1526        2463.00     10714.43
  329.62        2973.00           1529        1231.00      5341.31
  329.65        2973.25           1533         512.00      2206.34
  329.68        2973.50           1536         354.00      1517.51
  329.71        2973.75           1539         295.00      1260.29
  329.74        2974.00           1543         232.00       985.64
  329.77        2974.25           1546         164.00       689.20
  329.80        2974.50           1549         137.00       571.50
  329.84        2974.75           1553          88.00       357.89
  329.87        2975.00           1556          63.00       248.91
  329.90        2975.25           1559          60.00       235.83
  329.93        2975.50           1563          56.00       218.40
  329.96        2975.75           1566          44.00       166.09
  329.99        2976.00           1569          41.00       153.01
  330.02        2976.25           1573          42.00       157.37
  330.05        2976.50           1576          41.00       153.01
  330.08        2976.75           1579          45.00       170.45
  330.11        2977.00           1583          46.00       174.80
  330.15        2977.25           1586          42.00       157.37
  330.18        2977.50           1590          50.00       192.24
  330.21        2977.75           1593          45.00       170.45
  330.24        2978.00           1596          48.00       183.52
  330.27        2978.25           1600          45.00       170.45
  330.30        2978.50           1603          50.00       192.24
  330.33        2978.75           1606          44.00       166.09
  330.36        2979.00           1610          47.00       179.16
  330.39        2979.25           1613          45.00       170.45
  330.42        2979.50           1616          40.00       148.65
  330.45        2979.75           1620          44.00       166.09
  330.48        2980.00           1623          47.00       179.16
  330.52        2980.25           1626          43.00       161.73
  330.55        2980.50           1630          50.00       192.24
  330.58        2980.75           1633          48.00       183.52
  330.61        2981.00           1637          39.00       144.29
  330.64        2981.25           1640          39.00       144.29
  330.67        2981.50           1643          46.00       174.80
  330.70        2981.75           1647          47.00       179.16
  330.73        2982.00           1650          37.00       135.57
  330.76        2982.25           1653          43.00       161.73
  330.79        2982.50           1657          44.00       166.09
  330.82        2982.75           1660          45.00       170.45
  330.85        2983.00           1663          40.00       148.65
  330.89        2983.25           1667          40.00       148.65
  330.92        2983.50           1670          39.00       144.29
  330.95        2983.75           1673          48.00       183.52
  330.98        2984.00           1677          42.00       157.37
HS scan finished at 05:31:12
end
************************************************************
  HS Scan of (1) Internal mercury lamp
************************************************************
Integration time is 0.2294 seconds per sample
dh020117Manchester 53.47 2.23 2.750537pr1000
************************************************************
Dead Time -------------------------  3E-08 
Number of Cycles Used -------------  4 
Starting Wavelength (Angstroms) ---  2950 
Final Wavelength (Angstoms) -------  2984 
Wavelength Increment (Angstroms) --  .25 
Filter Wheel #1 Position ---------- (1) Ground quartz diffuser (ND=2.32)
Filter Wheel #2 Position ---------- (1) Neutral Density 0.494



************************************************************
HS scan start time = 17:12:08
Dark Count =  8.100001 


Time (GMT)  Wavelength (Ang)  Step Number  Raw Counts  Counts/Second

 1032.51        2950.00           1222          41.00       143.42
 1032.57        2950.25           1226          51.00       187.01
 1032.61        2950.50           1229          47.00       169.57
 1032.64        2950.75           1232          42.00       147.78
 1032.67        2951.00           1236          45.00       160.86
 1032.70        2951.25           1239          40.00       139.06
 1032.73        2951.50           1242          45.00       160.86
 1032.76        2951.75           1246          47.00       169.57
 1032.79        2952.00           1249          45.00       160.86
 1032.82        2952.25           1252          39.00       134.70
 1032.85        2952.50           1256          47.00       169.57
 1032.88        2952.75           1259          47.00       169.57
 1032.92        2953.00           1262          50.00       182.65
 1032.95        2953.25           1266          43.00       152.14
 1032.98        2953.50           1269          41.00       143.42
 1033.01        2953.75           1272          44.00       156.50
 1033.04        2954.00           1276          49.00       178.29
 1033.07        2954.25           1279          44.00       156.50
 1033.10        2954.50           1282          45.00       160.86
 1033.13        2954.75           1286          56.00       208.81
 1033.16        2955.00           1289          47.00       169.57
 1033.19        2955.25           1292          50.00       182.65
 1033.22        2955.50           1296          43.00       152.14
 1033.25        2955.75           1299          46.00       165.21
 1033.28        2956.00           1302          43.00       152.14
 1033.32        2956.25           1306          44.00       156.50
 1033.35        2956.50           1309          49.00       178.29
 1033.38        2956.75           1312          39.00       134.70
 1033.41        2957.00           1316          38.00       130.34
 1033.44        2957.25           1319          51.00       187.01
 1033.47        2957.50           1322          44.00       156.50
 1033.50        2957.75           1326          51.00       187.01
 1033.53        2958.00           1329          42.00       147.78
 1033.56        2958.25           1332          46.00       165.21
 1033.59        2958.50           1336          40.00       139.06
 1033.62        2958.75           1339          51.00       187.01
 1033.65        2959.00           1342          47.00       169.57
 1033.68        2959.25           1346          45.00       160.86
 1033.72        2959.50           1349          60.00       226.24
 1033.75        2959.75           1352          63.00       239.32
 1033.78        2960.00           1356         103.00       413.69
 1033.81        2960.25           1359         133.00       544.47
 1033.84        2960.50           1362         168.00       697.05
 1033.87        2960.75           1366         231.00       971.69
 1033.90        2961.00           1369         267.00      1128.63
 1033.93        2961.25           1372         312.00      1324.81
 1033.96        2961.50           1376         410.00      1752.05
 1033.99        2961.75           1379         527.00      2262.14
 1034.02        2962.00           1382         944.00      4080.27
 1034.06        2962.25           1386        2469.00     10731.00
 1034.09        2962.50           1389        3977.00     17310.21
 1034.12        2962.75           1392        5391.00     23481.66
 1034.15        2963.00           1396        7610.00     33171.18
 1034.18        2963.25           1399        9234.00     40266.14
 1034.21        2963.50           1402       10939.00     47718.23
 1034.24        2963.75           1406       13271.00     57916.15
 1034.27        2964.00           1409       14857.00     64855.36
 1034.31        2964.25           1412       16551.00     72270.30
 1034.34        2964.50           1416       18878.00     82461.38
 1034.37        2964.75           1419       20634.00     90155.89
 1034.40        2965.00           1422       22154.00     96819.18
 1034.43        2965.25           1426       24403.00    106683.10
 1034.46        2965.50           1429       26218.00    114647.80
 1034.49        2965.75           1432       27771.00    121465.80
 1034.52        2966.00           1436       29978.00    131159.80
 1034.55        2966.25           1439       31388.00    137356.00
 1034.59        2966.50           1442       33079.00    144790.20
 1034.62        2966.75           1446       34867.00    152654.40
 1034.65        2967.00           1449       35616.00    155949.80
 1034.68        2967.25           1452       35825.00    156869.50
 1034.71        2967.50           1456       35827.00    156878.30
 1034.74        2967.75           1459       35817.00    156834.30
 1034.77        2968.00           1462       35590.00    155835.40
 1034.80        2968.25           1466       34526.00    151154.30
 1034.83        2968.50           1469       33446.00    146404.00
 1034.86        2968.75           1472       32077.00    140384.70
 1034.90        2969.00           1476       29833.00    130522.70
 1034.93        2969.25           1479       28171.00    123222.30
 1034.96        2969.50           1482       26324.00    115113.10
 1034.99        2969.75           1486       24240.00    105968.00
 1035.02        2970.00           1489       22576.00     98669.59
 1035.05        2970.25           1492       20925.00     91431.36
 1035.08        2970.50           1496       18819.00     82202.91
 1035.11        2970.75           1499       17089.00     74625.91
 1035.14        2971.00           1502       15463.00     67507.55
 1035.17        2971.25           1506       13338.00     58209.24
 1035.21        2971.50           1509       11659.00     50866.15
 1035.24        2971.75           1513        9547.00     41633.93
 1035.27        2972.00           1516        7988.00     34822.33
 1035.30        2972.25           1519        6373.00     27768.98
 1035.33        2972.50           1523        4061.00     17676.77
 1035.36        2972.75           1526        2556.00     11110.50
 1035.39        2973.00           1529        1249.00      5410.21
 1035.42        2973.25           1533         459.00      1965.68
 1035.45        2973.50           1536         335.00      1425.08
 1035.48        2973.75           1539         280.00      1185.31
 1035.51        2974.00           1543         229.00       962.97
 1035.55        2974.25           1546         173.00       718.85
 1035.58        2974.50           1549         113.00       457.29
 1035.61        2974.75           1553          95.00       378.82
 1035.64        2975.00           1556          63.00       239.32
 1035.67        2975.25           1559          46.00       165.21
 1035.70        2975.50           1563          49.00       178.29
 1035.73        2975.75           1566          41.00       143.42
 1035.76        2976.00           1569          50.00       182.65
 1035.79        2976.25           1573          45.00       160.86
 1035.82        2976.50           1576          47.00       169.57
 1035.85        2976.75           1579          38.00       130.34
 1035.89        2977.00           1583          42.00       147.78
 1035.92        2977.25           1586          39.00       134.70
 1035.95        2977.50           1590          47.00       169.57
 1035.98        2977.75           1593          53.00       195.73
 1036.01        2978.00           1596          48.00       173.93
 1036.04        2978.25           1600          47.00       169.57
 1036.07        2978.50           1603          42.00       147.78
 1036.10        2978.75           1606          50.00       182.65
 1036.13        2979.00           1610          50.00       182.65
 1036.16        2979.25           1613          44.00       156.50
 1036.19        2979.50           1616          43.00       152.14
 1036.23        2979.75           1620          58.00       217.53
 1036.26        2980.00           1623          42.00       147.78
 1036.29        2980.25           1626          52.00       191.37
 1036.32        2980.50           1630          51.00       187.01
 1036.35        2980.75           1633          34.00       112.90
 1036.38        2981.00           1637          40.00       139.06
 1036.41        2981.25           1640          45.00       160.86
 1036.44        2981.50           1643          43.00       152.14
 1036.47        2981.75           1647          43.00       152.14
 1036.50        2982.00           1650          46.00       165.21
 1036.54        2982.25           1653          49.00       178.29
 1036.57        2982.50           1657          42.00       147.78
 1036.60        2982.75           1660          39.00       134.70
 1036.63        2983.00           1663          48.00       173.93
 1036.66        2983.25           1667          46.00       165.21
 1036.69        2983.50           1670          46.00       165.21
 1036.72        2983.75           1673          45.00       160.86
 1036.75        2984.00           1677          34.00       112.90
HS scan finished at 17:16:58
end
