************************************************************
  HS Scan of (1) Internal mercury lamp
************************************************************
Integration time is 0.2294 seconds per sample
dh080118Manchester 53.47 2.23 2.750537pr1000
************************************************************
Dead Time -------------------------  3E-08 
Number of Cycles Used -------------  4 
Starting Wavelength (Angstroms) ---  2950 
Final Wavelength (Angstoms) -------  2984 
Wavelength Increment (Angstroms) --  .25 
Filter Wheel #1 Position ---------- (1) Ground quartz diffuser (ND=2.32)
Filter Wheel #2 Position ---------- (1) Neutral Density 0.494



************************************************************
HS scan start time = 05:26:53
Dark Count =  8.5 


Time (GMT)  Wavelength (Ang)  Step Number  Raw Counts  Counts/Second

  327.26        2950.00           1222          60.00       224.50
  327.33        2950.25           1226          59.00       220.14
  327.36        2950.50           1229          54.00       198.34
  327.39        2950.75           1232          65.00       246.30
  327.42        2951.00           1236          63.00       237.58
  327.45        2951.25           1239          53.00       193.99
  327.48        2951.50           1242          56.00       207.06
  327.51        2951.75           1246          66.00       250.66
  327.54        2952.00           1249          62.00       233.22
  327.57        2952.25           1252          62.00       233.22
  327.60        2952.50           1256          65.00       246.30
  327.63        2952.75           1259          57.00       211.42
  327.66        2953.00           1262          66.00       250.66
  327.69        2953.25           1266          57.00       211.42
  327.72        2953.50           1269          65.00       246.30
  327.75        2953.75           1272          65.00       246.30
  327.78        2954.00           1276          62.00       233.22
  327.82        2954.25           1279          61.00       228.86
  327.85        2954.50           1282          55.00       202.70
  327.88        2954.75           1286          58.00       215.78
  327.91        2955.00           1289          65.00       246.30
  327.94        2955.25           1292          69.00       263.73
  327.97        2955.50           1296          63.00       237.58
  328.00        2955.75           1299          61.00       228.86
  328.03        2956.00           1302          61.00       228.86
  328.06        2956.25           1306          62.00       233.22
  328.09        2956.50           1309          63.00       237.58
  328.12        2956.75           1312          60.00       224.50
  328.15        2957.00           1316          60.00       224.50
  328.18        2957.25           1319          64.00       241.94
  328.21        2957.50           1322          55.00       202.70
  328.24        2957.75           1326          63.00       237.58
  328.28        2958.00           1329          59.00       220.14
  328.31        2958.25           1332          57.00       211.42
  328.34        2958.50           1336          68.00       259.37
  328.37        2958.75           1339          60.00       224.50
  328.40        2959.00           1342          62.00       233.22
  328.43        2959.25           1346          65.00       246.30
  328.46        2959.50           1349          64.00       241.94
  328.49        2959.75           1352          72.00       276.81
  328.52        2960.00           1356          92.00       364.00
  328.55        2960.25           1359         128.00       520.93
  328.58        2960.50           1362         150.00       616.84
  328.62        2960.75           1366         201.00       839.17
  328.65        2961.00           1369         226.00       948.15
  328.68        2961.25           1372         264.00      1113.81
  328.71        2961.50           1376         341.00      1449.50
  328.74        2961.75           1379         494.00      2116.53
  328.77        2962.00           1382        1033.00      4466.60
  328.80        2962.25           1386        2695.00     11715.10
  328.83        2962.50           1389        4144.00     18037.22
  328.86        2962.75           1392        5628.00     24514.54
  328.89        2963.00           1396        7477.00     32588.51
  328.92        2963.25           1399        9047.00     39447.27
  328.95        2963.50           1402       10596.00     46217.05
  328.99        2963.75           1406       12521.00     54633.94
  329.02        2964.00           1409       14132.00     61681.17
  329.05        2964.25           1412       15690.00     68499.38
  329.08        2964.50           1416       17527.00     76542.18
  329.11        2964.75           1419       19161.00     83699.44
  329.14        2965.00           1422       20714.00     90504.78
  329.17        2965.25           1426       22728.00     99334.38
  329.20        2965.50           1429       24070.00    105220.50
  329.23        2965.75           1432       25337.00    110779.50
  329.27        2966.00           1436       27811.00    121639.70
  329.30        2966.25           1439       29059.00    127120.80
  329.33        2966.50           1442       30591.00    133851.60
  329.36        2966.75           1446       32122.00    140580.80
  329.39        2967.00           1449       32512.00    142295.30
  329.42        2967.25           1452       32663.00    142959.30
  329.45        2967.50           1456       32660.00    142946.10
  329.48        2967.75           1459       32733.00    143267.00
  329.51        2968.00           1462       32306.00    141389.70
  329.54        2968.25           1466       31716.00    138796.00
  329.57        2968.50           1469       30266.00    132423.50
  329.60        2968.75           1472       28900.00    126422.40
  329.63        2969.00           1476       27083.00    118443.20
  329.67        2969.25           1479       25355.00    110858.50
  329.70        2969.50           1482       24013.00    104970.40
  329.73        2969.75           1486       22073.00     96462.28
  329.76        2970.00           1489       20464.00     89409.08
  329.79        2970.25           1492       19263.00     84146.33
  329.82        2970.50           1496       17205.00     75132.10
  329.85        2970.75           1499       15685.00     68477.50
  329.88        2971.00           1502       14309.00     62455.62
  329.92        2971.25           1506       12244.00     53422.52
  329.95        2971.50           1509       10625.00     46343.82
  329.98        2971.75           1513        8601.00     37498.57
  330.01        2972.00           1516        7137.00     31103.55
  330.04        2972.25           1519        5773.00     25147.56
  330.07        2972.50           1523        3889.00     16924.46
  330.10        2972.75           1526        2369.00     10293.06
  330.13        2973.00           1529        1088.00      4706.42
  330.16        2973.25           1533         472.00      2020.61
  330.20        2973.50           1536         348.00      1480.01
  330.23        2973.75           1539         302.00      1279.47
  330.26        2974.00           1543         246.00      1035.34
  330.29        2974.25           1546         203.00       847.89
  330.32        2974.50           1549         163.00       673.51
  330.35        2974.75           1553         116.00       468.62
  330.38        2975.00           1556          92.00       364.00
  330.41        2975.25           1559          82.00       320.40
  330.44        2975.50           1563          59.00       220.14
  330.47        2975.75           1566          59.00       220.14
  330.50        2976.00           1569          71.00       272.45
  330.53        2976.25           1573          54.00       198.34
  330.56        2976.50           1576          60.00       224.50
  330.59        2976.75           1579          72.00       276.81
  330.62        2977.00           1583          65.00       246.30
  330.66        2977.25           1586          58.00       215.78
  330.69        2977.50           1590          56.00       207.06
  330.72        2977.75           1593          62.00       233.22
  330.75        2978.00           1596          54.00       198.34
  330.78        2978.25           1600          60.00       224.50
  330.81        2978.50           1603          59.00       220.14
  330.84        2978.75           1606          53.00       193.99
  330.87        2979.00           1610          52.00       189.63
  330.90        2979.25           1613          58.00       215.78
  330.93        2979.50           1616          62.00       233.22
  330.96        2979.75           1620          58.00       215.78
  330.99        2980.00           1623          55.00       202.70
  331.02        2980.25           1626          51.00       185.27
  331.05        2980.50           1630          58.00       215.78
  331.09        2980.75           1633          63.00       237.58
  331.12        2981.00           1637          51.00       185.27
  331.15        2981.25           1640          55.00       202.70
  331.18        2981.50           1643          63.00       237.58
  331.21        2981.75           1647          57.00       211.42
  331.24        2982.00           1650          49.00       176.55
  331.27        2982.25           1653          58.00       215.78
  331.30        2982.50           1657          59.00       220.14
  331.33        2982.75           1660          57.00       211.42
  331.36        2983.00           1663          60.00       224.50
  331.39        2983.25           1667          51.00       185.27
  331.43        2983.50           1670          55.00       202.70
  331.46        2983.75           1673          52.00       189.63
  331.49        2984.00           1677          54.00       198.34
HS scan finished at 05:31:42
end
************************************************************
  HS Scan of (1) Internal mercury lamp
************************************************************
Integration time is 0.2294 seconds per sample
dh080118Manchester 53.47 2.23 2.804185pr1000
************************************************************
Dead Time -------------------------  3E-08 
Number of Cycles Used -------------  4 
Starting Wavelength (Angstroms) ---  2950 
Final Wavelength (Angstoms) -------  2984 
Wavelength Increment (Angstroms) --  .25 
Filter Wheel #1 Position ---------- (1) Ground quartz diffuser (ND=2.32)
Filter Wheel #2 Position ---------- (1) Neutral Density 0.494



************************************************************
HS scan start time = 17:12:04
Dark Count =  6 


Time (GMT)  Wavelength (Ang)  Step Number  Raw Counts  Counts/Second

 1032.43        2950.00           1222          65.00       257.19
 1032.50        2950.25           1226          67.00       265.91
 1032.53        2950.50           1229          61.00       239.76
 1032.56        2950.75           1232          59.00       231.04
 1032.59        2951.00           1236          69.00       274.63
 1032.62        2951.25           1239          66.00       261.55
 1032.65        2951.50           1242          61.00       239.76
 1032.69        2951.75           1246          60.00       235.40
 1032.72        2952.00           1249          66.00       261.55
 1032.75        2952.25           1252          56.00       217.96
 1032.78        2952.50           1256          66.00       261.55
 1032.81        2952.75           1259          51.00       196.17
 1032.84        2953.00           1262          58.00       226.68
 1032.87        2953.25           1266          70.00       278.99
 1032.90        2953.50           1269          67.00       265.91
 1032.93        2953.75           1272          62.00       244.12
 1032.96        2954.00           1276          60.00       235.40
 1032.99        2954.25           1279          68.00       270.27
 1033.03        2954.50           1282          60.00       235.40
 1033.06        2954.75           1286          66.00       261.55
 1033.09        2955.00           1289          64.00       252.84
 1033.12        2955.25           1292          49.00       187.45
 1033.15        2955.50           1296          64.00       252.84
 1033.18        2955.75           1299          61.00       239.76
 1033.21        2956.00           1302          67.00       265.91
 1033.24        2956.25           1306          68.00       270.27
 1033.27        2956.50           1309          69.00       274.63
 1033.30        2956.75           1312          56.00       217.96
 1033.33        2957.00           1316          61.00       239.76
 1033.36        2957.25           1319          65.00       257.19
 1033.40        2957.50           1322          67.00       265.91
 1033.43        2957.75           1326          65.00       257.19
 1033.46        2958.00           1329          59.00       231.04
 1033.49        2958.25           1332          65.00       257.19
 1033.52        2958.50           1336          60.00       235.40
 1033.55        2958.75           1339          63.00       248.48
 1033.58        2959.00           1342          64.00       252.84
 1033.61        2959.25           1346          61.00       239.76
 1033.64        2959.50           1349          76.00       305.15
 1033.67        2959.75           1352          99.00       405.41
 1033.70        2960.00           1356         132.00       549.27
 1033.74        2960.25           1359         173.00       728.00
 1033.77        2960.50           1362         199.00       841.35
 1033.80        2960.75           1366         252.00      1072.40
 1033.83        2961.00           1369         289.00      1233.70
 1033.86        2961.25           1372         314.00      1342.69
 1033.89        2961.50           1376         410.00      1761.21
 1033.92        2961.75           1379         634.00      2737.80
 1033.95        2962.00           1382        1362.00      5912.12
 1033.98        2962.25           1386        3056.00     13300.86
 1034.01        2962.50           1389        4438.00     19331.17
 1034.04        2962.75           1392        6058.00     26402.77
 1034.08        2963.00           1396        7868.00     34307.31
 1034.11        2963.25           1399        9434.00     41149.29
 1034.14        2963.50           1402       10743.00     46870.57
 1034.17        2963.75           1406       12939.00     56473.10
 1034.20        2964.00           1409       14579.00     63648.01
 1034.23        2964.25           1412       16202.00     70751.59
 1034.26        2964.50           1416       18295.00     79916.75
 1034.29        2964.75           1419       19667.00     85927.41
 1034.32        2965.00           1422       21224.00     92751.19
 1034.35        2965.25           1426       23242.00    101599.50
 1034.39        2965.50           1429       24933.00    109017.70
 1034.42        2965.75           1432       26313.00    115074.00
 1034.45        2966.00           1436       28218.00    123438.00
 1034.48        2966.25           1439       29617.00    129583.00
 1034.51        2966.50           1442       30980.00    135572.10
 1034.54        2966.75           1446       32247.00    141141.30
 1034.57        2967.00           1449       32489.00    142205.20
 1034.60        2967.25           1452       32381.00    141730.40
 1034.63        2967.50           1456       32557.00    142504.20
 1034.67        2967.75           1459       32495.00    142231.60
 1034.70        2968.00           1462       32200.00    140934.60
 1034.73        2968.25           1466       31326.00    137092.80
 1034.76        2968.50           1469       29937.00    130988.90
 1034.79        2968.75           1472       28586.00    125054.20
 1034.82        2969.00           1476       26723.00    116873.80
 1034.85        2969.25           1479       25260.00    110452.60
 1034.88        2969.50           1482       23620.00    103257.50
 1034.91        2969.75           1486       21679.00     94745.81
 1034.94        2970.00           1489       20376.00     89034.36
 1034.98        2970.25           1492       18667.00     81546.25
 1035.01        2970.50           1496       16731.00     73067.58
 1035.04        2970.75           1499       15201.00     66370.03
 1035.07        2971.00           1502       13636.00     59522.07
 1035.10        2971.25           1506       11617.00     50691.68
 1035.13        2971.50           1509       10144.00     44252.26
 1035.16        2971.75           1513        8390.00     36587.66
 1035.19        2972.00           1516        6790.00     29599.07
 1035.22        2972.25           1519        5474.00     23853.16
 1035.25        2972.50           1523        3577.00     15573.97
 1035.29        2972.75           1526        2152.00      9357.47
 1035.32        2973.00           1529         968.00      4194.08
 1035.35        2973.25           1533         407.00      1748.13
 1035.38        2973.50           1536         297.00      1268.57
 1035.41        2973.75           1539         258.00      1098.55
 1035.44        2974.00           1543         219.00       928.54
 1035.47        2974.25           1546         162.00       680.05
 1035.50        2974.50           1549         117.00       483.88
 1035.53        2974.75           1553          87.00       353.10
 1035.57        2975.00           1556          83.00       335.66
 1035.60        2975.25           1559          62.00       244.12
 1035.63        2975.50           1563          55.00       213.60
 1035.66        2975.75           1566          66.00       261.55
 1035.69        2976.00           1569          57.00       222.32
 1035.72        2976.25           1573          59.00       231.04
 1035.75        2976.50           1576          56.00       217.96
 1035.78        2976.75           1579          58.00       226.68
 1035.81        2977.00           1583          49.00       187.45
 1035.84        2977.25           1586          53.00       204.88
 1035.87        2977.50           1590          54.00       209.24
 1035.90        2977.75           1593          57.00       222.32
 1035.93        2978.00           1596          48.00       183.09
 1035.96        2978.25           1600          56.00       217.96
 1036.00        2978.50           1603          65.00       257.19
 1036.03        2978.75           1606          64.00       252.84
 1036.06        2979.00           1610          51.00       196.17
 1036.09        2979.25           1613          60.00       235.40
 1036.12        2979.50           1616          56.00       217.96
 1036.15        2979.75           1620          54.00       209.24
 1036.18        2980.00           1623          57.00       222.32
 1036.21        2980.25           1626          49.00       187.45
 1036.24        2980.50           1630          64.00       252.84
 1036.27        2980.75           1633          59.00       231.04
 1036.30        2981.00           1637          51.00       196.17
 1036.33        2981.25           1640          62.00       244.12
 1036.37        2981.50           1643          58.00       226.68
 1036.40        2981.75           1647          57.00       222.32
 1036.43        2982.00           1650          54.00       209.24
 1036.46        2982.25           1653          62.00       244.12
 1036.49        2982.50           1657          56.00       217.96
 1036.52        2982.75           1660          58.00       226.68
 1036.55        2983.00           1663          56.00       217.96
 1036.58        2983.25           1667          54.00       209.24
 1036.61        2983.50           1670          41.00       152.57
 1036.64        2983.75           1673          43.00       161.29
 1036.67        2984.00           1677          53.00       204.88
HS scan finished at 17:16:53
end
