************************************************************
  HS Scan of (1) Internal mercury lamp
************************************************************
Integration time is 0.2294 seconds per sample
dh060118Manchester 53.47 2.23 2.750537pr1000
************************************************************
Dead Time -------------------------  3E-08 
Number of Cycles Used -------------  4 
Starting Wavelength (Angstroms) ---  2950 
Final Wavelength (Angstoms) -------  2984 
Wavelength Increment (Angstroms) --  .25 
Filter Wheel #1 Position ---------- (1) Ground quartz diffuser (ND=2.32)
Filter Wheel #2 Position ---------- (1) Neutral Density 0.494



************************************************************
HS scan start time = 05:26:03
Dark Count =  6.8 


Time (GMT)  Wavelength (Ang)  Step Number  Raw Counts  Counts/Second

  326.42        2950.00           1222          57.00       218.83
  326.49        2950.25           1226          60.00       231.91
  326.52        2950.50           1229          55.00       210.11
  326.55        2950.75           1232          60.00       231.91
  326.58        2951.00           1236          61.00       236.27
  326.61        2951.25           1239          64.00       249.35
  326.64        2951.50           1242          61.00       236.27
  326.67        2951.75           1246          62.00       240.63
  326.70        2952.00           1249          64.00       249.35
  326.73        2952.25           1252          65.00       253.71
  326.76        2952.50           1256          59.00       227.55
  326.79        2952.75           1259          51.00       192.68
  326.83        2953.00           1262          61.00       236.27
  326.86        2953.25           1266          68.00       266.79
  326.89        2953.50           1269          75.00       297.30
  326.92        2953.75           1272          69.00       271.14
  326.95        2954.00           1276          64.00       249.35
  326.98        2954.25           1279          66.00       258.07
  327.01        2954.50           1282          69.00       271.14
  327.04        2954.75           1286          59.00       227.55
  327.07        2955.00           1289          60.00       231.91
  327.10        2955.25           1292          61.00       236.27
  327.13        2955.50           1296          64.00       249.35
  327.17        2955.75           1299          55.00       210.11
  327.20        2956.00           1302          65.00       253.71
  327.23        2956.25           1306          58.00       223.19
  327.26        2956.50           1309          62.00       240.63
  327.29        2956.75           1312          64.00       249.35
  327.32        2957.00           1316          67.00       262.43
  327.35        2957.25           1319          54.00       205.76
  327.38        2957.50           1322          68.00       266.79
  327.41        2957.75           1326          57.00       218.83
  327.44        2958.00           1329          52.00       197.04
  327.47        2958.25           1332          61.00       236.27
  327.50        2958.50           1336          58.00       223.19
  327.53        2958.75           1339          63.00       244.99
  327.56        2959.00           1342          63.00       244.99
  327.59        2959.25           1346          66.00       258.07
  327.63        2959.50           1349          67.00       262.43
  327.66        2959.75           1352          78.00       310.38
  327.69        2960.00           1356         115.00       471.67
  327.72        2960.25           1359         147.00       611.17
  327.75        2960.50           1362         168.00       702.72
  327.78        2960.75           1366         230.00       973.00
  327.81        2961.00           1369         258.00      1095.07
  327.84        2961.25           1372         303.00      1291.24
  327.87        2961.50           1376         379.00      1622.57
  327.90        2961.75           1379         491.00      2110.86
  327.93        2962.00           1382         974.00      4216.75
  327.97        2962.25           1386        2538.00     11037.66
  328.00        2962.50           1389        4019.00     17499.16
  328.03        2962.75           1392        5442.00     23709.97
  328.06        2963.00           1396        7412.00     32312.04
  328.09        2963.25           1399        8870.00     38681.31
  328.12        2963.50           1402       10344.00     45122.94
  328.15        2963.75           1406       12424.00     54217.15
  328.18        2964.00           1409       13905.00     60695.42
  328.22        2964.25           1412       15648.00     68322.99
  328.25        2964.50           1416       17555.00     76672.24
  328.28        2964.75           1419       19006.00     83027.83
  328.31        2965.00           1422       20591.00     89973.12
  328.34        2965.25           1426       22787.00     99600.56
  328.37        2965.50           1429       24339.00    106408.00
  328.40        2965.75           1432       25821.00    112911.00
  328.43        2966.00           1436       27785.00    121533.00
  328.46        2966.25           1439       29188.00    127694.90
  328.49        2966.50           1442       30725.00    134447.90
  328.53        2966.75           1446       32308.00    141405.90
  328.56        2967.00           1449       32798.00    143560.30
  328.59        2967.25           1452       32816.00    143639.40
  328.62        2967.50           1456       32883.00    143934.00
  328.65        2967.75           1459       32795.00    143547.10
  328.68        2968.00           1462       32791.00    143529.50
  328.71        2968.25           1466       31838.00    139339.80
  328.74        2968.50           1469       30822.00    134874.20
  328.77        2968.75           1472       29444.00    128819.50
  328.80        2969.00           1476       27563.00    120558.20
  328.84        2969.25           1479       26119.00    114219.00
  328.87        2969.50           1482       24495.00    107092.40
  328.90        2969.75           1486       22615.00     98846.30
  328.93        2970.00           1489       20941.00     91507.18
  328.96        2970.25           1492       19524.00     85297.32
  328.99        2970.50           1496       17639.00     77040.10
  329.02        2970.75           1499       16250.00     70958.22
  329.05        2971.00           1502       14541.00     63478.23
  329.08        2971.25           1506       12545.00     54746.34
  329.11        2971.50           1509       10897.00     47540.29
  329.15        2971.75           1513        9034.00     39397.89
  329.18        2972.00           1516        7485.00     32630.88
  329.21        2972.25           1519        5939.00     25879.72
  329.24        2972.50           1523        4020.00     17503.52
  329.27        2972.75           1526        2515.00     10937.33
  329.30        2973.00           1529        1263.00      5476.92
  329.33        2973.25           1533         486.00      2089.06
  329.36        2973.50           1536         335.00      1430.75
  329.40        2973.75           1539         296.00      1260.73
  329.43        2974.00           1543         244.00      1034.03
  329.46        2974.25           1546         193.00       811.70
  329.49        2974.50           1549         142.00       589.37
  329.52        2974.75           1553         102.00       415.00
  329.55        2975.00           1556          78.00       310.38
  329.58        2975.25           1559          67.00       262.43
  329.61        2975.50           1563          56.00       214.47
  329.64        2975.75           1566          67.00       262.43
  329.67        2976.00           1569          68.00       266.79
  329.70        2976.25           1573          66.00       258.07
  329.73        2976.50           1576          56.00       214.47
  329.77        2976.75           1579          59.00       227.55
  329.80        2977.00           1583          68.00       266.79
  329.83        2977.25           1586          61.00       236.27
  329.86        2977.50           1590          61.00       236.27
  329.89        2977.75           1593          59.00       227.55
  329.92        2978.00           1596          60.00       231.91
  329.95        2978.25           1600          54.00       205.76
  329.98        2978.50           1603          56.00       214.47
  330.01        2978.75           1606          56.00       214.47
  330.04        2979.00           1610          57.00       218.83
  330.07        2979.25           1613          54.00       205.76
  330.10        2979.50           1616          63.00       244.99
  330.13        2979.75           1620          51.00       192.68
  330.17        2980.00           1623          58.00       223.19
  330.20        2980.25           1626          50.00       188.32
  330.23        2980.50           1630          57.00       218.83
  330.26        2980.75           1633          56.00       214.47
  330.29        2981.00           1637          60.00       231.91
  330.32        2981.25           1640          56.00       214.47
  330.35        2981.50           1643          61.00       236.27
  330.38        2981.75           1647          62.00       240.63
  330.41        2982.00           1650          56.00       214.47
  330.44        2982.25           1653          56.00       214.47
  330.47        2982.50           1657          57.00       218.83
  330.50        2982.75           1660          54.00       205.76
  330.54        2983.00           1663          56.00       214.47
  330.57        2983.25           1667          53.00       201.40
  330.60        2983.50           1670          53.00       201.40
  330.63        2983.75           1673          59.00       227.55
  330.66        2984.00           1677          58.00       223.19
HS scan finished at 05:30:52
end
************************************************************
  HS Scan of (1) Internal mercury lamp
************************************************************
Integration time is 0.2294 seconds per sample
dh060118Manchester 53.47 2.23 2.804185pr1000
************************************************************
Dead Time -------------------------  3E-08 
Number of Cycles Used -------------  4 
Starting Wavelength (Angstroms) ---  2950 
Final Wavelength (Angstoms) -------  2984 
Wavelength Increment (Angstroms) --  .25 
Filter Wheel #1 Position ---------- (1) Ground quartz diffuser (ND=2.32)
Filter Wheel #2 Position ---------- (1) Neutral Density 0.494



************************************************************
HS scan start time = 17:12:03
Dark Count =  5.7 


Time (GMT)  Wavelength (Ang)  Step Number  Raw Counts  Counts/Second

 1032.42        2950.00           1222          73.00       293.38
 1032.49        2950.25           1226          69.00       275.94
 1032.52        2950.50           1229          70.00       280.30
 1032.55        2950.75           1232          64.00       254.14
 1032.58        2951.00           1236          58.00       227.99
 1032.61        2951.25           1239          62.00       245.42
 1032.64        2951.50           1242          57.00       223.63
 1032.67        2951.75           1246          59.00       232.35
 1032.70        2952.00           1249          57.00       223.63
 1032.73        2952.25           1252          60.00       236.71
 1032.77        2952.50           1256          55.00       214.91
 1032.80        2952.75           1259          67.00       267.22
 1032.83        2953.00           1262          51.00       197.47
 1032.86        2953.25           1266          67.00       267.22
 1032.89        2953.50           1269          60.00       236.71
 1032.92        2953.75           1272          54.00       210.55
 1032.95        2954.00           1276          57.00       223.63
 1032.98        2954.25           1279          63.00       249.78
 1033.01        2954.50           1282          67.00       267.22
 1033.04        2954.75           1286          63.00       249.78
 1033.08        2955.00           1289          59.00       232.35
 1033.11        2955.25           1292          66.00       262.86
 1033.14        2955.50           1296          55.00       214.91
 1033.17        2955.75           1299          56.00       219.27
 1033.20        2956.00           1302          68.00       271.58
 1033.23        2956.25           1306          55.00       214.91
 1033.26        2956.50           1309          68.00       271.58
 1033.29        2956.75           1312          59.00       232.35
 1033.32        2957.00           1316          70.00       280.30
 1033.35        2957.25           1319          64.00       254.14
 1033.38        2957.50           1322          64.00       254.14
 1033.42        2957.75           1326          57.00       223.63
 1033.45        2958.00           1329          61.00       241.07
 1033.48        2958.25           1332          55.00       214.91
 1033.51        2958.50           1336          60.00       236.71
 1033.54        2958.75           1339          67.00       267.22
 1033.57        2959.00           1342          67.00       267.22
 1033.60        2959.25           1346          64.00       254.14
 1033.63        2959.50           1349          87.00       354.41
 1033.66        2959.75           1352          95.00       389.28
 1033.69        2960.00           1356         126.00       524.42
 1033.72        2960.25           1359         164.00       690.08
 1033.75        2960.50           1362         192.00       812.14
 1033.79        2960.75           1366         259.00      1104.22
 1033.82        2961.00           1369         304.00      1300.40
 1033.85        2961.25           1372         337.00      1444.26
 1033.88        2961.50           1376         408.00      1753.80
 1033.91        2961.75           1379         583.00      2516.76
 1033.94        2962.00           1382        1303.00      5656.15
 1033.97        2962.25           1386        2944.00     12813.56
 1034.00        2962.50           1389        4277.00     18629.85
 1034.03        2962.75           1392        5724.00     24945.86
 1034.06        2963.00           1396        7659.00     33395.69
 1034.09        2963.25           1399        9035.00     39407.06
 1034.12        2963.50           1402       10520.00     45897.07
 1034.15        2963.75           1406       12686.00     55367.83
 1034.19        2964.00           1409       14260.00     62253.47
 1034.22        2964.25           1412       15685.00     68489.76
 1034.25        2964.50           1416       17925.00     78297.48
 1034.28        2964.75           1419       19361.00     84587.96
 1034.31        2965.00           1422       20823.00     90994.80
 1034.34        2965.25           1426       22877.00    100000.10
 1034.37        2965.50           1429       24220.00    105890.80
 1034.40        2965.75           1432       25767.00    112678.90
 1034.43        2966.00           1436       27831.00    121739.80
 1034.46        2966.25           1439       29111.00    127361.50
 1034.49        2966.50           1442       30626.00    134017.70
 1034.53        2966.75           1446       32050.00    140276.50
 1034.56        2967.00           1449       32657.00    142945.20
 1034.59        2967.25           1452       32558.00    142509.90
 1034.62        2967.50           1456       32487.00    142197.70
 1034.65        2967.75           1459       32626.00    142808.90
 1034.68        2968.00           1462       32432.00    141955.90
 1034.71        2968.25           1466       31300.00    136979.80
 1034.74        2968.50           1469       30151.00    131930.50
 1034.77        2968.75           1472       28949.00    126649.90
 1034.81        2969.00           1476       26730.00    116905.80
 1034.84        2969.25           1479       25380.00    110980.50
 1034.87        2969.50           1482       23750.00    103829.00
 1034.90        2969.75           1486       21780.00     95189.94
 1034.93        2970.00           1489       20634.00     90166.42
 1034.96        2970.25           1492       19099.00     83440.09
 1034.99        2970.50           1496       17070.00     74553.23
 1035.02        2970.75           1499       15454.00     67478.66
 1035.05        2971.00           1502       14128.00     61675.92
 1035.08        2971.25           1506       12048.00     52577.64
 1035.12        2971.50           1509       10786.00     47059.85
 1035.15        2971.75           1513        8687.00     37886.54
 1035.18        2972.00           1516        7136.00     31111.41
 1035.21        2972.25           1519        5770.00     25146.69
 1035.24        2972.50           1523        3761.00     16378.14
 1035.27        2972.75           1526        2309.00     10043.57
 1035.30        2973.00           1529        1105.00      4792.76
 1035.33        2973.25           1533         420.00      1806.11
 1035.36        2973.50           1536         269.00      1147.82
 1035.39        2973.75           1539         255.00      1086.78
 1035.42        2974.00           1543         191.00       807.78
 1035.45        2974.25           1546         145.00       607.25
 1035.49        2974.50           1549         112.00       463.39
 1035.52        2974.75           1553          86.00       350.05
 1035.55        2975.00           1556          73.00       293.38
 1035.58        2975.25           1559          64.00       254.14
 1035.61        2975.50           1563          56.00       219.27
 1035.64        2975.75           1566          65.00       258.50
 1035.67        2976.00           1569          52.00       201.83
 1035.70        2976.25           1573          57.00       223.63
 1035.73        2976.50           1576          58.00       227.99
 1035.76        2976.75           1579          64.00       254.14
 1035.79        2977.00           1583          57.00       223.63
 1035.83        2977.25           1586          61.00       241.07
 1035.86        2977.50           1590          55.00       214.91
 1035.89        2977.75           1593          55.00       214.91
 1035.92        2978.00           1596          62.00       245.42
 1035.95        2978.25           1600          58.00       227.99
 1035.98        2978.50           1603          55.00       214.91
 1036.01        2978.75           1606          62.00       245.42
 1036.04        2979.00           1610          58.00       227.99
 1036.07        2979.25           1613          55.00       214.91
 1036.10        2979.50           1616          55.00       214.91
 1036.13        2979.75           1620          59.00       232.35
 1036.16        2980.00           1623          55.00       214.91
 1036.20        2980.25           1626          51.00       197.47
 1036.23        2980.50           1630          58.00       227.99
 1036.26        2980.75           1633          55.00       214.91
 1036.29        2981.00           1637          57.00       223.63
 1036.32        2981.25           1640          64.00       254.14
 1036.35        2981.50           1643          59.00       232.35
 1036.38        2981.75           1647          54.00       210.55
 1036.41        2982.00           1650          56.00       219.27
 1036.44        2982.25           1653          58.00       227.99
 1036.47        2982.50           1657          62.00       245.42
 1036.50        2982.75           1660          53.00       206.19
 1036.53        2983.00           1663          59.00       232.35
 1036.56        2983.25           1667          51.00       197.47
 1036.59        2983.50           1670          59.00       232.35
 1036.62        2983.75           1673          58.00       227.99
 1036.65        2984.00           1677          56.00       219.27
HS scan finished at 17:16:52
end
