************************************************************
  HS Scan of (1) Internal mercury lamp
************************************************************
Integration time is 0.2294 seconds per sample
dh030119Manchester 53.47 2.23 2.804185pr1000
************************************************************
Dead Time -------------------------  3E-08 
Number of Cycles Used -------------  4 
Starting Wavelength (Angstroms) ---  2950 
Final Wavelength (Angstoms) -------  2984 
Wavelength Increment (Angstroms) --  .25 
Filter Wheel #1 Position ---------- (1) Ground quartz diffuser (ND=2.32)
Filter Wheel #2 Position ---------- (1) Neutral Density 0.494



************************************************************
HS scan start time = 05:26:23
Dark Count =  4.4 


Time (GMT)  Wavelength (Ang)  Step Number  Raw Counts  Counts/Second

  326.75        2950.00           1222          58.00       233.65
  326.82        2950.25           1226          58.00       233.65
  326.85        2950.50           1229          57.00       229.30
  326.88        2950.75           1232          58.00       233.65
  326.91        2951.00           1236          57.00       229.30
  326.94        2951.25           1239          58.00       233.65
  326.97        2951.50           1242          70.00       285.97
  327.00        2951.75           1246          53.00       211.86
  327.03        2952.00           1249          49.00       194.42
  327.06        2952.25           1252          58.00       233.65
  327.10        2952.50           1256          51.00       203.14
  327.13        2952.75           1259          57.00       229.30
  327.16        2953.00           1262          55.00       220.58
  327.19        2953.25           1266          49.00       194.42
  327.22        2953.50           1269          61.00       246.73
  327.25        2953.75           1272          55.00       220.58
  327.28        2954.00           1276          53.00       211.86
  327.31        2954.25           1279          51.00       203.14
  327.34        2954.50           1282          53.00       211.86
  327.37        2954.75           1286          54.00       216.22
  327.40        2955.00           1289          54.00       216.22
  327.43        2955.25           1292          53.00       211.86
  327.46        2955.50           1296          57.00       229.30
  327.49        2955.75           1299          45.00       176.98
  327.52        2956.00           1302          59.00       238.01
  327.56        2956.25           1306          56.00       224.94
  327.59        2956.50           1309          48.00       190.06
  327.62        2956.75           1312          53.00       211.86
  327.65        2957.00           1316          57.00       229.30
  327.68        2957.25           1319          51.00       203.14
  327.71        2957.50           1322          56.00       224.94
  327.74        2957.75           1326          50.00       198.78
  327.77        2958.00           1329          60.00       242.37
  327.80        2958.25           1332          54.00       216.22
  327.83        2958.50           1336          48.00       190.06
  327.86        2958.75           1339          55.00       220.58
  327.89        2959.00           1342          49.00       194.42
  327.92        2959.25           1346          54.00       216.22
  327.95        2959.50           1349          52.00       207.50
  327.98        2959.75           1352          60.00       242.37
  328.01        2960.00           1356          81.00       333.92
  328.04        2960.25           1359          95.00       394.95
  328.07        2960.50           1362         130.00       547.52
  328.11        2960.75           1366         158.00       669.59
  328.14        2961.00           1369         215.00       918.07
  328.17        2961.25           1372         230.00       983.46
  328.20        2961.50           1376         275.00      1179.64
  328.23        2961.75           1379         341.00      1467.37
  328.26        2962.00           1382         617.00      2670.66
  328.29        2962.25           1386        1636.00      7113.99
  328.32        2962.50           1389        2710.00     11798.42
  328.35        2962.75           1392        3826.00     16667.44
  328.38        2963.00           1396        5207.00     22694.61
  328.42        2963.25           1399        6403.00     27916.14
  328.45        2963.50           1402        7529.00     32833.55
  328.48        2963.75           1406        9046.00     39460.81
  328.51        2964.00           1409       10425.00     45487.49
  328.54        2964.25           1412       11598.00     50615.60
  328.57        2964.50           1416       13144.00     57376.80
  328.60        2964.75           1419       14229.00     62123.52
  328.63        2965.00           1422       15479.00     67593.78
  328.66        2965.25           1426       17191.00     75088.75
  328.69        2965.50           1429       18384.00     80313.59
  328.73        2965.75           1432       19414.00     84825.88
  328.76        2966.00           1436       20907.00     91368.68
  328.79        2966.25           1439       21923.00     95822.58
  328.82        2966.50           1442       23064.00    100825.90
  328.85        2966.75           1446       24466.00    106975.70
  328.88        2967.00           1449       24814.00    108502.60
  328.91        2967.25           1452       25147.00    109963.70
  328.94        2967.50           1456       24961.00    109147.60
  328.97        2967.75           1459       25069.00    109621.50
  329.00        2968.00           1462       24924.00    108985.20
  329.03        2968.25           1466       24362.00    106519.50
  329.06        2968.50           1469       23647.00    103382.90
  329.10        2968.75           1472       22530.00     98484.09
  329.13        2969.00           1476       21137.00     92376.84
  329.16        2969.25           1479       20059.00     87652.15
  329.19        2969.50           1482       18921.00     82665.96
  329.22        2969.75           1486       17262.00     75399.66
  329.25        2970.00           1489       16214.00     70811.12
  329.28        2970.25           1492       15175.00     66263.25
  329.31        2970.50           1496       13571.00     59244.71
  329.34        2970.75           1499       12271.00     53558.52
  329.37        2971.00           1502       11184.00     48805.50
  329.41        2971.25           1506        9795.00     42733.92
  329.44        2971.50           1509        8564.00     37354.83
  329.47        2971.75           1513        7104.00     30977.34
  329.50        2972.00           1516        5976.00     26051.74
  329.53        2972.25           1519        4854.00     21153.79
  329.56        2972.50           1523        3446.00     15009.37
  329.59        2972.75           1526        2311.00     10057.96
  329.62        2973.00           1529        1181.00      5129.82
  329.65        2973.25           1533         416.00      1794.34
  329.68        2973.50           1536         284.00      1218.88
  329.71        2973.75           1539         223.00       952.95
  329.75        2974.00           1543         196.00       835.24
  329.78        2974.25           1546         162.00       687.02
  329.81        2974.50           1549         119.00       499.57
  329.84        2974.75           1553          80.00       329.56
  329.87        2975.00           1556          77.00       316.48
  329.90        2975.25           1559          65.00       264.17
  329.93        2975.50           1563          51.00       203.14
  329.96        2975.75           1566          59.00       238.01
  329.99        2976.00           1569          53.00       211.86
  330.02        2976.25           1573          54.00       216.22
  330.05        2976.50           1576          49.00       194.42
  330.08        2976.75           1579          55.00       220.58
  330.11        2977.00           1583          58.00       233.65
  330.14        2977.25           1586          50.00       198.78
  330.17        2977.50           1590          48.00       190.06
  330.21        2977.75           1593          52.00       207.50
  330.24        2978.00           1596          53.00       211.86
  330.27        2978.25           1600          47.00       185.70
  330.30        2978.50           1603          46.00       181.34
  330.33        2978.75           1606          50.00       198.78
  330.36        2979.00           1610          46.00       181.34
  330.39        2979.25           1613          54.00       216.22
  330.42        2979.50           1616          50.00       198.78
  330.45        2979.75           1620          48.00       190.06
  330.48        2980.00           1623          50.00       198.78
  330.51        2980.25           1626          51.00       203.14
  330.54        2980.50           1630          50.00       198.78
  330.57        2980.75           1633          53.00       211.86
  330.61        2981.00           1637          54.00       216.22
  330.64        2981.25           1640          43.00       168.27
  330.67        2981.50           1643          50.00       198.78
  330.70        2981.75           1647          57.00       229.30
  330.73        2982.00           1650          38.00       146.47
  330.76        2982.25           1653          45.00       176.98
  330.79        2982.50           1657          45.00       176.98
  330.82        2982.75           1660          47.00       185.70
  330.85        2983.00           1663          44.00       172.63
  330.88        2983.25           1667          55.00       220.58
  330.91        2983.50           1670          52.00       207.50
  330.94        2983.75           1673          46.00       181.34
  330.97        2984.00           1677          45.00       176.98
HS scan finished at 05:31:11
end
************************************************************
  HS Scan of (1) Internal mercury lamp
************************************************************
Integration time is 0.2294 seconds per sample
dh030119Manchester 53.47 2.23 2.804185pr1000
************************************************************
Dead Time -------------------------  3E-08 
Number of Cycles Used -------------  4 
Starting Wavelength (Angstroms) ---  2950 
Final Wavelength (Angstoms) -------  2984 
Wavelength Increment (Angstroms) --  .25 
Filter Wheel #1 Position ---------- (1) Ground quartz diffuser (ND=2.32)
Filter Wheel #2 Position ---------- (1) Neutral Density 0.494



************************************************************
HS scan start time = 17:12:01
Dark Count =  4.4 


Time (GMT)  Wavelength (Ang)  Step Number  Raw Counts  Counts/Second

 1032.39        2950.00           1222          61.00       246.73
 1032.46        2950.25           1226          58.00       233.65
 1032.49        2950.50           1229          55.00       220.58
 1032.52        2950.75           1232          54.00       216.22
 1032.55        2951.00           1236          59.00       238.01
 1032.58        2951.25           1239          51.00       203.14
 1032.61        2951.50           1242          55.00       220.58
 1032.64        2951.75           1246          52.00       207.50
 1032.67        2952.00           1249          59.00       238.01
 1032.70        2952.25           1252          57.00       229.30
 1032.74        2952.50           1256          55.00       220.58
 1032.77        2952.75           1259          51.00       203.14
 1032.80        2953.00           1262          58.00       233.65
 1032.83        2953.25           1266          50.00       198.78
 1032.86        2953.50           1269          53.00       211.86
 1032.89        2953.75           1272          60.00       242.37
 1032.92        2954.00           1276          52.00       207.50
 1032.95        2954.25           1279          55.00       220.58
 1032.98        2954.50           1282          57.00       229.30
 1033.01        2954.75           1286          61.00       246.73
 1033.04        2955.00           1289          50.00       198.78
 1033.08        2955.25           1292          62.00       251.09
 1033.11        2955.50           1296          55.00       220.58
 1033.14        2955.75           1299          51.00       203.14
 1033.17        2956.00           1302          49.00       194.42
 1033.20        2956.25           1306          52.00       207.50
 1033.23        2956.50           1309          51.00       203.14
 1033.26        2956.75           1312          61.00       246.73
 1033.29        2957.00           1316          46.00       181.34
 1033.32        2957.25           1319          51.00       203.14
 1033.35        2957.50           1322          47.00       185.70
 1033.38        2957.75           1326          52.00       207.50
 1033.41        2958.00           1329          50.00       198.78
 1033.44        2958.25           1332          51.00       203.14
 1033.48        2958.50           1336          49.00       194.42
 1033.51        2958.75           1339          53.00       211.86
 1033.54        2959.00           1342          60.00       242.37
 1033.57        2959.25           1346          50.00       198.78
 1033.60        2959.50           1349          57.00       229.30
 1033.63        2959.75           1352          72.00       294.68
 1033.66        2960.00           1356          81.00       333.92
 1033.69        2960.25           1359         113.00       473.42
 1033.72        2960.50           1362         145.00       612.91
 1033.75        2960.75           1366         170.00       721.90
 1033.78        2961.00           1369         202.00       861.40
 1033.81        2961.25           1372         243.00      1040.14
 1033.84        2961.50           1376         276.00      1184.00
 1033.88        2961.75           1379         386.00      1663.55
 1033.91        2962.00           1382         753.00      3263.62
 1033.94        2962.25           1386        1995.00      8679.68
 1033.97        2962.50           1389        3108.00     13534.70
 1034.00        2962.75           1392        4161.00     18129.30
 1034.03        2963.00           1396        5756.00     25091.25
 1034.06        2963.25           1399        6825.00     29758.90
 1034.09        2963.50           1402        7987.00     34834.12
 1034.12        2963.75           1406        9481.00     41361.67
 1034.16        2964.00           1409       10663.00     46527.85
 1034.19        2964.25           1412       11694.00     51035.36
 1034.22        2964.50           1416       13388.00     58444.15
 1034.25        2964.75           1419       14378.00     62775.48
 1034.28        2965.00           1422       15655.00     68364.13
 1034.31        2965.25           1426       17232.00     75268.28
 1034.34        2965.50           1429       18292.00     79910.60
 1034.37        2965.75           1432       19469.00     85066.86
 1034.40        2966.00           1436       20992.00     91741.24
 1034.44        2966.25           1439       22094.00     96572.31
 1034.47        2966.50           1442       23079.00    100891.70
 1034.50        2966.75           1446       24311.00    106295.70
 1034.53        2967.00           1449       24629.00    107690.90
 1034.56        2967.25           1452       24819.00    108524.50
 1034.59        2967.50           1456       24579.00    107471.50
 1034.62        2967.75           1459       24706.00    108028.70
 1034.65        2968.00           1462       24588.00    107511.00
 1034.68        2968.25           1466       23902.00    104501.50
 1034.71        2968.50           1469       22992.00    100510.10
 1034.75        2968.75           1472       21896.00     95704.21
 1034.78        2969.00           1476       20512.00     89637.41
 1034.81        2969.25           1479       19353.00     84558.61
 1034.84        2969.50           1482       18130.00     79201.03
 1034.87        2969.75           1486       16596.00     72483.52
 1034.90        2970.00           1489       15553.00     67917.66
 1034.93        2970.25           1492       14554.00     63545.61
 1034.96        2970.50           1496       12901.00     56313.89
 1034.99        2970.75           1499       11786.00     51437.64
 1035.03        2971.00           1502       10737.00     46851.33
 1035.06        2971.25           1506        9149.00     39910.88
 1035.09        2971.50           1509        8019.00     34973.91
 1035.12        2971.75           1513        6601.00     28780.73
 1035.15        2972.00           1516        5404.00     23554.57
 1035.18        2972.25           1519        4295.00     18714.08
 1035.21        2972.50           1523        2784.00     12121.24
 1035.24        2972.75           1526        1647.00      7161.96
 1035.27        2973.00           1529         803.00      3481.62
 1035.30        2973.25           1533         336.00      1445.57
 1035.34        2973.50           1536         266.00      1140.41
 1035.37        2973.75           1539         238.00      1018.34
 1035.40        2974.00           1543         191.00       813.45
 1035.43        2974.25           1546         170.00       721.90
 1035.46        2974.50           1549         119.00       499.57
 1035.49        2974.75           1553          99.00       412.39
 1035.52        2975.00           1556          71.00       290.33
 1035.55        2975.25           1559          59.00       238.01
 1035.58        2975.50           1563          55.00       220.58
 1035.61        2975.75           1566          50.00       198.78
 1035.64        2976.00           1569          49.00       194.42
 1035.68        2976.25           1573          49.00       194.42
 1035.71        2976.50           1576          53.00       211.86
 1035.74        2976.75           1579          52.00       207.50
 1035.77        2977.00           1583          51.00       203.14
 1035.80        2977.25           1586          48.00       190.06
 1035.83        2977.50           1590          56.00       224.94
 1035.86        2977.75           1593          43.00       168.27
 1035.89        2978.00           1596          55.00       220.58
 1035.92        2978.25           1600          56.00       224.94
 1035.95        2978.50           1603          58.00       233.65
 1035.98        2978.75           1606          58.00       233.65
 1036.01        2979.00           1610          48.00       190.06
 1036.05        2979.25           1613          55.00       220.58
 1036.08        2979.50           1616          55.00       220.58
 1036.11        2979.75           1620          51.00       203.14
 1036.14        2980.00           1623          48.00       190.06
 1036.17        2980.25           1626          46.00       181.34
 1036.20        2980.50           1630          52.00       207.50
 1036.23        2980.75           1633          55.00       220.58
 1036.26        2981.00           1637          57.00       229.30
 1036.29        2981.25           1640          51.00       203.14
 1036.32        2981.50           1643          49.00       194.42
 1036.35        2981.75           1647          51.00       203.14
 1036.38        2982.00           1650          38.00       146.47
 1036.42        2982.25           1653          60.00       242.37
 1036.45        2982.50           1657          42.00       163.91
 1036.48        2982.75           1660          46.00       181.34
 1036.51        2983.00           1663          54.00       216.22
 1036.54        2983.25           1667          46.00       181.34
 1036.57        2983.50           1670          48.00       190.06
 1036.60        2983.75           1673          51.00       203.14
 1036.63        2984.00           1677          45.00       176.98
HS scan finished at 17:16:51
end
