************************************************************
  HS Scan of (1) Internal mercury lamp
************************************************************
Integration time is 0.2294 seconds per sample
dh090119Manchester 53.47 2.23 2.750537pr1000
************************************************************
Dead Time -------------------------  3E-08 
Number of Cycles Used -------------  4 
Starting Wavelength (Angstroms) ---  2950 
Final Wavelength (Angstoms) -------  2984 
Wavelength Increment (Angstroms) --  .25 
Filter Wheel #1 Position ---------- (1) Ground quartz diffuser (ND=2.32)
Filter Wheel #2 Position ---------- (1) Neutral Density 0.494



************************************************************
HS scan start time = 05:25:24
Dark Count =  5.4 


Time (GMT)  Wavelength (Ang)  Step Number  Raw Counts  Counts/Second

  325.76        2950.00           1222          51.00       198.78
  325.83        2950.25           1226          60.00       238.01
  325.86        2950.50           1229          54.00       211.86
  325.89        2950.75           1232          55.00       216.22
  325.92        2951.00           1236          54.00       211.86
  325.95        2951.25           1239          53.00       207.50
  325.98        2951.50           1242          54.00       211.86
  326.01        2951.75           1246          54.00       211.86
  326.04        2952.00           1249          45.00       172.63
  326.07        2952.25           1252          57.00       224.94
  326.11        2952.50           1256          51.00       198.78
  326.14        2952.75           1259          51.00       198.78
  326.17        2953.00           1262          55.00       216.22
  326.20        2953.25           1266          54.00       211.86
  326.23        2953.50           1269          53.00       207.50
  326.26        2953.75           1272          52.00       203.14
  326.29        2954.00           1276          58.00       229.30
  326.32        2954.25           1279          65.00       259.81
  326.35        2954.50           1282          65.00       259.81
  326.38        2954.75           1286          58.00       229.30
  326.41        2955.00           1289          55.00       216.22
  326.44        2955.25           1292          62.00       246.73
  326.47        2955.50           1296          54.00       211.86
  326.51        2955.75           1299          52.00       203.14
  326.54        2956.00           1302          63.00       251.09
  326.57        2956.25           1306          54.00       211.86
  326.60        2956.50           1309          46.00       176.98
  326.63        2956.75           1312          52.00       203.14
  326.66        2957.00           1316          49.00       190.06
  326.69        2957.25           1319          60.00       238.01
  326.72        2957.50           1322          57.00       224.94
  326.75        2957.75           1326          53.00       207.50
  326.79        2958.00           1329          52.00       203.14
  326.82        2958.25           1332          50.00       194.42
  326.85        2958.50           1336          51.00       198.78
  326.88        2958.75           1339          50.00       194.42
  326.91        2959.00           1342          50.00       194.42
  326.94        2959.25           1346          61.00       242.37
  326.97        2959.50           1349          67.00       268.53
  327.00        2959.75           1352          67.00       268.53
  327.03        2960.00           1356          79.00       320.84
  327.06        2960.25           1359          99.00       408.03
  327.09        2960.50           1362         124.00       517.01
  327.12        2960.75           1366         149.00       625.99
  327.15        2961.00           1369         201.00       852.68
  327.19        2961.25           1372         230.00       979.10
  327.22        2961.50           1376         299.00      1279.91
  327.25        2961.75           1379         488.00      2103.88
  327.28        2962.00           1382        1118.00      4850.75
  327.31        2962.25           1386        2451.00     10664.27
  327.34        2962.50           1389        3509.00     15279.89
  327.37        2962.75           1392        4619.00     20123.74
  327.40        2963.00           1396        6175.00     26916.23
  327.43        2963.25           1399        7220.00     31479.59
  327.46        2963.50           1402        8313.00     36253.88
  327.49        2963.75           1406        9951.00     43411.34
  327.52        2964.00           1409       11330.00     49439.45
  327.56        2964.25           1412       12597.00     54979.89
  327.59        2964.50           1416       14122.00     61650.98
  327.62        2964.75           1419       15246.00     66569.61
  327.65        2965.00           1422       16386.00     71559.75
  327.68        2965.25           1426       17995.00     78605.38
  327.71        2965.50           1429       19194.00     83857.60
  327.74        2965.75           1432       20342.00     88887.98
  327.77        2966.00           1436       21732.00     94980.81
  327.80        2966.25           1439       22861.00     99931.22
  327.84        2966.50           1442       23927.00    104606.80
  327.87        2966.75           1446       24988.00    109261.70
  327.90        2967.00           1449       25002.00    109323.10
  327.93        2967.25           1452       24992.00    109279.20
  327.96        2967.50           1456       25178.00    110095.40
  327.99        2967.75           1459       25024.00    109419.60
  328.02        2968.00           1462       24830.00    108568.40
  328.05        2968.25           1466       23993.00    104896.30
  328.08        2968.50           1469       22698.00     99216.42
  328.11        2968.75           1472       21933.00     95862.04
  328.14        2969.00           1476       20348.00     88914.28
  328.18        2969.25           1479       19100.00     83445.78
  328.21        2969.50           1482       18127.00     79183.52
  328.24        2969.75           1486       16491.00     72019.43
  328.27        2970.00           1489       15353.00     67037.91
  328.30        2970.25           1492       14157.00     61804.11
  328.33        2970.50           1496       12677.00     55329.78
  328.36        2970.75           1499       11680.00     50969.77
  328.39        2971.00           1502       10447.00     45579.28
  328.42        2971.25           1506        8911.00     38866.57
  328.45        2971.50           1509        7687.00     33519.31
  328.49        2971.75           1513        6205.00     27047.22
  328.52        2972.00           1516        5053.00     22018.03
  328.55        2972.25           1519        3940.00     17160.53
  328.58        2972.50           1523        2513.00     10934.71
  328.61        2972.75           1526        1428.00      6202.55
  328.64        2973.00           1529         640.00      2766.58
  328.67        2973.25           1533         351.00      1506.61
  328.70        2973.50           1536         278.00      1188.36
  328.73        2973.75           1539         239.00      1018.34
  328.76        2974.00           1543         209.00       887.56
  328.79        2974.25           1546         172.00       726.26
  328.83        2974.50           1549         135.00       564.96
  328.86        2974.75           1553          87.00       355.71
  328.89        2975.00           1556          78.00       316.48
  328.92        2975.25           1559          59.00       233.65
  328.95        2975.50           1563          51.00       198.78
  328.98        2975.75           1566          56.00       220.58
  329.01        2976.00           1569          51.00       198.78
  329.04        2976.25           1573          59.00       233.65
  329.07        2976.50           1576          55.00       216.22
  329.10        2976.75           1579          55.00       216.22
  329.13        2977.00           1583          51.00       198.78
  329.16        2977.25           1586          48.00       185.70
  329.20        2977.50           1590          49.00       190.06
  329.23        2977.75           1593          52.00       203.14
  329.26        2978.00           1596          46.00       176.98
  329.29        2978.25           1600          54.00       211.86
  329.32        2978.50           1603          48.00       185.70
  329.35        2978.75           1606          49.00       190.06
  329.38        2979.00           1610          42.00       159.55
  329.41        2979.25           1613          47.00       181.34
  329.44        2979.50           1616          52.00       203.14
  329.47        2979.75           1620          51.00       198.78
  329.50        2980.00           1623          53.00       207.50
  329.53        2980.25           1626          51.00       198.78
  329.56        2980.50           1630          54.00       211.86
  329.60        2980.75           1633          44.00       168.27
  329.63        2981.00           1637          49.00       190.06
  329.66        2981.25           1640          53.00       207.50
  329.69        2981.50           1643          54.00       211.86
  329.72        2981.75           1647          58.00       229.30
  329.75        2982.00           1650          51.00       198.78
  329.78        2982.25           1653          53.00       207.50
  329.81        2982.50           1657          48.00       185.70
  329.84        2982.75           1660          49.00       190.06
  329.87        2983.00           1663          46.00       176.98
  329.90        2983.25           1667          47.00       181.34
  329.93        2983.50           1670          53.00       207.50
  329.96        2983.75           1673          54.00       211.86
  329.99        2984.00           1677          51.00       198.78
HS scan finished at 05:30:13
end
************************************************************
  HS Scan of (1) Internal mercury lamp
************************************************************
Integration time is 0.2294 seconds per sample
dh090119Manchester 53.47 2.23 2.804185pr1000
************************************************************
Dead Time -------------------------  3E-08 
Number of Cycles Used -------------  4 
Starting Wavelength (Angstroms) ---  2950 
Final Wavelength (Angstoms) -------  2984 
Wavelength Increment (Angstroms) --  .25 
Filter Wheel #1 Position ---------- (1) Ground quartz diffuser (ND=2.32)
Filter Wheel #2 Position ---------- (1) Neutral Density 0.494



************************************************************
HS scan start time = 17:12:01
Dark Count =  6.3 


Time (GMT)  Wavelength (Ang)  Step Number  Raw Counts  Counts/Second

 1032.39        2950.00           1222          52.00       199.22
 1032.46        2950.25           1226          54.00       207.94
 1032.49        2950.50           1229          60.00       234.09
 1032.52        2950.75           1232          55.00       212.29
 1032.55        2951.00           1236          54.00       207.94
 1032.58        2951.25           1239          58.00       225.37
 1032.61        2951.50           1242          53.00       203.58
 1032.65        2951.75           1246          54.00       207.94
 1032.68        2952.00           1249          57.00       221.01
 1032.71        2952.25           1252          56.00       216.65
 1032.74        2952.50           1256          55.00       212.29
 1032.77        2952.75           1259          51.00       194.86
 1032.80        2953.00           1262          54.00       207.94
 1032.83        2953.25           1266          60.00       234.09
 1032.86        2953.50           1269          52.00       199.22
 1032.89        2953.75           1272          48.00       181.78
 1032.92        2954.00           1276          48.00       181.78
 1032.95        2954.25           1279          59.00       229.73
 1032.98        2954.50           1282          56.00       216.65
 1033.01        2954.75           1286          55.00       212.29
 1033.05        2955.00           1289          52.00       199.22
 1033.08        2955.25           1292          52.00       199.22
 1033.11        2955.50           1296          54.00       207.94
 1033.14        2955.75           1299          53.00       203.58
 1033.17        2956.00           1302          50.00       190.50
 1033.20        2956.25           1306          55.00       212.29
 1033.23        2956.50           1309          54.00       207.94
 1033.26        2956.75           1312          60.00       234.09
 1033.29        2957.00           1316          48.00       181.78
 1033.32        2957.25           1319          50.00       190.50
 1033.35        2957.50           1322          44.00       164.34
 1033.38        2957.75           1326          55.00       212.29
 1033.41        2958.00           1329          50.00       190.50
 1033.44        2958.25           1332          58.00       225.37
 1033.48        2958.50           1336          49.00       186.14
 1033.51        2958.75           1339          54.00       207.94
 1033.54        2959.00           1342          51.00       194.86
 1033.57        2959.25           1346          55.00       212.29
 1033.60        2959.50           1349          63.00       247.17
 1033.63        2959.75           1352          66.00       260.25
 1033.66        2960.00           1356          82.00       329.99
 1033.69        2960.25           1359         111.00       456.41
 1033.72        2960.50           1362         124.00       513.09
 1033.75        2960.75           1366         162.00       678.74
 1033.78        2961.00           1369         201.00       848.76
 1033.81        2961.25           1372         247.00      1049.29
 1033.84        2961.50           1376         274.00      1167.00
 1033.87        2961.75           1379         387.00      1659.63
 1033.90        2962.00           1382         795.00      3438.45
 1033.93        2962.25           1386        2017.00      8767.35
 1033.97        2962.50           1389        3135.00     13644.21
 1034.00        2962.75           1392        4197.00     18278.11
 1034.03        2963.00           1396        5646.00     24602.72
 1034.06        2963.25           1399        6814.00     29702.57
 1034.09        2963.50           1402        8027.00     35000.56
 1034.12        2963.75           1406        9739.00     42480.87
 1034.15        2964.00           1409       10735.00     46834.29
 1034.18        2964.25           1412       11886.00     51866.61
 1034.21        2964.50           1416       13514.00     58987.03
 1034.24        2964.75           1419       14728.00     64298.72
 1034.27        2965.00           1422       15853.00     69222.52
 1034.31        2965.25           1426       17390.00     75951.85
 1034.34        2965.50           1429       18517.00     80887.85
 1034.37        2965.75           1432       19754.00     86307.31
 1034.40        2966.00           1436       21376.00     93416.18
 1034.43        2966.25           1439       22544.00     98537.15
 1034.46        2966.50           1442       23656.00    103414.10
 1034.49        2966.75           1446       24609.00    107594.80
 1034.52        2967.00           1449       24801.00    108437.20
 1034.55        2967.25           1452       24812.00    108485.50
 1034.58        2967.50           1456       24953.00    109104.10
 1034.61        2967.75           1459       24909.00    108911.10
 1034.64        2968.00           1462       24773.00    108314.40
 1034.68        2968.25           1466       24032.00    105063.40
 1034.71        2968.50           1469       23102.00    100984.20
 1034.74        2968.75           1472       21937.00     95875.63
 1034.77        2969.00           1476       20362.00     88971.68
 1034.80        2969.25           1479       19302.00     84326.83
 1034.83        2969.50           1482       18160.00     79324.11
 1034.86        2969.75           1486       16460.00     71879.77
 1034.89        2970.00           1489       15333.00     66946.45
 1034.92        2970.25           1492       14421.00     62955.32
 1034.96        2970.50           1496       12836.00     56021.28
 1034.99        2970.75           1499       11661.00     50882.76
 1035.02        2971.00           1502       10574.00     46130.50
 1035.05        2971.25           1506        9071.00     39561.75
 1035.08        2971.50           1509        8022.00     34978.71
 1035.11        2971.75           1513        6460.00     28156.73
 1035.14        2972.00           1516        5291.00     23052.99
 1035.17        2972.25           1519        4171.00     18164.65
 1035.20        2972.50           1523        2669.00     11611.28
 1035.23        2972.75           1526        1596.00      6931.26
 1035.26        2973.00           1529         727.00      3141.97
 1035.29        2973.25           1533         322.00      1376.26
 1035.33        2973.50           1536         247.00      1049.29
 1035.36        2973.75           1539         231.00       979.54
 1035.39        2974.00           1543         186.00       783.37
 1035.42        2974.25           1546         153.00       639.51
 1035.45        2974.50           1549         113.00       465.13
 1035.48        2974.75           1553          79.00       316.92
 1035.51        2975.00           1556          63.00       247.17
 1035.54        2975.25           1559          57.00       221.01
 1035.57        2975.50           1563          47.00       177.42
 1035.60        2975.75           1566          52.00       199.22
 1035.63        2976.00           1569          54.00       207.94
 1035.66        2976.25           1573          55.00       212.29
 1035.69        2976.50           1576          55.00       212.29
 1035.72        2976.75           1579          46.00       173.06
 1035.76        2977.00           1583          51.00       194.86
 1035.79        2977.25           1586          52.00       199.22
 1035.82        2977.50           1590          53.00       203.58
 1035.85        2977.75           1593          52.00       199.22
 1035.88        2978.00           1596          51.00       194.86
 1035.91        2978.25           1600          52.00       199.22
 1035.94        2978.50           1603          41.00       151.26
 1035.97        2978.75           1606          46.00       173.06
 1036.00        2979.00           1610          51.00       194.86
 1036.03        2979.25           1613          46.00       173.06
 1036.06        2979.50           1616          42.00       155.62
 1036.09        2979.75           1620          44.00       164.34
 1036.13        2980.00           1623          50.00       190.50
 1036.16        2980.25           1626          51.00       194.86
 1036.19        2980.50           1630          50.00       190.50
 1036.22        2980.75           1633          49.00       186.14
 1036.25        2981.00           1637          43.00       159.98
 1036.28        2981.25           1640          51.00       194.86
 1036.31        2981.50           1643          48.00       181.78
 1036.34        2981.75           1647          52.00       199.22
 1036.37        2982.00           1650          51.00       194.86
 1036.40        2982.25           1653          54.00       207.94
 1036.43        2982.50           1657          46.00       173.06
 1036.46        2982.75           1660          52.00       199.22
 1036.49        2983.00           1663          47.00       177.42
 1036.53        2983.25           1667          46.00       173.06
 1036.56        2983.50           1670          56.00       216.65
 1036.59        2983.75           1673          57.00       221.01
 1036.62        2984.00           1677          50.00       190.50
HS scan finished at 17:16:50
end
