************************************************************
  HS Scan of (1) Internal mercury lamp
************************************************************
Integration time is 0.2294 seconds per sample
dh040119Manchester 53.47 2.23 2.804185pr1000
************************************************************
Dead Time -------------------------  3E-08 
Number of Cycles Used -------------  4 
Starting Wavelength (Angstroms) ---  2950 
Final Wavelength (Angstoms) -------  2984 
Wavelength Increment (Angstroms) --  .25 
Filter Wheel #1 Position ---------- (1) Ground quartz diffuser (ND=2.32)
Filter Wheel #2 Position ---------- (1) Neutral Density 0.494



************************************************************
HS scan start time = 05:26:20
Dark Count =  7.7 


Time (GMT)  Wavelength (Ang)  Step Number  Raw Counts  Counts/Second

  326.71        2950.00           1222          49.00       180.04
  326.78        2950.25           1226          55.00       206.19
  326.81        2950.50           1229          50.00       184.40
  326.84        2950.75           1232          59.00       223.63
  326.87        2951.00           1236          55.00       206.19
  326.90        2951.25           1239          47.00       171.32
  326.93        2951.50           1242          53.00       197.47
  326.96        2951.75           1246          56.00       210.55
  326.99        2952.00           1249          52.00       193.11
  327.02        2952.25           1252          52.00       193.11
  327.05        2952.50           1256          55.00       206.19
  327.09        2952.75           1259          58.00       219.27
  327.12        2953.00           1262          51.00       188.75
  327.15        2953.25           1266          57.00       214.91
  327.18        2953.50           1269          55.00       206.19
  327.21        2953.75           1272          63.00       241.07
  327.24        2954.00           1276          52.00       193.11
  327.27        2954.25           1279          59.00       223.63
  327.30        2954.50           1282          52.00       193.11
  327.33        2954.75           1286          57.00       214.91
  327.36        2955.00           1289          52.00       193.11
  327.39        2955.25           1292          55.00       206.19
  327.43        2955.50           1296          56.00       210.55
  327.46        2955.75           1299          56.00       210.55
  327.49        2956.00           1302          58.00       219.27
  327.52        2956.25           1306          62.00       236.71
  327.55        2956.50           1309          56.00       210.55
  327.58        2956.75           1312          55.00       206.19
  327.61        2957.00           1316          56.00       210.55
  327.64        2957.25           1319          51.00       188.75
  327.67        2957.50           1322          58.00       219.27
  327.70        2957.75           1326          52.00       193.11
  327.74        2958.00           1329          60.00       227.99
  327.77        2958.25           1332          49.00       180.04
  327.80        2958.50           1336          57.00       214.91
  327.83        2958.75           1339          58.00       219.27
  327.86        2959.00           1342          60.00       227.99
  327.89        2959.25           1346          54.00       201.83
  327.92        2959.50           1349          61.00       232.35
  327.95        2959.75           1352          61.00       232.35
  327.98        2960.00           1356          83.00       328.25
  328.01        2960.25           1359          89.00       354.41
  328.04        2960.50           1362         125.00       511.34
  328.08        2960.75           1366         173.00       720.59
  328.11        2961.00           1369         194.00       812.14
  328.14        2961.25           1372         218.00       916.76
  328.17        2961.50           1376         264.00      1117.30
  328.20        2961.75           1379         327.00      1391.95
  328.23        2962.00           1382         652.00      2808.87
  328.26        2962.25           1386        1821.00      7906.41
  328.29        2962.50           1389        2925.00     12721.94
  328.32        2962.75           1392        3984.00     17342.50
  328.35        2963.00           1396        5477.00     23858.83
  328.38        2963.25           1399        6557.00     28574.18
  328.42        2963.50           1402        7606.00     33155.45
  328.45        2963.75           1406        9248.00     40329.06
  328.48        2964.00           1409       10423.00     45464.32
  328.51        2964.25           1412       11729.00     51173.97
  328.54        2964.50           1416       13171.00     57480.47
  328.57        2964.75           1419       14263.00     62257.85
  328.60        2965.00           1422       15424.00     67338.60
  328.63        2965.25           1426       16940.00     73975.24
  328.66        2965.50           1429       18053.00     78849.34
  328.70        2965.75           1432       19307.00     84342.61
  328.73        2966.00           1436       20735.00     90600.32
  328.76        2966.25           1439       21752.00     95058.41
  328.79        2966.50           1442       23039.00    100701.80
  328.82        2966.75           1446       24441.00    106851.60
  328.85        2967.00           1449       24888.00    108812.80
  328.88        2967.25           1452       24964.00    109146.30
  328.91        2967.50           1456       24981.00    109220.90
  328.94        2967.75           1459       25005.00    109326.20
  328.97        2968.00           1462       24895.00    108843.50
  329.00        2968.25           1466       24557.00    107360.50
  329.03        2968.50           1469       23551.00    102947.40
  329.07        2968.75           1472       22639.00     98947.60
  329.10        2969.00           1476       21195.00     92616.62
  329.13        2969.25           1479       19994.00     87352.86
  329.16        2969.50           1482       18932.00     82699.70
  329.19        2969.75           1486       17240.00     75288.86
  329.22        2970.00           1489       16090.00     70253.85
  329.25        2970.25           1492       15047.00     65688.61
  329.28        2970.50           1496       13508.00     58954.66
  329.31        2970.75           1499       12331.00     53806.49
  329.35        2971.00           1502       11341.00     49477.49
  329.38        2971.25           1506        9761.00     42570.90
  329.41        2971.50           1509        8556.00     37305.46
  329.44        2971.75           1513        7061.00     30775.13
  329.47        2972.00           1516        5900.00     25705.52
  329.50        2972.25           1519        4625.00     20139.89
  329.53        2972.50           1523        3264.00     14200.91
  329.56        2972.75           1526        2146.00      9323.88
  329.59        2973.00           1529        1166.00      5050.02
  329.62        2973.25           1533         418.00      1788.67
  329.66        2973.50           1536         278.00      1178.33
  329.69        2973.75           1539         240.00      1012.67
  329.72        2974.00           1543         210.00       881.89
  329.75        2974.25           1546         165.00       685.72
  329.78        2974.50           1549         123.00       502.62
  329.81        2974.75           1553          91.00       363.13
  329.84        2975.00           1556          79.00       310.81
  329.87        2975.25           1559          63.00       241.07
  329.90        2975.50           1563          57.00       214.91
  329.93        2975.75           1566          48.00       175.68
  329.96        2976.00           1569          48.00       175.68
  329.99        2976.25           1573          46.00       166.96
  330.02        2976.50           1576          48.00       175.68
  330.06        2976.75           1579          48.00       175.68
  330.09        2977.00           1583          55.00       206.19
  330.12        2977.25           1586          55.00       206.19
  330.15        2977.50           1590          49.00       180.04
  330.18        2977.75           1593          46.00       166.96
  330.21        2978.00           1596          47.00       171.32
  330.24        2978.25           1600          52.00       193.11
  330.27        2978.50           1603          47.00       171.32
  330.30        2978.75           1606          57.00       214.91
  330.33        2979.00           1610          45.00       162.60
  330.37        2979.25           1613          51.00       188.75
  330.40        2979.50           1616          52.00       193.11
  330.43        2979.75           1620          62.00       236.71
  330.46        2980.00           1623          52.00       193.11
  330.49        2980.25           1626          53.00       197.47
  330.52        2980.50           1630          44.00       158.24
  330.55        2980.75           1633          54.00       201.83
  330.58        2981.00           1637          56.00       210.55
  330.61        2981.25           1640          57.00       214.91
  330.64        2981.50           1643          46.00       166.96
  330.67        2981.75           1647          52.00       193.11
  330.70        2982.00           1650          52.00       193.11
  330.73        2982.25           1653          48.00       175.68
  330.76        2982.50           1657          42.00       149.52
  330.80        2982.75           1660          54.00       201.83
  330.83        2983.00           1663          49.00       180.04
  330.86        2983.25           1667          47.00       171.32
  330.89        2983.50           1670          54.00       201.83
  330.92        2983.75           1673          48.00       175.68
  330.95        2984.00           1677          58.00       219.27
HS scan finished at 05:31:10
end
************************************************************
  HS Scan of (1) Internal mercury lamp
************************************************************
Integration time is 0.2294 seconds per sample
dh040119Manchester 53.47 2.23 2.804185pr1000
************************************************************
Dead Time -------------------------  3E-08 
Number of Cycles Used -------------  4 
Starting Wavelength (Angstroms) ---  2950 
Final Wavelength (Angstoms) -------  2984 
Wavelength Increment (Angstroms) --  .25 
Filter Wheel #1 Position ---------- (1) Ground quartz diffuser (ND=2.32)
Filter Wheel #2 Position ---------- (1) Neutral Density 0.494



************************************************************
HS scan start time = 17:12:02
Dark Count =  6 


Time (GMT)  Wavelength (Ang)  Step Number  Raw Counts  Counts/Second

 1032.39        2950.00           1222          58.00       226.68
 1032.46        2950.25           1226          47.00       178.73
 1032.49        2950.50           1229          53.00       204.88
 1032.52        2950.75           1232          61.00       239.76
 1032.55        2951.00           1236          59.00       231.04
 1032.58        2951.25           1239          59.00       231.04
 1032.62        2951.50           1242          68.00       270.27
 1032.65        2951.75           1246          56.00       217.96
 1032.68        2952.00           1249          56.00       217.96
 1032.71        2952.25           1252          52.00       200.52
 1032.74        2952.50           1256          56.00       217.96
 1032.77        2952.75           1259          46.00       174.37
 1032.80        2953.00           1262          51.00       196.17
 1032.83        2953.25           1266          51.00       196.17
 1032.86        2953.50           1269          48.00       183.09
 1032.89        2953.75           1272          45.00       170.01
 1032.93        2954.00           1276          57.00       222.32
 1032.96        2954.25           1279          56.00       217.96
 1032.99        2954.50           1282          63.00       248.48
 1033.02        2954.75           1286          59.00       231.04
 1033.05        2955.00           1289          55.00       213.60
 1033.08        2955.25           1292          57.00       222.32
 1033.11        2955.50           1296          59.00       231.04
 1033.14        2955.75           1299          61.00       239.76
 1033.17        2956.00           1302          58.00       226.68
 1033.20        2956.25           1306          51.00       196.17
 1033.24        2956.50           1309          57.00       222.32
 1033.27        2956.75           1312          57.00       222.32
 1033.30        2957.00           1316          51.00       196.17
 1033.33        2957.25           1319          51.00       196.17
 1033.36        2957.50           1322          55.00       213.60
 1033.39        2957.75           1326          58.00       226.68
 1033.42        2958.00           1329          61.00       239.76
 1033.45        2958.25           1332          61.00       239.76
 1033.48        2958.50           1336          59.00       231.04
 1033.51        2958.75           1339          57.00       222.32
 1033.54        2959.00           1342          55.00       213.60
 1033.57        2959.25           1346          55.00       213.60
 1033.60        2959.50           1349          61.00       239.76
 1033.64        2959.75           1352          66.00       261.55
 1033.67        2960.00           1356          84.00       340.02
 1033.70        2960.25           1359         105.00       431.57
 1033.73        2960.50           1362         131.00       544.91
 1033.76        2960.75           1366         181.00       762.88
 1033.79        2961.00           1369         198.00       836.99
 1033.82        2961.25           1372         220.00       932.89
 1033.85        2961.50           1376         275.00      1172.67
 1033.88        2961.75           1379         365.00      1565.03
 1033.91        2962.00           1382         743.00      3213.04
 1033.94        2962.25           1386        1889.00      8210.39
 1033.97        2962.50           1389        3040.00     13231.06
 1034.00        2962.75           1392        4116.00     17925.94
 1034.04        2963.00           1396        5562.00     24237.32
 1034.07        2963.25           1399        6654.00     29005.18
 1034.10        2963.50           1402        7855.00     34250.52
 1034.13        2963.75           1406        9391.00     40961.38
 1034.16        2964.00           1409       10779.00     47027.94
 1034.19        2964.25           1412       11853.00     51723.62
 1034.22        2964.50           1416       13364.00     58332.16
 1034.25        2964.75           1419       14525.00     63411.71
 1034.28        2965.00           1422       15783.00     68917.41
 1034.32        2965.25           1426       17153.00     74915.35
 1034.35        2965.50           1429       18359.00     80197.08
 1034.38        2965.75           1432       19473.00     85077.38
 1034.41        2966.00           1436       20861.00     91160.05
 1034.44        2966.25           1439       21956.00     95960.25
 1034.47        2966.50           1442       23106.00    101003.10
 1034.50        2966.75           1446       24285.00    106174.60
 1034.53        2967.00           1449       24697.00    107982.20
 1034.56        2967.25           1452       24919.00    108956.30
 1034.60        2967.50           1456       24758.00    108249.80
 1034.63        2967.75           1459       24657.00    107806.70
 1034.66        2968.00           1462       24737.00    108157.70
 1034.69        2968.25           1466       24202.00    105810.50
 1034.72        2968.50           1469       23026.00    100652.20
 1034.75        2968.75           1472       22005.00     96175.09
 1034.78        2969.00           1476       20515.00     89643.55
 1034.81        2969.25           1479       19360.00     84582.28
 1034.84        2969.50           1482       18366.00     80227.74
 1034.87        2969.75           1486       16802.00     73378.46
 1034.90        2970.00           1489       15788.00     68939.29
 1034.93        2970.25           1492       14574.00     63626.13
 1034.97        2970.50           1496       12905.00     56324.39
 1035.00        2970.75           1499       11751.00     51277.60
 1035.03        2971.00           1502       10673.00     46564.57
 1035.06        2971.25           1506        9182.00     40048.09
 1035.09        2971.50           1509        7987.00     34827.13
 1035.12        2971.75           1513        6579.00     28677.67
 1035.15        2972.00           1516        5477.00     23866.25
 1035.18        2972.25           1519        4361.00     18995.13
 1035.21        2972.50           1523        2865.00     12467.61
 1035.24        2972.75           1526        1726.00      7499.51
 1035.27        2973.00           1529         816.00      3531.32
 1035.31        2973.25           1533         361.00      1547.59
 1035.34        2973.50           1536         269.00      1146.51
 1035.37        2973.75           1539         224.00       950.33
 1035.40        2974.00           1543         187.00       789.03
 1035.43        2974.25           1546         166.00       697.49
 1035.46        2974.50           1549         129.00       536.19
 1035.49        2974.75           1553          87.00       353.10
 1035.52        2975.00           1556          72.00       287.71
 1035.55        2975.25           1559          58.00       226.68
 1035.58        2975.50           1563          50.00       191.81
 1035.62        2975.75           1566          55.00       213.60
 1035.65        2976.00           1569          53.00       204.88
 1035.68        2976.25           1573          49.00       187.45
 1035.71        2976.50           1576          50.00       191.81
 1035.74        2976.75           1579          43.00       161.29
 1035.77        2977.00           1583          46.00       174.37
 1035.80        2977.25           1586          43.00       161.29
 1035.83        2977.50           1590          52.00       200.52
 1035.86        2977.75           1593          52.00       200.52
 1035.89        2978.00           1596          55.00       213.60
 1035.92        2978.25           1600          52.00       200.52
 1035.95        2978.50           1603          51.00       196.17
 1035.98        2978.75           1606          60.00       235.40
 1036.02        2979.00           1610          49.00       187.45
 1036.05        2979.25           1613          47.00       178.73
 1036.08        2979.50           1616          56.00       217.96
 1036.11        2979.75           1620          48.00       183.09
 1036.14        2980.00           1623          50.00       191.81
 1036.17        2980.25           1626          52.00       200.52
 1036.20        2980.50           1630          42.00       156.93
 1036.23        2980.75           1633          45.00       170.01
 1036.26        2981.00           1637          49.00       187.45
 1036.29        2981.25           1640          51.00       196.17
 1036.33        2981.50           1643          47.00       178.73
 1036.36        2981.75           1647          49.00       187.45
 1036.39        2982.00           1650          56.00       217.96
 1036.42        2982.25           1653          54.00       209.24
 1036.45        2982.50           1657          43.00       161.29
 1036.48        2982.75           1660          45.00       170.01
 1036.51        2983.00           1663          52.00       200.52
 1036.54        2983.25           1667          43.00       161.29
 1036.57        2983.50           1670          56.00       217.96
 1036.60        2983.75           1673          55.00       213.60
 1036.63        2984.00           1677          44.00       165.65
HS scan finished at 17:16:51
end
