************************************************************
  HS Scan of (1) Internal mercury lamp
************************************************************
Integration time is 0.2294 seconds per sample
dh060119Manchester 53.47 2.23 2.804185pr1000
************************************************************
Dead Time -------------------------  3E-08 
Number of Cycles Used -------------  4 
Starting Wavelength (Angstroms) ---  2950 
Final Wavelength (Angstoms) -------  2984 
Wavelength Increment (Angstroms) --  .25 
Filter Wheel #1 Position ---------- (1) Ground quartz diffuser (ND=2.32)
Filter Wheel #2 Position ---------- (1) Neutral Density 0.494



************************************************************
HS scan start time = 05:26:06
Dark Count =  6.7 


Time (GMT)  Wavelength (Ang)  Step Number  Raw Counts  Counts/Second

  326.46        2950.00           1222          59.00       227.99
  326.53        2950.25           1226          58.00       223.63
  326.56        2950.50           1229          53.00       201.83
  326.59        2950.75           1232          52.00       197.47
  326.62        2951.00           1236          54.00       206.19
  326.65        2951.25           1239          53.00       201.83
  326.68        2951.50           1242          54.00       206.19
  326.71        2951.75           1246          61.00       236.71
  326.74        2952.00           1249          57.00       219.27
  326.78        2952.25           1252          54.00       206.19
  326.81        2952.50           1256          59.00       227.99
  326.84        2952.75           1259          48.00       180.04
  326.87        2953.00           1262          54.00       206.19
  326.90        2953.25           1266          48.00       180.04
  326.93        2953.50           1269          52.00       197.47
  326.96        2953.75           1272          67.00       262.86
  326.99        2954.00           1276          51.00       193.11
  327.02        2954.25           1279          51.00       193.11
  327.06        2954.50           1282          56.00       214.91
  327.09        2954.75           1286          56.00       214.91
  327.12        2955.00           1289          53.00       201.83
  327.15        2955.25           1292          54.00       206.19
  327.18        2955.50           1296          59.00       227.99
  327.21        2955.75           1299          59.00       227.99
  327.24        2956.00           1302          57.00       219.27
  327.27        2956.25           1306          48.00       180.04
  327.30        2956.50           1309          54.00       206.19
  327.33        2956.75           1312          57.00       219.27
  327.37        2957.00           1316          54.00       206.19
  327.40        2957.25           1319          59.00       227.99
  327.43        2957.50           1322          74.00       293.38
  327.46        2957.75           1326          57.00       219.27
  327.49        2958.00           1329          52.00       197.47
  327.52        2958.25           1332          56.00       214.91
  327.55        2958.50           1336          51.00       193.11
  327.58        2958.75           1339          57.00       219.27
  327.61        2959.00           1342          54.00       206.19
  327.64        2959.25           1346          56.00       214.91
  327.67        2959.50           1349          64.00       249.78
  327.71        2959.75           1352          68.00       267.22
  327.74        2960.00           1356          79.00       315.17
  327.77        2960.25           1359         112.00       459.03
  327.80        2960.50           1362         137.00       568.01
  327.83        2960.75           1366         173.00       724.95
  327.86        2961.00           1369         212.00       894.97
  327.89        2961.25           1372         243.00      1030.11
  327.92        2961.50           1376         293.00      1248.09
  327.95        2961.75           1379         353.00      1509.66
  327.98        2962.00           1382         754.00      3257.95
  328.01        2962.25           1386        1932.00      8394.88
  328.04        2962.50           1389        3075.00     13380.70
  328.08        2962.75           1392        4155.00     18093.08
  328.11        2963.00           1396        5721.00     24928.40
  328.14        2963.25           1399        6826.00     29753.22
  328.17        2963.50           1402        7940.00     34618.76
  328.20        2963.75           1406        9572.00     41749.29
  328.23        2964.00           1409       10777.00     47016.14
  328.26        2964.25           1412       11930.00     52057.26
  328.29        2964.50           1416       13485.00     58858.42
  328.32        2964.75           1419       14748.00     64384.49
  328.35        2965.00           1422       15977.00     69763.56
  328.38        2965.25           1426       17441.00     76173.45
  328.42        2965.50           1429       18643.00     81438.06
  328.45        2965.75           1432       19831.00     86642.98
  328.48        2966.00           1436       21011.00     91814.46
  328.51        2966.25           1439       22180.00     96939.32
  328.54        2966.50           1442       23389.00    102241.20
  328.57        2966.75           1446       24603.00    107566.70
  328.60        2967.00           1449       25136.00    109905.40
  328.63        2967.25           1452       25227.00    110304.70
  328.66        2967.50           1456       25235.00    110339.80
  328.70        2967.75           1459       25026.00    109422.70
  328.73        2968.00           1462       25230.00    110317.90
  328.76        2968.25           1466       24361.00    106505.00
  328.79        2968.50           1469       23451.00    102513.10
  328.82        2968.75           1472       22227.00     97145.39
  328.85        2969.00           1476       20957.00     91577.76
  328.88        2969.25           1479       19720.00     86156.58
  328.91        2969.50           1482       18556.00     81056.94
  328.94        2969.75           1486       17096.00     74662.71
  328.98        2970.00           1489       16030.00     69995.56
  329.01        2970.25           1492       14856.00     64857.12
  329.04        2970.50           1496       13190.00     57567.95
  329.07        2970.75           1499       11975.00     52254.04
  329.10        2971.00           1502       10868.00     47413.96
  329.13        2971.25           1506        9337.00     40722.35
  329.16        2971.50           1509        8202.00     35763.28
  329.19        2971.75           1513        6734.00     29351.47
  329.22        2972.00           1516        5639.00     24570.42
  329.26        2972.25           1519        4492.00     19563.79
  329.29        2972.50           1523        3045.00     13249.82
  329.32        2972.75           1526        1884.00      8185.53
  329.35        2973.00           1529         893.00      3864.01
  329.38        2973.25           1533         343.00      1466.06
  329.41        2973.50           1536         248.00      1051.91
  329.44        2973.75           1539         209.00       881.89
  329.47        2974.00           1543         183.00       768.54
  329.50        2974.25           1546         141.00       585.45
  329.53        2974.50           1549          92.00       371.84
  329.56        2974.75           1553          81.00       323.89
  329.60        2975.00           1556          64.00       249.78
  329.63        2975.25           1559          57.00       219.27
  329.66        2975.50           1563          41.00       149.52
  329.69        2975.75           1566          57.00       219.27
  329.72        2976.00           1569          49.00       184.40
  329.75        2976.25           1573          50.00       188.75
  329.78        2976.50           1576          40.00       145.16
  329.81        2976.75           1579          51.00       193.11
  329.84        2977.00           1583          50.00       188.75
  329.87        2977.25           1586          46.00       171.32
  329.90        2977.50           1590          56.00       214.91
  329.94        2977.75           1593          54.00       206.19
  329.97        2978.00           1596          51.00       193.11
  330.00        2978.25           1600          55.00       210.55
  330.03        2978.50           1603          54.00       206.19
  330.06        2978.75           1606          51.00       193.11
  330.09        2979.00           1610          51.00       193.11
  330.12        2979.25           1613          54.00       206.19
  330.15        2979.50           1616          50.00       188.75
  330.18        2979.75           1620          57.00       219.27
  330.22        2980.00           1623          52.00       197.47
  330.25        2980.25           1626          41.00       149.52
  330.28        2980.50           1630          50.00       188.75
  330.31        2980.75           1633          51.00       193.11
  330.34        2981.00           1637          43.00       158.24
  330.37        2981.25           1640          41.00       149.52
  330.40        2981.50           1643          46.00       171.32
  330.43        2981.75           1647          53.00       201.83
  330.46        2982.00           1650          53.00       201.83
  330.49        2982.25           1653          60.00       232.35
  330.52        2982.50           1657          53.00       201.83
  330.55        2982.75           1660          50.00       188.75
  330.58        2983.00           1663          49.00       184.40
  330.61        2983.25           1667          43.00       158.24
  330.64        2983.50           1670          49.00       184.40
  330.67        2983.75           1673          50.00       188.75
  330.70        2984.00           1677          52.00       197.47
HS scan finished at 05:30:55
end
************************************************************
  HS Scan of (1) Internal mercury lamp
************************************************************
Integration time is 0.2294 seconds per sample
dh060119Manchester 53.47 2.23 2.804185pr1000
************************************************************
Dead Time -------------------------  3E-08 
Number of Cycles Used -------------  4 
Starting Wavelength (Angstroms) ---  2950 
Final Wavelength (Angstoms) -------  2984 
Wavelength Increment (Angstroms) --  .25 
Filter Wheel #1 Position ---------- (1) Ground quartz diffuser (ND=2.32)
Filter Wheel #2 Position ---------- (1) Neutral Density 0.494



************************************************************
HS scan start time = 17:12:03
Dark Count =  7.3 


Time (GMT)  Wavelength (Ang)  Step Number  Raw Counts  Counts/Second

 1032.43        2950.00           1222          51.00       190.50
 1032.49        2950.25           1226          67.00       260.25
 1032.53        2950.50           1229          58.00       221.01
 1032.56        2950.75           1232          64.00       247.17
 1032.59        2951.00           1236          59.00       225.37
 1032.62        2951.25           1239          51.00       190.50
 1032.65        2951.50           1242          58.00       221.01
 1032.68        2951.75           1246          49.00       181.78
 1032.71        2952.00           1249          54.00       203.58
 1032.74        2952.25           1252          55.00       207.94
 1032.77        2952.50           1256          55.00       207.94
 1032.80        2952.75           1259          62.00       238.45
 1032.83        2953.00           1262          55.00       207.94
 1032.86        2953.25           1266          45.00       164.34
 1032.89        2953.50           1269          46.00       168.70
 1032.93        2953.75           1272          52.00       194.86
 1032.96        2954.00           1276          57.00       216.65
 1032.99        2954.25           1279          61.00       234.09
 1033.02        2954.50           1282          55.00       207.94
 1033.05        2954.75           1286          56.00       212.29
 1033.08        2955.00           1289          58.00       221.01
 1033.11        2955.25           1292          61.00       234.09
 1033.14        2955.50           1296          53.00       199.22
 1033.17        2955.75           1299          55.00       207.94
 1033.20        2956.00           1302          54.00       203.58
 1033.23        2956.25           1306          61.00       234.09
 1033.26        2956.50           1309          52.00       194.86
 1033.29        2956.75           1312          65.00       251.53
 1033.32        2957.00           1316          68.00       264.61
 1033.35        2957.25           1319          47.00       173.06
 1033.39        2957.50           1322          57.00       216.65
 1033.42        2957.75           1326          51.00       190.50
 1033.45        2958.00           1329          49.00       181.78
 1033.48        2958.25           1332          55.00       207.94
 1033.51        2958.50           1336          61.00       234.09
 1033.54        2958.75           1339          49.00       181.78
 1033.57        2959.00           1342          51.00       190.50
 1033.60        2959.25           1346          61.00       234.09
 1033.63        2959.50           1349          61.00       234.09
 1033.66        2959.75           1352          76.00       299.48
 1033.69        2960.00           1356          96.00       386.67
 1033.73        2960.25           1359         120.00       491.29
 1033.76        2960.50           1362         163.00       678.74
 1033.79        2960.75           1366         193.00       809.52
 1033.82        2961.00           1369         221.00       931.59
 1033.85        2961.25           1372         247.00      1044.93
 1033.88        2961.50           1376         307.00      1306.50
 1033.91        2961.75           1379         421.00      1803.50
 1033.94        2962.00           1382         884.00      3822.15
 1033.97        2962.25           1386        2116.00      9194.78
 1034.00        2962.50           1389        3273.00     14241.92
 1034.03        2962.75           1392        4332.00     18862.90
 1034.06        2963.00           1396        5755.00     25074.22
 1034.10        2963.25           1399        6912.00     30126.17
 1034.13        2963.50           1402        8030.00     35009.29
 1034.16        2963.75           1406        9524.00     41536.91
 1034.19        2964.00           1409       10711.00     46725.00
 1034.22        2964.25           1412       12033.00     52505.05
 1034.25        2964.50           1416       13717.00     59870.74
 1034.28        2964.75           1419       14815.00     64675.07
 1034.31        2965.00           1422       15990.00     69817.85
 1034.34        2965.25           1426       17716.00     77375.13
 1034.37        2965.50           1429       18663.00     81523.03
 1034.41        2965.75           1432       19854.00     86741.12
 1034.44        2966.00           1436       21274.00     92964.66
 1034.47        2966.25           1439       22424.00     98006.56
 1034.50        2966.50           1442       23515.00    102791.20
 1034.53        2966.75           1446       24726.00    108103.70
 1034.56        2967.00           1449       24753.00    108222.20
 1034.59        2967.25           1452       24960.00    109130.50
 1034.62        2967.50           1456       24893.00    108836.50
 1034.65        2967.75           1459       24904.00    108884.70
 1034.69        2968.00           1462       24757.00    108239.80
 1034.72        2968.25           1466       24168.00    105655.60
 1034.75        2968.50           1469       23043.00    100721.10
 1034.78        2968.75           1472       22069.00     96449.99
 1034.81        2969.00           1476       20585.00     89944.64
 1034.84        2969.25           1479       19612.00     85680.72
 1034.87        2969.50           1482       18280.00     79845.35
 1034.90        2969.75           1486       16789.00     73315.83
 1034.93        2970.00           1489       15703.00     68561.54
 1034.96        2970.25           1492       14458.00     63112.85
 1035.00        2970.50           1496       13003.00     56747.36
 1035.03        2970.75           1499       11861.00     51752.92
 1035.06        2971.00           1502       10725.00     46786.20
 1035.09        2971.25           1506        9176.00     40016.19
 1035.12        2971.50           1509        8018.00     34956.87
 1035.15        2971.75           1513        6585.00     28698.19
 1035.18        2972.00           1516        5409.00     23563.73
 1035.21        2972.25           1519        4282.00     18644.69
 1035.24        2972.50           1523        2837.00     12339.79
 1035.28        2972.75           1526        1747.00      7585.42
 1035.31        2973.00           1529         788.00      3403.57
 1035.34        2973.25           1533         333.00      1419.85
 1035.37        2973.50           1536         266.00      1127.76
 1035.40        2973.75           1539         207.00       870.55
 1035.43        2974.00           1543         171.00       713.62
 1035.46        2974.25           1546         145.00       600.27
 1035.49        2974.50           1549         104.00       421.54
 1035.52        2974.75           1553          90.00       360.51
 1035.55        2975.00           1556          71.00       277.68
 1035.58        2975.25           1559          55.00       207.94
 1035.61        2975.50           1563          58.00       221.01
 1035.64        2975.75           1566          52.00       194.86
 1035.68        2976.00           1569          53.00       199.22
 1035.71        2976.25           1573          65.00       251.53
 1035.74        2976.50           1576          54.00       203.58
 1035.77        2976.75           1579          49.00       181.78
 1035.80        2977.00           1583          47.00       173.06
 1035.83        2977.25           1586          52.00       194.86
 1035.86        2977.50           1590          51.00       190.50
 1035.89        2977.75           1593          43.00       155.62
 1035.92        2978.00           1596          51.00       190.50
 1035.95        2978.25           1600          56.00       212.29
 1035.98        2978.50           1603          49.00       181.78
 1036.01        2978.75           1606          47.00       173.06
 1036.04        2979.00           1610          52.00       194.86
 1036.08        2979.25           1613          47.00       173.06
 1036.11        2979.50           1616          54.00       203.58
 1036.14        2979.75           1620          49.00       181.78
 1036.17        2980.00           1623          48.00       177.42
 1036.20        2980.25           1626          69.00       268.96
 1036.23        2980.50           1630          49.00       181.78
 1036.26        2980.75           1633          45.00       164.34
 1036.29        2981.00           1637          50.00       186.14
 1036.32        2981.25           1640          40.00       142.55
 1036.36        2981.50           1643          45.00       164.34
 1036.39        2981.75           1647          45.00       164.34
 1036.42        2982.00           1650          62.00       238.45
 1036.45        2982.25           1653          52.00       194.86
 1036.48        2982.50           1657          55.00       207.94
 1036.51        2982.75           1660          46.00       168.70
 1036.54        2983.00           1663          52.00       194.86
 1036.57        2983.25           1667          47.00       173.06
 1036.60        2983.50           1670          48.00       177.42
 1036.63        2983.75           1673          51.00       190.50
 1036.67        2984.00           1677          52.00       194.86
HS scan finished at 17:16:53
end
