************************************************************
  HS Scan of (1) Internal mercury lamp
************************************************************
Integration time is 0.2294 seconds per sample
dh090117Manchester 53.47 2.23 2.804185pr1000
************************************************************
Dead Time -------------------------  3E-08 
Number of Cycles Used -------------  4 
Starting Wavelength (Angstroms) ---  2950 
Final Wavelength (Angstoms) -------  2984 
Wavelength Increment (Angstroms) --  .25 
Filter Wheel #1 Position ---------- (1) Ground quartz diffuser (ND=2.32)
Filter Wheel #2 Position ---------- (1) Neutral Density 0.494



************************************************************
HS scan start time = 05:25:13
Dark Count =  5.8 


Time (GMT)  Wavelength (Ang)  Step Number  Raw Counts  Counts/Second

  325.59        2950.00           1222          45.00       170.88
  325.66        2950.25           1226          46.00       175.24
  325.69        2950.50           1229          55.00       214.47
  325.72        2950.75           1232          44.00       166.52
  325.75        2951.00           1236          46.00       175.24
  325.78        2951.25           1239          49.00       188.32
  325.81        2951.50           1242          41.00       153.44
  325.85        2951.75           1246          39.00       144.73
  325.88        2952.00           1249          46.00       175.24
  325.91        2952.25           1252          41.00       153.44
  325.94        2952.50           1256          47.00       179.60
  325.97        2952.75           1259          37.00       136.01
  326.00        2953.00           1262          43.00       162.16
  326.03        2953.25           1266          49.00       188.32
  326.06        2953.50           1269          36.00       131.65
  326.09        2953.75           1272          45.00       170.88
  326.12        2954.00           1276          42.00       157.80
  326.15        2954.25           1279          42.00       157.80
  326.18        2954.50           1282          50.00       192.68
  326.21        2954.75           1286          45.00       170.88
  326.25        2955.00           1289          46.00       175.24
  326.28        2955.25           1292          42.00       157.80
  326.31        2955.50           1296          48.00       183.96
  326.34        2955.75           1299          44.00       166.52
  326.37        2956.00           1302          37.00       136.01
  326.40        2956.25           1306          39.00       144.73
  326.43        2956.50           1309          51.00       197.04
  326.46        2956.75           1312          44.00       166.52
  326.49        2957.00           1316          43.00       162.16
  326.52        2957.25           1319          42.00       157.80
  326.55        2957.50           1322          49.00       188.32
  326.58        2957.75           1326          50.00       192.68
  326.61        2958.00           1329          48.00       183.96
  326.64        2958.25           1332          47.00       179.60
  326.67        2958.50           1336          42.00       157.80
  326.70        2958.75           1339          56.00       218.83
  326.73        2959.00           1342          43.00       162.16
  326.77        2959.25           1346          51.00       197.04
  326.80        2959.50           1349          51.00       197.04
  326.83        2959.75           1352          51.00       197.04
  326.86        2960.00           1356          75.00       301.66
  326.89        2960.25           1359         107.00       441.16
  326.92        2960.50           1362         133.00       554.50
  326.95        2960.75           1366         205.00       868.37
  326.98        2961.00           1369         251.00      1068.91
  327.01        2961.25           1372         281.00      1199.69
  327.04        2961.50           1376         388.00      1666.17
  327.07        2961.75           1379         582.00      2511.96
  327.11        2962.00           1382        1180.00      5119.36
  327.14        2962.25           1386        2886.00     12560.09
  327.17        2962.50           1389        4450.00     19384.42
  327.20        2962.75           1392        6098.00     26578.29
  327.23        2963.00           1396        8340.00     36370.10
  327.26        2963.25           1399        9746.00     42513.65
  327.29        2963.50           1402       11458.00     49997.35
  327.32        2963.75           1406       13829.00     60367.30
  327.35        2964.00           1409       15732.00     68695.04
  327.38        2964.25           1412       17515.00     76501.44
  327.42        2964.50           1416       19499.00     85192.18
  327.45        2964.75           1419       21150.00     92427.68
  327.48        2965.00           1422       23052.00    100767.10
  327.51        2965.25           1426       24860.00    108698.30
  327.54        2965.50           1429       26551.00    116119.60
  327.57        2965.75           1432       28256.00    123605.70
  327.60        2966.00           1436       30343.00    132773.70
  327.63        2966.25           1439       32201.00    140939.90
  327.66        2966.50           1442       33854.00    148208.50
  327.69        2966.75           1446       35304.00    154587.10
  327.72        2967.00           1449       35840.00    156945.60
  327.76        2967.25           1452       36008.00    157684.90
  327.79        2967.50           1456       35793.00    156738.80
  327.82        2967.75           1459       35794.00    156743.20
  327.85        2968.00           1462       35652.00    156118.30
  327.88        2968.25           1466       34875.00    152699.70
  327.91        2968.50           1469       33754.00    147768.70
  327.94        2968.75           1472       32330.00    141507.00
  327.97        2969.00           1476       30093.00    131675.20
  328.00        2969.25           1479       28519.00    124760.80
  328.04        2969.50           1482       26817.00    117287.30
  328.07        2969.75           1486       24549.00    107333.70
  328.10        2970.00           1489       22911.00    100148.70
  328.13        2970.25           1492       21192.00     92611.79
  328.16        2970.50           1496       19050.00     83224.97
  328.19        2970.75           1499       17400.00     75997.83
  328.22        2971.00           1502       15915.00     69496.10
  328.25        2971.25           1506       13708.00     59837.93
  328.28        2971.50           1509       11864.00     51772.59
  328.32        2971.75           1513        9923.00     43287.22
  328.35        2972.00           1516        8298.00     36186.61
  328.38        2972.25           1519        6738.00     29372.87
  328.41        2972.50           1523        4553.00     19833.95
  328.44        2972.75           1526        2946.00     12821.85
  328.47        2973.00           1529        1494.00      6488.62
  328.50        2973.25           1533         579.00      2498.88
  328.53        2973.50           1536         396.00      1701.05
  328.56        2973.75           1539         353.00      1513.58
  328.59        2974.00           1543         278.00      1186.62
  328.63        2974.25           1546         218.00       925.05
  328.66        2974.50           1549         161.00       676.56
  328.69        2974.75           1553         106.00       436.80
  328.72        2975.00           1556          76.00       306.02
  328.75        2975.25           1559          58.00       227.55
  328.78        2975.50           1563          50.00       192.68
  328.81        2975.75           1566          44.00       166.52
  328.84        2976.00           1569          50.00       192.68
  328.87        2976.25           1573          52.00       201.40
  328.90        2976.50           1576          47.00       179.60
  328.93        2976.75           1579          48.00       183.96
  328.96        2977.00           1583          51.00       197.04
  329.00        2977.25           1586          51.00       197.04
  329.03        2977.50           1590          48.00       183.96
  329.06        2977.75           1593          43.00       162.16
  329.09        2978.00           1596          37.00       136.01
  329.12        2978.25           1600          40.00       149.09
  329.15        2978.50           1603          46.00       175.24
  329.18        2978.75           1606          49.00       188.32
  329.21        2979.00           1610          36.00       131.65
  329.24        2979.25           1613          41.00       153.44
  329.27        2979.50           1616          42.00       157.80
  329.30        2979.75           1620          41.00       153.44
  329.33        2980.00           1623          47.00       179.60
  329.36        2980.25           1626          48.00       183.96
  329.39        2980.50           1630          44.00       166.52
  329.42        2980.75           1633          48.00       183.96
  329.46        2981.00           1637          43.00       162.16
  329.49        2981.25           1640          50.00       192.68
  329.52        2981.50           1643          49.00       188.32
  329.55        2981.75           1647          38.00       140.37
  329.58        2982.00           1650          41.00       153.44
  329.61        2982.25           1653          43.00       162.16
  329.64        2982.50           1657          41.00       153.44
  329.67        2982.75           1660          39.00       144.73
  329.70        2983.00           1663          46.00       175.24
  329.73        2983.25           1667          42.00       157.80
  329.76        2983.50           1670          35.00       127.29
  329.80        2983.75           1673          46.00       175.24
  329.83        2984.00           1677          47.00       179.60
HS scan finished at 05:30:03
end
************************************************************
  HS Scan of (1) Internal mercury lamp
************************************************************
Integration time is 0.2294 seconds per sample
dh090117Manchester 53.47 2.23 2.750537pr1000
************************************************************
Dead Time -------------------------  3E-08 
Number of Cycles Used -------------  4 
Starting Wavelength (Angstroms) ---  2950 
Final Wavelength (Angstoms) -------  2984 
Wavelength Increment (Angstroms) --  .25 
Filter Wheel #1 Position ---------- (1) Ground quartz diffuser (ND=2.32)
Filter Wheel #2 Position ---------- (1) Neutral Density 0.494



************************************************************
HS scan start time = 17:12:03
Dark Count =  5 


Time (GMT)  Wavelength (Ang)  Step Number  Raw Counts  Counts/Second

 1032.41        2950.00           1222          46.00       178.73
 1032.48        2950.25           1226          48.00       187.45
 1032.51        2950.50           1229          47.00       183.09
 1032.54        2950.75           1232          44.00       170.01
 1032.57        2951.00           1236          41.00       156.93
 1032.60        2951.25           1239          52.00       204.88
 1032.63        2951.50           1242          52.00       204.88
 1032.66        2951.75           1246          40.00       152.57
 1032.69        2952.00           1249          42.00       161.29
 1032.72        2952.25           1252          51.00       200.52
 1032.75        2952.50           1256          44.00       170.01
 1032.79        2952.75           1259          43.00       165.65
 1032.82        2953.00           1262          38.00       143.85
 1032.85        2953.25           1266          43.00       165.65
 1032.88        2953.50           1269          44.00       170.01
 1032.91        2953.75           1272          48.00       187.45
 1032.94        2954.00           1276          38.00       143.85
 1032.97        2954.25           1279          46.00       178.73
 1033.00        2954.50           1282          45.00       174.37
 1033.03        2954.75           1286          46.00       178.73
 1033.06        2955.00           1289          42.00       161.29
 1033.09        2955.25           1292          41.00       156.93
 1033.12        2955.50           1296          42.00       161.29
 1033.15        2955.75           1299          44.00       170.01
 1033.18        2956.00           1302          45.00       174.37
 1033.22        2956.25           1306          53.00       209.24
 1033.25        2956.50           1309          44.00       170.01
 1033.28        2956.75           1312          44.00       170.01
 1033.31        2957.00           1316          45.00       174.37
 1033.34        2957.25           1319          40.00       152.57
 1033.37        2957.50           1322          44.00       170.01
 1033.40        2957.75           1326          44.00       170.01
 1033.43        2958.00           1329          52.00       204.88
 1033.46        2958.25           1332          42.00       161.29
 1033.49        2958.50           1336          44.00       170.01
 1033.52        2958.75           1339          44.00       170.01
 1033.55        2959.00           1342          45.00       174.37
 1033.58        2959.25           1346          62.00       248.48
 1033.62        2959.50           1349          66.00       265.91
 1033.65        2959.75           1352          62.00       248.48
 1033.68        2960.00           1356          99.00       409.77
 1033.71        2960.25           1359         143.00       601.58
 1033.74        2960.50           1362         196.00       832.63
 1033.77        2960.75           1366         243.00      1037.52
 1033.80        2961.00           1369         284.00      1216.26
 1033.83        2961.25           1372         317.00      1360.13
 1033.86        2961.50           1376         400.00      1721.97
 1033.90        2961.75           1379         598.00      2585.21
 1033.93        2962.00           1382        1203.00      5223.14
 1033.96        2962.25           1386        2802.00     12197.14
 1033.99        2962.50           1389        4458.00     19422.82
 1034.02        2962.75           1392        6066.00     26442.07
 1034.05        2963.00           1396        8190.00     35718.29
 1034.08        2963.25           1399        9706.00     42342.33
 1034.11        2963.50           1402       11394.00     49721.02
 1034.14        2963.75           1406       13809.00     60283.30
 1034.17        2964.00           1409       15396.00     67227.87
 1034.20        2964.25           1412       17349.00     75778.00
 1034.23        2964.50           1416       19595.00     85616.31
 1034.26        2964.75           1419       21174.00     92536.39
 1034.30        2965.00           1422       22970.00    100411.00
 1034.33        2965.25           1426       25149.00    109969.90
 1034.36        2965.50           1429       26969.00    117958.10
 1034.39        2965.75           1432       28453.00    124474.40
 1034.42        2966.00           1436       30488.00    133414.40
 1034.45        2966.25           1439       32190.00    140895.10
 1034.48        2966.50           1442       33834.00    148124.10
 1034.51        2966.75           1446       35215.00    154199.00
 1034.54        2967.00           1449       35392.00    154977.80
 1034.58        2967.25           1452       35673.00    156214.30
 1034.61        2967.50           1456       35671.00    156205.50
 1034.64        2967.75           1459       35499.00    155448.60
 1034.67        2968.00           1462       35302.00    154581.80
 1034.70        2968.25           1466       34218.00    149813.10
 1034.73        2968.50           1469       32627.00    142816.40
 1034.76        2968.75           1472       30821.00    134877.70
 1034.79        2969.00           1476       28948.00    126648.60
 1034.82        2969.25           1479       27414.00    119911.90
 1034.85        2969.50           1482       25645.00    112146.50
 1034.89        2969.75           1486       23654.00    103411.00
 1034.92        2970.00           1489       21926.00     95833.10
 1034.95        2970.25           1492       20359.00     88964.24
 1034.98        2970.50           1496       18126.00     79180.90
 1035.01        2970.75           1499       16527.00     72178.80
 1035.04        2971.00           1502       14750.00     64400.68
 1035.07        2971.25           1506       12614.00     55055.99
 1035.10        2971.50           1509       10896.00     47543.79
 1035.13        2971.75           1513        8948.00     39029.98
 1035.16        2972.00           1516        7228.00     31516.27
 1035.20        2972.25           1519        5661.00     24673.88
 1035.23        2972.50           1523        3627.00     15796.50
 1035.26        2972.75           1526        2169.00      9435.98
 1035.29        2973.00           1529         944.00      4093.79
 1035.32        2973.25           1533         444.00      1913.80
 1035.35        2973.50           1536         344.00      1477.83
 1035.38        2973.75           1539         259.00      1107.27
 1035.41        2974.00           1543         233.00       993.93
 1035.44        2974.25           1546         176.00       745.44
 1035.47        2974.50           1549         131.00       549.27
 1035.50        2974.75           1553          91.00       374.90
 1035.53        2975.00           1556          64.00       257.19
 1035.56        2975.25           1559          58.00       231.04
 1035.59        2975.50           1563          50.00       196.17
 1035.62        2975.75           1566          47.00       183.09
 1035.66        2976.00           1569          47.00       183.09
 1035.69        2976.25           1573          50.00       196.17
 1035.72        2976.50           1576          45.00       174.37
 1035.75        2976.75           1579          45.00       174.37
 1035.78        2977.00           1583          39.00       148.21
 1035.81        2977.25           1586          51.00       200.52
 1035.84        2977.50           1590          47.00       183.09
 1035.87        2977.75           1593          47.00       183.09
 1035.90        2978.00           1596          58.00       231.04
 1035.93        2978.25           1600          43.00       165.65
 1035.96        2978.50           1603          44.00       170.01
 1036.00        2978.75           1606          46.00       178.73
 1036.03        2979.00           1610          39.00       148.21
 1036.06        2979.25           1613          41.00       156.93
 1036.09        2979.50           1616          45.00       174.37
 1036.12        2979.75           1620          44.00       170.01
 1036.15        2980.00           1623          46.00       178.73
 1036.18        2980.25           1626          42.00       161.29
 1036.21        2980.50           1630          47.00       183.09
 1036.24        2980.75           1633          45.00       174.37
 1036.27        2981.00           1637          40.00       152.57
 1036.30        2981.25           1640          41.00       156.93
 1036.33        2981.50           1643          45.00       174.37
 1036.36        2981.75           1647          42.00       161.29
 1036.39        2982.00           1650          46.00       178.73
 1036.42        2982.25           1653          40.00       152.57
 1036.46        2982.50           1657          42.00       161.29
 1036.49        2982.75           1660          43.00       165.65
 1036.52        2983.00           1663          43.00       165.65
 1036.55        2983.25           1667          40.00       152.57
 1036.58        2983.50           1670          37.00       139.49
 1036.61        2983.75           1673          40.00       152.57
 1036.64        2984.00           1677          41.00       156.93
HS scan finished at 17:16:51
end
