************************************************************
  HS Scan of (1) Internal mercury lamp
************************************************************
Integration time is 0.2294 seconds per sample
dh030117Manchester 53.47 2.23 2.750537pr1000
************************************************************
Dead Time -------------------------  3E-08 
Number of Cycles Used -------------  4 
Starting Wavelength (Angstroms) ---  2950 
Final Wavelength (Angstoms) -------  2984 
Wavelength Increment (Angstroms) --  .25 
Filter Wheel #1 Position ---------- (1) Ground quartz diffuser (ND=2.32)
Filter Wheel #2 Position ---------- (1) Neutral Density 0.494



************************************************************
HS scan start time = 05:26:21
Dark Count =  6 


Time (GMT)  Wavelength (Ang)  Step Number  Raw Counts  Counts/Second

  326.72        2950.00           1222          40.00       148.21
  326.79        2950.25           1226          43.00       161.29
  326.82        2950.50           1229          45.00       170.01
  326.85        2950.75           1232          49.00       187.45
  326.88        2951.00           1236          39.00       143.85
  326.91        2951.25           1239          55.00       213.60
  326.94        2951.50           1242          50.00       191.81
  326.97        2951.75           1246          37.00       135.14
  327.00        2952.00           1249          44.00       165.65
  327.04        2952.25           1252          44.00       165.65
  327.07        2952.50           1256          40.00       148.21
  327.10        2952.75           1259          47.00       178.73
  327.13        2953.00           1262          39.00       143.85
  327.16        2953.25           1266          41.00       152.57
  327.19        2953.50           1269          44.00       165.65
  327.22        2953.75           1272          43.00       161.29
  327.25        2954.00           1276          45.00       170.01
  327.28        2954.25           1279          46.00       174.37
  327.31        2954.50           1282          42.00       156.93
  327.34        2954.75           1286          51.00       196.17
  327.37        2955.00           1289          44.00       165.65
  327.41        2955.25           1292          42.00       156.93
  327.44        2955.50           1296          44.00       165.65
  327.47        2955.75           1299          47.00       178.73
  327.50        2956.00           1302          43.00       161.29
  327.53        2956.25           1306          51.00       196.17
  327.56        2956.50           1309          43.00       161.29
  327.59        2956.75           1312          47.00       178.73
  327.62        2957.00           1316          39.00       143.85
  327.65        2957.25           1319          48.00       183.09
  327.68        2957.50           1322          43.00       161.29
  327.72        2957.75           1326          54.00       209.24
  327.75        2958.00           1329          50.00       191.81
  327.78        2958.25           1332          39.00       143.85
  327.81        2958.50           1336          41.00       152.57
  327.84        2958.75           1339          38.00       139.49
  327.87        2959.00           1342          42.00       156.93
  327.90        2959.25           1346          46.00       174.37
  327.93        2959.50           1349          49.00       187.45
  327.96        2959.75           1352          56.00       217.96
  327.99        2960.00           1356          86.00       348.74
  328.02        2960.25           1359         111.00       457.72
  328.05        2960.50           1362         142.00       592.86
  328.08        2960.75           1366         200.00       845.71
  328.12        2961.00           1369         241.00      1024.44
  328.15        2961.25           1372         290.00      1238.06
  328.18        2961.50           1376         369.00      1582.46
  328.21        2961.75           1379         584.00      2519.81
  328.24        2962.00           1382        1163.00      5044.36
  328.27        2962.25           1386        2767.00     12040.10
  328.30        2962.50           1389        4481.00     19518.84
  328.33        2962.75           1392        5999.00     26145.17
  328.36        2963.00           1396        8054.00     35119.81
  328.39        2963.25           1399        9668.00     42171.89
  328.42        2963.50           1402       11340.00     49480.54
  328.45        2963.75           1406       13891.00     60637.67
  328.49        2964.00           1409       15686.00     68492.81
  328.52        2964.25           1412       17217.00     75195.60
  328.55        2964.50           1416       19680.00     85984.38
  328.58        2964.75           1419       21229.00     92773.11
  328.61        2965.00           1422       22873.00     99981.22
  328.64        2965.25           1426       25258.00    110443.80
  328.67        2965.50           1429       26923.00    117751.80
  328.70        2965.75           1432       28417.00    124311.90
  328.73        2966.00           1436       31027.00    135778.60
  328.77        2966.25           1439       32545.00    142451.40
  328.80        2966.50           1442       34170.00    149597.50
  328.83        2966.75           1446       35606.00    155915.00
  328.86        2967.00           1449       36108.00    158124.10
  328.89        2967.25           1452       36299.00    158964.70
  328.92        2967.50           1456       36174.00    158414.50
  328.95        2967.75           1459       36113.00    158146.10
  328.98        2968.00           1462       36099.00    158084.50
  329.01        2968.25           1466       35099.00    153684.30
  329.05        2968.50           1469       33743.00    147719.40
  329.08        2968.75           1472       32352.00    141602.90
  329.11        2969.00           1476       30123.00    131806.10
  329.14        2969.25           1479       28553.00    124909.20
  329.17        2969.50           1482       26815.00    117277.60
  329.20        2969.75           1486       24436.00    106837.10
  329.23        2970.00           1489       22760.00     99485.68
  329.26        2970.25           1492       21067.00     92062.99
  329.29        2970.50           1496       18985.00     82939.33
  329.33        2970.75           1499       17323.00     75659.78
  329.36        2971.00           1502       15660.00     68379.01
  329.39        2971.25           1506       13686.00     59740.81
  329.42        2971.50           1509       11886.00     51867.92
  329.45        2971.75           1513        9860.00     43011.00
  329.48        2972.00           1516        8258.00     36010.99
  329.51        2972.25           1519        6460.00     28158.04
  329.54        2972.50           1523        4296.00     18711.46
  329.57        2972.75           1526        2627.00     11429.38
  329.60        2973.00           1529        1291.00      5602.51
  329.63        2973.25           1533         517.00      2227.70
  329.67        2973.50           1536         344.00      1473.47
  329.70        2973.75           1539         304.00      1299.09
  329.73        2974.00           1543         252.00      1072.40
  329.76        2974.25           1546         174.00       732.36
  329.79        2974.50           1549         148.00       619.02
  329.82        2974.75           1553          96.00       392.33
  329.85        2975.00           1556          71.00       283.35
  329.88        2975.25           1559          63.00       248.48
  329.91        2975.50           1563          51.00       196.17
  329.94        2975.75           1566          48.00       183.09
  329.97        2976.00           1569          52.00       200.52
  330.01        2976.25           1573          48.00       183.09
  330.04        2976.50           1576          45.00       170.01
  330.07        2976.75           1579          36.00       130.78
  330.10        2977.00           1583          45.00       170.01
  330.13        2977.25           1586          47.00       178.73
  330.16        2977.50           1590          49.00       187.45
  330.19        2977.75           1593          46.00       174.37
  330.22        2978.00           1596          49.00       187.45
  330.25        2978.25           1600          42.00       156.93
  330.28        2978.50           1603          41.00       152.57
  330.31        2978.75           1606          44.00       165.65
  330.34        2979.00           1610          46.00       174.37
  330.37        2979.25           1613          48.00       183.09
  330.41        2979.50           1616          43.00       161.29
  330.44        2979.75           1620          50.00       191.81
  330.47        2980.00           1623          45.00       170.01
  330.50        2980.25           1626          55.00       213.60
  330.53        2980.50           1630          43.00       161.29
  330.56        2980.75           1633          49.00       187.45
  330.59        2981.00           1637          43.00       161.29
  330.62        2981.25           1640          42.00       156.93
  330.65        2981.50           1643          44.00       165.65
  330.68        2981.75           1647          49.00       187.45
  330.71        2982.00           1650          40.00       148.21
  330.74        2982.25           1653          46.00       174.37
  330.77        2982.50           1657          38.00       139.49
  330.80        2982.75           1660          42.00       156.93
  330.84        2983.00           1663          37.00       135.14
  330.87        2983.25           1667          39.00       143.85
  330.90        2983.50           1670          43.00       161.29
  330.93        2983.75           1673          39.00       143.85
  330.96        2984.00           1677          51.00       196.17
HS scan finished at 05:31:11
end
************************************************************
  HS Scan of (1) Internal mercury lamp
************************************************************
Integration time is 0.2294 seconds per sample
dh030117Manchester 53.47 2.23 2.750537pr1000
************************************************************
Dead Time -------------------------  3E-08 
Number of Cycles Used -------------  4 
Starting Wavelength (Angstroms) ---  2950 
Final Wavelength (Angstoms) -------  2984 
Wavelength Increment (Angstroms) --  .25 
Filter Wheel #1 Position ---------- (1) Ground quartz diffuser (ND=2.32)
Filter Wheel #2 Position ---------- (1) Neutral Density 0.494



************************************************************
HS scan start time = 17:12:05
Dark Count =  6.8 


Time (GMT)  Wavelength (Ang)  Step Number  Raw Counts  Counts/Second

 1032.45        2950.00           1222          45.00       166.52
 1032.51        2950.25           1226          43.00       157.80
 1032.55        2950.50           1229          41.00       149.09
 1032.58        2950.75           1232          46.00       170.88
 1032.61        2951.00           1236          42.00       153.44
 1032.64        2951.25           1239          48.00       179.60
 1032.67        2951.50           1242          46.00       170.88
 1032.70        2951.75           1246          47.00       175.24
 1032.73        2952.00           1249          36.00       127.29
 1032.76        2952.25           1252          40.00       144.73
 1032.79        2952.50           1256          44.00       162.16
 1032.82        2952.75           1259          39.00       140.37
 1032.86        2953.00           1262          50.00       188.32
 1032.89        2953.25           1266          42.00       153.44
 1032.92        2953.50           1269          52.00       197.04
 1032.95        2953.75           1272          49.00       183.96
 1032.98        2954.00           1276          44.00       162.16
 1033.01        2954.25           1279          48.00       179.60
 1033.04        2954.50           1282          48.00       179.60
 1033.07        2954.75           1286          43.00       157.80
 1033.10        2955.00           1289          43.00       157.80
 1033.13        2955.25           1292          56.00       214.47
 1033.16        2955.50           1296          35.00       122.93
 1033.20        2955.75           1299          45.00       166.52
 1033.23        2956.00           1302          41.00       149.09
 1033.26        2956.25           1306          43.00       157.80
 1033.29        2956.50           1309          45.00       166.52
 1033.32        2956.75           1312          40.00       144.73
 1033.35        2957.00           1316          41.00       149.09
 1033.38        2957.25           1319          44.00       162.16
 1033.41        2957.50           1322          60.00       231.91
 1033.44        2957.75           1326          49.00       183.96
 1033.47        2958.00           1329          46.00       170.88
 1033.51        2958.25           1332          43.00       157.80
 1033.54        2958.50           1336          47.00       175.24
 1033.57        2958.75           1339          55.00       210.11
 1033.60        2959.00           1342          46.00       170.88
 1033.63        2959.25           1346          44.00       162.16
 1033.66        2959.50           1349          53.00       201.40
 1033.69        2959.75           1352          58.00       223.19
 1033.72        2960.00           1356          88.00       353.97
 1033.75        2960.25           1359         117.00       480.39
 1033.78        2960.50           1362         149.00       619.89
 1033.81        2960.75           1366         213.00       898.89
 1033.84        2961.00           1369         242.00      1025.31
 1033.88        2961.25           1372         298.00      1269.45
 1033.91        2961.50           1376         392.00      1679.25
 1033.94        2961.75           1379         534.00      2298.33
 1033.97        2962.00           1382        1094.00      4739.99
 1034.00        2962.25           1386        2748.00     11953.72
 1034.03        2962.50           1389        4280.00     18638.15
 1034.06        2962.75           1392        5922.00     25805.50
 1034.09        2963.00           1396        7965.00     34727.53
 1034.12        2963.25           1399        9658.00     42124.70
 1034.16        2963.50           1402       11359.00     49560.12
 1034.19        2963.75           1406       13630.00     59492.32
 1034.22        2964.00           1409       15242.00     66545.98
 1034.25        2964.25           1412       16980.00     74154.32
 1034.28        2964.50           1416       19336.00     84473.60
 1034.31        2964.75           1419       20819.00     90972.44
 1034.34        2965.00           1422       22615.00     98846.30
 1034.37        2965.25           1426       24875.00    108759.70
 1034.40        2965.50           1429       26426.00    115566.50
 1034.44        2965.75           1432       28304.00    123812.10
 1034.47        2966.00           1436       30319.00    132663.80
 1034.50        2966.25           1439       31692.00    138698.00
 1034.53        2966.50           1442       33176.00    145222.40
 1034.56        2966.75           1446       34951.00    153029.60
 1034.59        2967.00           1449       35420.00    155093.10
 1034.62        2967.25           1452       35740.00    156501.10
 1034.65        2967.50           1456       35516.00    155515.50
 1034.68        2967.75           1459       35528.00    155568.30
 1034.71        2968.00           1462       35390.00    154961.10
 1034.75        2968.25           1466       34451.00    150830.00
 1034.78        2968.50           1469       33099.00    144883.80
 1034.81        2968.75           1472       31573.00    138174.90
 1034.84        2969.00           1476       29360.00    128450.40
 1034.87        2969.25           1479       27746.00    121361.70
 1034.90        2969.50           1482       26205.00    114596.40
 1034.93        2969.75           1486       24271.00    106109.70
 1034.96        2970.00           1489       22626.00     98894.55
 1034.99        2970.25           1492       20914.00     91388.84
 1035.03        2970.50           1496       18805.00     82147.28
 1035.06        2970.75           1499       17185.00     75051.97
 1035.09        2971.00           1502       15415.00     67303.15
 1035.12        2971.25           1506       13064.00     57016.37
 1035.15        2971.50           1509       11451.00     49962.37
 1035.18        2971.75           1513        9322.00     40656.36
 1035.21        2972.00           1516        7747.00     33775.27
 1035.24        2972.25           1519        6062.00     26416.75
 1035.27        2972.50           1523        4207.00     18319.57
 1035.30        2972.75           1526        2655.00     11548.03
 1035.34        2973.00           1529        1423.00      6174.64
 1035.37        2973.25           1533         540.00      2324.49
 1035.40        2973.50           1536         371.00      1587.70
 1035.43        2973.75           1539         318.00      1356.64
 1035.46        2974.00           1543         262.00      1112.50
 1035.49        2974.25           1546         186.00       781.19
 1035.52        2974.50           1549         160.00       667.84
 1035.55        2974.75           1553         100.00       406.28
 1035.58        2975.00           1556          72.00       284.22
 1035.61        2975.25           1559          58.00       223.19
 1035.64        2975.50           1563          49.00       183.96
 1035.67        2975.75           1566          45.00       166.52
 1035.70        2976.00           1569          43.00       157.80
 1035.73        2976.25           1573          43.00       157.80
 1035.76        2976.50           1576          53.00       201.40
 1035.80        2976.75           1579          41.00       149.09
 1035.83        2977.00           1583          50.00       188.32
 1035.86        2977.25           1586          49.00       183.96
 1035.89        2977.50           1590          42.00       153.44
 1035.92        2977.75           1593          46.00       170.88
 1035.95        2978.00           1596          42.00       153.44
 1035.98        2978.25           1600          44.00       162.16
 1036.01        2978.50           1603          38.00       136.01
 1036.04        2978.75           1606          39.00       140.37
 1036.07        2979.00           1610          44.00       162.16
 1036.10        2979.25           1613          42.00       153.44
 1036.14        2979.50           1616          46.00       170.88
 1036.17        2979.75           1620          37.00       131.65
 1036.20        2980.00           1623          41.00       149.09
 1036.23        2980.25           1626          49.00       183.96
 1036.26        2980.50           1630          44.00       162.16
 1036.29        2980.75           1633          43.00       157.80
 1036.32        2981.00           1637          44.00       162.16
 1036.35        2981.25           1640          43.00       157.80
 1036.38        2981.50           1643          41.00       149.09
 1036.41        2981.75           1647          45.00       166.52
 1036.44        2982.00           1650          39.00       140.37
 1036.48        2982.25           1653          40.00       144.73
 1036.51        2982.50           1657          48.00       179.60
 1036.54        2982.75           1660          46.00       170.88
 1036.57        2983.00           1663          49.00       183.96
 1036.60        2983.25           1667          42.00       153.44
 1036.63        2983.50           1670          43.00       157.80
 1036.66        2983.75           1673          41.00       149.09
 1036.69        2984.00           1677          39.00       140.37
HS scan finished at 17:16:55
end
