************************************************************
  HS Scan of (1) Internal mercury lamp
************************************************************
Integration time is 0.2294 seconds per sample
dh040118Manchester 53.47 2.23 2.804185pr1000
************************************************************
Dead Time -------------------------  3E-08 
Number of Cycles Used -------------  4 
Starting Wavelength (Angstroms) ---  2950 
Final Wavelength (Angstoms) -------  2984 
Wavelength Increment (Angstroms) --  .25 
Filter Wheel #1 Position ---------- (1) Ground quartz diffuser (ND=2.32)
Filter Wheel #2 Position ---------- (1) Neutral Density 0.494



************************************************************
HS scan start time = 05:26:19
Dark Count =  7.3 


Time (GMT)  Wavelength (Ang)  Step Number  Raw Counts  Counts/Second

  326.68        2950.00           1222          53.00       199.22
  326.75        2950.25           1226          58.00       221.01
  326.78        2950.50           1229          60.00       229.73
  326.81        2950.75           1232          66.00       255.89
  326.84        2951.00           1236          63.00       242.81
  326.87        2951.25           1239          64.00       247.17
  326.90        2951.50           1242          62.00       238.45
  326.93        2951.75           1246          62.00       238.45
  326.96        2952.00           1249          60.00       229.73
  326.99        2952.25           1252          61.00       234.09
  327.02        2952.50           1256          56.00       212.29
  327.06        2952.75           1259          60.00       229.73
  327.09        2953.00           1262          66.00       255.89
  327.12        2953.25           1266          56.00       212.29
  327.15        2953.50           1269          71.00       277.68
  327.18        2953.75           1272          63.00       242.81
  327.21        2954.00           1276          75.00       295.12
  327.24        2954.25           1279          69.00       268.96
  327.27        2954.50           1282          55.00       207.94
  327.30        2954.75           1286          70.00       273.32
  327.33        2955.00           1289          62.00       238.45
  327.36        2955.25           1292          68.00       264.61
  327.39        2955.50           1296          63.00       242.81
  327.42        2955.75           1299          62.00       238.45
  327.45        2956.00           1302          63.00       242.81
  327.48        2956.25           1306          61.00       234.09
  327.52        2956.50           1309          55.00       207.94
  327.55        2956.75           1312          62.00       238.45
  327.58        2957.00           1316          64.00       247.17
  327.61        2957.25           1319          62.00       238.45
  327.64        2957.50           1322          55.00       207.94
  327.67        2957.75           1326          60.00       229.73
  327.70        2958.00           1329          62.00       238.45
  327.73        2958.25           1332          62.00       238.45
  327.76        2958.50           1336          54.00       203.58
  327.79        2958.75           1339          55.00       207.94
  327.82        2959.00           1342          67.00       260.25
  327.85        2959.25           1346          73.00       286.40
  327.88        2959.50           1349          65.00       251.53
  327.91        2959.75           1352          73.00       286.40
  327.94        2960.00           1356         107.00       434.62
  327.98        2960.25           1359         137.00       565.40
  328.01        2960.50           1362         196.00       822.60
  328.04        2960.75           1366         211.00       887.99
  328.07        2961.00           1369         265.00      1123.40
  328.10        2961.25           1372         308.00      1310.86
  328.13        2961.50           1376         364.00      1555.00
  328.16        2961.75           1379         501.00      2152.28
  328.19        2962.00           1382         935.00      4044.52
  328.22        2962.25           1386        2472.00     10747.58
  328.25        2962.50           1389        4042.00     17597.34
  328.28        2962.75           1392        5439.00     23694.70
  328.32        2963.00           1396        7325.00     31929.88
  328.35        2963.25           1399        8801.00     38377.64
  328.38        2963.50           1402       10400.00     45365.54
  328.41        2963.75           1406       12501.00     54551.72
  328.44        2964.00           1409       14097.00     61533.28
  328.47        2964.25           1412       15708.00     68583.43
  328.50        2964.50           1416       17835.00     77896.29
  328.53        2964.75           1419       19246.00     84077.09
  328.56        2965.00           1422       20776.00     90781.78
  328.60        2965.25           1426       22780.00     99567.66
  328.63        2965.50           1429       24291.00    106195.20
  328.66        2965.75           1432       25728.00    112500.70
  328.69        2966.00           1436       27895.00    122013.80
  328.72        2966.25           1439       29338.00    128351.60
  328.75        2966.50           1442       30640.00    134072.20
  328.78        2966.75           1446       32435.00    141962.10
  328.81        2967.00           1449       33130.00    145017.90
  328.84        2967.25           1452       33139.00    145057.50
  328.88        2967.50           1456       33077.00    144784.90
  328.91        2967.75           1459       33070.00    144754.10
  328.94        2968.00           1462       33131.00    145022.40
  328.97        2968.25           1466       32269.00    141232.30
  329.00        2968.50           1469       31084.00    136023.40
  329.03        2968.75           1472       29874.00    130706.40
  329.06        2969.00           1476       27887.00    121978.70
  329.09        2969.25           1479       26312.00    115063.90
  329.12        2969.50           1482       25017.00    109380.60
  329.16        2969.75           1486       22814.00     99716.78
  329.19        2970.00           1489       21198.00     92631.52
  329.22        2970.25           1492       19720.00     86153.94
  329.25        2970.50           1496       17668.00     77164.91
  329.28        2970.75           1499       16236.00     70894.74
  329.31        2971.00           1502       14662.00     64005.53
  329.34        2971.25           1506       12706.00     55448.31
  329.37        2971.50           1509       11179.00     48770.96
  329.40        2971.75           1513        9292.00     40523.08
  329.43        2972.00           1516        7769.00     33869.19
  329.46        2972.25           1519        6178.00     26921.04
  329.49        2972.50           1523        4135.00     18003.18
  329.53        2972.75           1526        2769.00     12043.15
  329.56        2973.00           1529        1347.00      5841.04
  329.59        2973.25           1533         475.00      2038.92
  329.62        2973.50           1536         320.00      1363.18
  329.65        2973.75           1539         276.00      1171.36
  329.68        2974.00           1543         221.00       931.59
  329.71        2974.25           1546         169.00       704.90
  329.74        2974.50           1549         129.00       530.52
  329.77        2974.75           1553          95.00       382.31
  329.80        2975.00           1556          74.00       290.76
  329.83        2975.25           1559          71.00       277.68
  329.87        2975.50           1563          71.00       277.68
  329.90        2975.75           1566          53.00       199.22
  329.93        2976.00           1569          62.00       238.45
  329.96        2976.25           1573          69.00       268.96
  329.99        2976.50           1576          55.00       207.94
  330.02        2976.75           1579          51.00       190.50
  330.05        2977.00           1583          52.00       194.86
  330.08        2977.25           1586          65.00       251.53
  330.11        2977.50           1590          60.00       229.73
  330.14        2977.75           1593          64.00       247.17
  330.18        2978.00           1596          55.00       207.94
  330.21        2978.25           1600          46.00       168.70
  330.24        2978.50           1603          70.00       273.32
  330.27        2978.75           1606          54.00       203.58
  330.30        2979.00           1610          63.00       242.81
  330.33        2979.25           1613          62.00       238.45
  330.36        2979.50           1616          51.00       190.50
  330.39        2979.75           1620          60.00       229.73
  330.42        2980.00           1623          61.00       234.09
  330.45        2980.25           1626          64.00       247.17
  330.48        2980.50           1630          63.00       242.81
  330.51        2980.75           1633          67.00       260.25
  330.55        2981.00           1637          62.00       238.45
  330.58        2981.25           1640          47.00       173.06
  330.61        2981.50           1643          58.00       221.01
  330.64        2981.75           1647          49.00       181.78
  330.67        2982.00           1650          60.00       229.73
  330.70        2982.25           1653          65.00       251.53
  330.73        2982.50           1657          51.00       190.50
  330.76        2982.75           1660          57.00       216.65
  330.79        2983.00           1663          59.00       225.37
  330.82        2983.25           1667          58.00       221.01
  330.85        2983.50           1670          59.00       225.37
  330.88        2983.75           1673          51.00       190.50
  330.92        2984.00           1677          52.00       194.86
HS scan finished at 05:31:08
end
************************************************************
  HS Scan of (1) Internal mercury lamp
************************************************************
Integration time is 0.2294 seconds per sample
dh040118Manchester 53.47 2.23 2.750537pr1000
************************************************************
Dead Time -------------------------  3E-08 
Number of Cycles Used -------------  4 
Starting Wavelength (Angstroms) ---  2950 
Final Wavelength (Angstoms) -------  2984 
Wavelength Increment (Angstroms) --  .25 
Filter Wheel #1 Position ---------- (1) Ground quartz diffuser (ND=2.32)
Filter Wheel #2 Position ---------- (1) Neutral Density 0.494



************************************************************
HS scan start time = 17:12:03
Dark Count =  5.8 


Time (GMT)  Wavelength (Ang)  Step Number  Raw Counts  Counts/Second

 1032.42        2950.00           1222          64.00       253.71
 1032.48        2950.25           1226          60.00       236.27
 1032.52        2950.50           1229          64.00       253.71
 1032.55        2950.75           1232          61.00       240.63
 1032.58        2951.00           1236          63.00       249.35
 1032.61        2951.25           1239          71.00       284.22
 1032.64        2951.50           1242          58.00       227.55
 1032.67        2951.75           1246          71.00       284.22
 1032.70        2952.00           1249          60.00       236.27
 1032.73        2952.25           1252          63.00       249.35
 1032.76        2952.50           1256          63.00       249.35
 1032.79        2952.75           1259          63.00       249.35
 1032.82        2953.00           1262          59.00       231.91
 1032.85        2953.25           1266          64.00       253.71
 1032.88        2953.50           1269          62.00       244.99
 1032.91        2953.75           1272          61.00       240.63
 1032.94        2954.00           1276          62.00       244.99
 1032.98        2954.25           1279          61.00       240.63
 1033.01        2954.50           1282          69.00       275.50
 1033.04        2954.75           1286          58.00       227.55
 1033.07        2955.00           1289          74.00       297.30
 1033.10        2955.25           1292          69.00       275.50
 1033.13        2955.50           1296          71.00       284.22
 1033.16        2955.75           1299          69.00       275.50
 1033.19        2956.00           1302          60.00       236.27
 1033.22        2956.25           1306          60.00       236.27
 1033.25        2956.50           1309          62.00       244.99
 1033.28        2956.75           1312          60.00       236.27
 1033.32        2957.00           1316          67.00       266.79
 1033.35        2957.25           1319          58.00       227.55
 1033.38        2957.50           1322          59.00       231.91
 1033.41        2957.75           1326          68.00       271.14
 1033.44        2958.00           1329          57.00       223.19
 1033.47        2958.25           1332          65.00       258.07
 1033.50        2958.50           1336          66.00       262.43
 1033.53        2958.75           1339          70.00       279.86
 1033.56        2959.00           1342          61.00       240.63
 1033.59        2959.25           1346          62.00       244.99
 1033.62        2959.50           1349          75.00       301.66
 1033.66        2959.75           1352          78.00       314.74
 1033.69        2960.00           1356         113.00       467.31
 1033.72        2960.25           1359         138.00       576.30
 1033.75        2960.50           1362         165.00       694.00
 1033.78        2960.75           1366         215.00       911.97
 1033.81        2961.00           1369         252.00      1073.27
 1033.84        2961.25           1372         298.00      1273.81
 1033.87        2961.50           1376         368.00      1578.98
 1033.90        2961.75           1379         564.00      2433.48
 1033.93        2962.00           1382        1239.00      5376.63
 1033.96        2962.25           1386        2930.00     12752.05
 1034.00        2962.50           1389        4449.00     19380.06
 1034.03        2962.75           1392        5906.00     25740.01
 1034.06        2963.00           1396        7817.00     34085.41
 1034.09        2963.25           1399        9411.00     41049.65
 1034.12        2963.50           1402       10834.00     47269.26
 1034.15        2963.75           1406       12955.00     56543.97
 1034.18        2964.00           1409       14464.00     63145.67
 1034.21        2964.25           1412       16152.00     70533.58
 1034.24        2964.50           1416       18075.00     78954.01
 1034.27        2964.75           1419       19640.00     85809.98
 1034.30        2965.00           1422       21428.00     93646.33
 1034.33        2965.25           1426       23480.00    102644.30
 1034.37        2965.50           1429       24989.00    109264.30
 1034.40        2965.75           1432       26397.00    115443.60
 1034.43        2966.00           1436       28435.00    124391.90
 1034.46        2966.25           1439       30021.00    131358.80
 1034.49        2966.50           1442       31350.00    137199.10
 1034.52        2966.75           1446       32611.00    142742.50
 1034.55        2967.00           1449       32885.00    143947.20
 1034.58        2967.25           1452       32822.00    143670.20
 1034.61        2967.50           1456       32830.00    143705.40
 1034.64        2967.75           1459       33014.00    144514.50
 1034.67        2968.00           1462       32696.00    143116.20
 1034.71        2968.25           1466       31585.00    138232.00
 1034.74        2968.50           1469       30058.00    131521.40
 1034.77        2968.75           1472       28702.00    125564.50
 1034.80        2969.00           1476       26798.00    117203.90
 1034.83        2969.25           1479       25369.00    110931.80
 1034.86        2969.50           1482       24004.00    104942.80
 1034.89        2969.75           1486       21899.00     95711.21
 1034.92        2970.00           1489       20428.00     89263.13
 1034.96        2970.25           1492       19152.00     83671.84
 1034.99        2970.50           1496       16918.00     73887.23
 1035.02        2970.75           1499       15330.00     66935.50
 1035.05        2971.00           1502       13742.00     59986.67
 1035.08        2971.25           1506       11735.00     51208.52
 1035.11        2971.50           1509       10312.00     44987.44
 1035.14        2971.75           1513        8211.00     35806.54
 1035.17        2972.00           1516        6627.00     28888.15
 1035.20        2972.25           1519        5165.00     22505.17
 1035.23        2972.50           1523        3285.00     14300.82
 1035.26        2972.75           1526        1927.00      8377.00
 1035.30        2973.00           1529         848.00      3671.72
 1035.33        2973.25           1533         422.00      1814.40
 1035.36        2973.50           1536         345.00      1478.71
 1035.39        2973.75           1539         268.00      1143.02
 1035.42        2974.00           1543         234.00       994.80
 1035.45        2974.25           1546         160.00       672.20
 1035.48        2974.50           1549         138.00       576.30
 1035.51        2974.75           1553         106.00       436.80
 1035.54        2975.00           1556          80.00       323.46
 1035.57        2975.25           1559          69.00       275.50
 1035.60        2975.50           1563          65.00       258.07
 1035.63        2975.75           1566          51.00       197.04
 1035.66        2976.00           1569          53.00       205.76
 1035.69        2976.25           1573          62.00       244.99
 1035.72        2976.50           1576          74.00       297.30
 1035.75        2976.75           1579          61.00       240.63
 1035.78        2977.00           1583          60.00       236.27
 1035.82        2977.25           1586          59.00       231.91
 1035.85        2977.50           1590          59.00       231.91
 1035.88        2977.75           1593          67.00       266.79
 1035.91        2978.00           1596          60.00       236.27
 1035.94        2978.25           1600          60.00       236.27
 1035.97        2978.50           1603          48.00       183.96
 1036.00        2978.75           1606          56.00       218.83
 1036.03        2979.00           1610          53.00       205.76
 1036.06        2979.25           1613          52.00       201.40
 1036.09        2979.50           1616          60.00       236.27
 1036.12        2979.75           1620          48.00       183.96
 1036.15        2980.00           1623          61.00       240.63
 1036.19        2980.25           1626          62.00       244.99
 1036.22        2980.50           1630          55.00       214.47
 1036.25        2980.75           1633          54.00       210.11
 1036.28        2981.00           1637          62.00       244.99
 1036.31        2981.25           1640          55.00       214.47
 1036.34        2981.50           1643          50.00       192.68
 1036.37        2981.75           1647          56.00       218.83
 1036.40        2982.00           1650          58.00       227.55
 1036.43        2982.25           1653          60.00       236.27
 1036.46        2982.50           1657          53.00       205.76
 1036.49        2982.75           1660          56.00       218.83
 1036.52        2983.00           1663          62.00       244.99
 1036.56        2983.25           1667          62.00       244.99
 1036.59        2983.50           1670          54.00       210.11
 1036.62        2983.75           1673          64.00       253.71
 1036.65        2984.00           1677          56.00       218.83
HS scan finished at 17:16:52
end
