************************************************************
  HS Scan of (1) Internal mercury lamp
************************************************************
Integration time is 0.2294 seconds per sample
dh040117Manchester 53.47 2.23 2.750537pr1000
************************************************************
Dead Time -------------------------  3E-08 
Number of Cycles Used -------------  4 
Starting Wavelength (Angstroms) ---  2950 
Final Wavelength (Angstoms) -------  2984 
Wavelength Increment (Angstroms) --  .25 
Filter Wheel #1 Position ---------- (1) Ground quartz diffuser (ND=2.32)
Filter Wheel #2 Position ---------- (1) Neutral Density 0.494



************************************************************
HS scan start time = 05:26:16
Dark Count =  7.5 


Time (GMT)  Wavelength (Ang)  Step Number  Raw Counts  Counts/Second

  326.64        2950.00           1222          47.00       172.19
  326.71        2950.25           1226          46.00       167.83
  326.74        2950.50           1229          47.00       172.19
  326.77        2950.75           1232          43.00       154.75
  326.80        2951.00           1236          39.00       137.32
  326.83        2951.25           1239          48.00       176.55
  326.86        2951.50           1242          39.00       137.32
  326.89        2951.75           1246          42.00       150.39
  326.92        2952.00           1249          48.00       176.55
  326.96        2952.25           1252          44.00       159.11
  326.99        2952.50           1256          44.00       159.11
  327.02        2952.75           1259          47.00       172.19
  327.05        2953.00           1262          46.00       167.83
  327.08        2953.25           1266          37.00       128.60
  327.11        2953.50           1269          47.00       172.19
  327.14        2953.75           1272          50.00       185.27
  327.17        2954.00           1276          49.00       180.91
  327.20        2954.25           1279          46.00       167.83
  327.23        2954.50           1282          46.00       167.83
  327.26        2954.75           1286          40.00       141.67
  327.29        2955.00           1289          48.00       176.55
  327.33        2955.25           1292          47.00       172.19
  327.36        2955.50           1296          39.00       137.32
  327.39        2955.75           1299          70.00       272.45
  327.42        2956.00           1302          41.00       146.03
  327.45        2956.25           1306          37.00       128.60
  327.48        2956.50           1309          46.00       167.83
  327.51        2956.75           1312          44.00       159.11
  327.54        2957.00           1316          47.00       172.19
  327.57        2957.25           1319          39.00       137.32
  327.60        2957.50           1322          40.00       141.67
  327.63        2957.75           1326          45.00       163.47
  327.67        2958.00           1329          43.00       154.75
  327.70        2958.25           1332          46.00       167.83
  327.73        2958.50           1336          48.00       176.55
  327.76        2958.75           1339          42.00       150.39
  327.79        2959.00           1342          45.00       163.47
  327.82        2959.25           1346          43.00       154.75
  327.85        2959.50           1349          52.00       193.99
  327.88        2959.75           1352          59.00       224.50
  327.91        2960.00           1356          79.00       311.69
  327.94        2960.25           1359         117.00       477.34
  327.97        2960.50           1362         140.00       577.60
  328.01        2960.75           1366         203.00       852.24
  328.04        2961.00           1369         240.00      1013.54
  328.07        2961.25           1372         288.00      1222.80
  328.10        2961.50           1376         384.00      1641.32
  328.13        2961.75           1379         611.00      2630.98
  328.16        2962.00           1382        1282.00      5556.72
  328.19        2962.25           1386        2937.00     12775.17
  328.22        2962.50           1389        4553.00     19826.52
  328.25        2962.75           1392        6247.00     27221.44
  328.28        2963.00           1396        8220.00     35838.43
  328.31        2963.25           1399        9898.00     43170.53
  328.35        2963.50           1402       11489.00     50125.46
  328.38        2963.75           1406       13900.00     60670.49
  328.41        2964.00           1409       15784.00     68915.22
  328.44        2964.25           1412       17580.00     76778.65
  328.47        2964.50           1416       19816.00     86573.72
  328.50        2964.75           1419       21437.00     93678.34
  328.53        2965.00           1422       23132.00    101110.50
  328.56        2965.25           1426       25444.00    111253.50
  328.59        2965.50           1429       27110.00    118566.20
  328.63        2965.75           1432       28483.00    124595.20
  328.66        2966.00           1436       31002.00    135662.20
  328.69        2966.25           1439       32498.00    142238.20
  328.72        2966.50           1442       34118.00    149362.20
  328.75        2966.75           1446       35564.00    155723.60
  328.78        2967.00           1449       36012.00    157695.00
  328.81        2967.25           1452       36173.00    158403.50
  328.84        2967.50           1456       36244.00    158716.00
  328.87        2967.75           1459       36065.00    157928.30
  328.91        2968.00           1462       35890.00    157158.10
  328.94        2968.25           1466       34931.00    152938.60
  328.97        2968.50           1469       33539.00    146815.70
  329.00        2968.75           1472       32175.00    140818.10
  329.03        2969.00           1476       30245.00    132335.60
  329.06        2969.25           1479       28394.00    124204.30
  329.09        2969.50           1482       26734.00    116915.50
  329.12        2969.75           1486       24543.00    107299.90
  329.15        2970.00           1489       22826.00     99768.52
  329.18        2970.25           1492       21317.00     93152.28
  329.22        2970.50           1496       19191.00     83835.25
  329.25        2970.75           1499       17454.00     76226.87
  329.28        2971.00           1502       15788.00     68932.73
  329.31        2971.25           1506       13578.00     59261.76
  329.34        2971.50           1509       11848.00     51695.20
  329.37        2971.75           1513        9682.00     42226.52
  329.40        2972.00           1516        8135.00     35467.10
  329.43        2972.25           1519        6503.00     28339.26
  329.46        2972.50           1523        4478.00     19499.20
  329.49        2972.75           1526        2895.00     12591.94
  329.53        2973.00           1529        1414.00      6132.34
  329.56        2973.25           1533         529.00      2273.48
  329.59        2973.50           1536         380.00      1623.88
  329.62        2973.75           1539         320.00      1362.31
  329.65        2974.00           1543         279.00      1183.56
  329.68        2974.25           1546         202.00       847.89
  329.71        2974.50           1549         152.00       629.92
  329.74        2974.75           1553         107.00       433.75
  329.77        2975.00           1556          82.00       324.76
  329.80        2975.25           1559          60.00       228.86
  329.83        2975.50           1563          53.00       198.34
  329.87        2975.75           1566          55.00       207.06
  329.90        2976.00           1569          43.00       154.75
  329.93        2976.25           1573          51.00       189.63
  329.96        2976.50           1576          40.00       141.67
  329.99        2976.75           1579          46.00       167.83
  330.02        2977.00           1583          45.00       163.47
  330.05        2977.25           1586          49.00       180.91
  330.08        2977.50           1590          47.00       172.19
  330.11        2977.75           1593          44.00       159.11
  330.14        2978.00           1596          40.00       141.67
  330.17        2978.25           1600          40.00       141.67
  330.20        2978.50           1603          47.00       172.19
  330.23        2978.75           1606          48.00       176.55
  330.26        2979.00           1610          45.00       163.47
  330.30        2979.25           1613          38.00       132.96
  330.33        2979.50           1616          41.00       146.03
  330.36        2979.75           1620          38.00       132.96
  330.39        2980.00           1623          36.00       124.24
  330.42        2980.25           1626          48.00       176.55
  330.45        2980.50           1630          41.00       146.03
  330.48        2980.75           1633          47.00       172.19
  330.51        2981.00           1637          41.00       146.03
  330.54        2981.25           1640          47.00       172.19
  330.57        2981.50           1643          40.00       141.67
  330.60        2981.75           1647          46.00       167.83
  330.63        2982.00           1650          58.00       220.14
  330.67        2982.25           1653          44.00       159.11
  330.70        2982.50           1657          46.00       167.83
  330.73        2982.75           1660          38.00       132.96
  330.76        2983.00           1663          50.00       185.27
  330.79        2983.25           1667          49.00       180.91
  330.82        2983.50           1670          45.00       163.47
  330.85        2983.75           1673          38.00       132.96
  330.88        2984.00           1677          37.00       128.60
HS scan finished at 05:31:06
end
************************************************************
  HS Scan of (1) Internal mercury lamp
************************************************************
Integration time is 0.2294 seconds per sample
dh040117Manchester 53.47 2.23 2.750537pr1000
************************************************************
Dead Time -------------------------  3E-08 
Number of Cycles Used -------------  4 
Starting Wavelength (Angstroms) ---  2950 
Final Wavelength (Angstoms) -------  2984 
Wavelength Increment (Angstroms) --  .25 
Filter Wheel #1 Position ---------- (1) Ground quartz diffuser (ND=2.32)
Filter Wheel #2 Position ---------- (1) Neutral Density 0.494



************************************************************
HS scan start time = 17:13:16
Dark Count =  5.6 


Time (GMT)  Wavelength (Ang)  Step Number  Raw Counts  Counts/Second

 1033.63        2950.00           1222          41.00       154.32
 1033.70        2950.25           1226          41.00       154.32
 1033.73        2950.50           1229          45.00       171.75
 1033.76        2950.75           1232          45.00       171.75
 1033.79        2951.00           1236          45.00       171.75
 1033.82        2951.25           1239          45.00       171.75
 1033.85        2951.50           1242          48.00       184.83
 1033.88        2951.75           1246          47.00       180.47
 1033.91        2952.00           1249          38.00       141.24
 1033.94        2952.25           1252          43.00       163.03
 1033.97        2952.50           1256          44.00       167.39
 1034.00        2952.75           1259          52.00       202.27
 1034.04        2953.00           1262          37.00       136.88
 1034.07        2953.25           1266          46.00       176.11
 1034.10        2953.50           1269          45.00       171.75
 1034.13        2953.75           1272          47.00       180.47
 1034.16        2954.00           1276          46.00       176.11
 1034.19        2954.25           1279          44.00       167.39
 1034.22        2954.50           1282          55.00       215.35
 1034.25        2954.75           1286          45.00       171.75
 1034.28        2955.00           1289          43.00       163.03
 1034.31        2955.25           1292          47.00       180.47
 1034.34        2955.50           1296          43.00       163.03
 1034.37        2955.75           1299          42.00       158.68
 1034.40        2956.00           1302          43.00       163.03
 1034.43        2956.25           1306          53.00       206.63
 1034.46        2956.50           1309          48.00       184.83
 1034.50        2956.75           1312          46.00       176.11
 1034.53        2957.00           1316          48.00       184.83
 1034.56        2957.25           1319          55.00       215.35
 1034.59        2957.50           1322          43.00       163.03
 1034.62        2957.75           1326          48.00       184.83
 1034.65        2958.00           1329          41.00       154.32
 1034.68        2958.25           1332          41.00       154.32
 1034.71        2958.50           1336          49.00       189.19
 1034.74        2958.75           1339          46.00       176.11
 1034.77        2959.00           1342          53.00       206.63
 1034.80        2959.25           1346          55.00       215.35
 1034.83        2959.50           1349          53.00       206.63
 1034.86        2959.75           1352          55.00       215.35
 1034.90        2960.00           1356          85.00       346.12
 1034.93        2960.25           1359         121.00       503.06
 1034.96        2960.50           1362         156.00       655.64
 1034.99        2960.75           1366         206.00       873.61
 1035.02        2961.00           1369         246.00      1047.98
 1035.05        2961.25           1372         294.00      1257.24
 1035.08        2961.50           1376         342.00      1466.50
 1035.11        2961.75           1379         454.00      1954.78
 1035.14        2962.00           1382         791.00      3424.07
 1035.17        2962.25           1386        2057.00      8944.86
 1035.20        2962.50           1389        3487.00     15183.03
 1035.23        2962.75           1392        5145.00     22418.74
 1035.27        2963.00           1396        7348.00     32037.75
 1035.30        2963.25           1399        8922.00     38913.76
 1035.33        2963.50           1402       10443.00     45560.93
 1035.36        2963.75           1406       12613.00     55048.99
 1035.39        2964.00           1409       14320.00     62516.45
 1035.42        2964.25           1412       16102.00     70315.57
 1035.45        2964.50           1416       18205.00     79524.29
 1035.48        2964.75           1419       20148.00     88036.91
 1035.51        2965.00           1422       21750.00     95058.84
 1035.54        2965.25           1426       23996.00    104908.60
 1035.58        2965.50           1429       25682.00    112306.30
 1035.61        2965.75           1432       27086.00    118469.10
 1035.64        2966.00           1436       29169.00    127616.70
 1035.67        2966.25           1439       30888.00    135169.50
 1035.70        2966.50           1442       32352.00    141604.60
 1035.73        2966.75           1446       34055.00    149093.40
 1035.76        2967.00           1449       35220.00    154218.40
 1035.79        2967.25           1452       35466.00    155300.80
 1035.82        2967.50           1456       35512.00    155503.20
 1035.85        2967.75           1459       35642.00    156075.20
 1035.89        2968.00           1462       35507.00    155481.20
 1035.92        2968.25           1466       34991.00    153210.90
 1035.95        2968.50           1469       34005.00    148873.50
 1035.98        2968.75           1472       32354.00    141613.40
 1036.01        2969.00           1476       30339.00    132757.00
 1036.04        2969.25           1479       28928.00    126558.10
 1036.07        2969.50           1482       27145.00    118728.20
 1036.10        2969.75           1486       25021.00    109405.60
 1036.13        2970.00           1489       23484.00    102662.70
 1036.17        2970.25           1492       21866.00     95567.41
 1036.20        2970.50           1496       19673.00     85955.46
 1036.23        2970.75           1499       18003.00     78639.55
 1036.26        2971.00           1502       16262.00     71016.01
 1036.29        2971.25           1506       13831.00     60376.92
 1036.32        2971.50           1509       12388.00     54064.96
 1036.35        2971.75           1513       10217.00     44573.08
 1036.38        2972.00           1516        8640.00     37681.63
 1036.41        2972.25           1519        7061.00     30784.30
 1036.44        2972.50           1523        5130.00     22353.26
 1036.48        2972.75           1526        3586.00     15614.99
 1036.51        2973.00           1529        1945.00      8456.37
 1036.54        2973.25           1533         720.00      3114.50
 1036.57        2973.50           1536         391.00      1680.12
 1036.60        2973.75           1539         298.00      1274.68
 1036.63        2974.00           1543         260.00      1109.02
 1036.66        2974.25           1546         180.00       760.26
 1036.69        2974.50           1549         152.00       638.20
 1036.72        2974.75           1553         109.00       450.75
 1036.75        2975.00           1556          72.00       289.45
 1036.78        2975.25           1559          60.00       237.14
 1036.81        2975.50           1563          47.00       180.47
 1036.84        2975.75           1566          42.00       158.68
 1036.88        2976.00           1569          48.00       184.83
 1036.91        2976.25           1573          42.00       158.68
 1036.94        2976.50           1576          45.00       171.75
 1036.97        2976.75           1579          39.00       145.60
 1037.00        2977.00           1583          44.00       167.39
 1037.03        2977.25           1586          43.00       163.03
 1037.06        2977.50           1590          40.00       149.96
 1037.09        2977.75           1593          45.00       171.75
 1037.12        2978.00           1596          47.00       180.47
 1037.15        2978.25           1600          43.00       163.03
 1037.18        2978.50           1603          44.00       167.39
 1037.21        2978.75           1606          41.00       154.32
 1037.24        2979.00           1610          51.00       197.91
 1037.27        2979.25           1613          47.00       180.47
 1037.30        2979.50           1616          49.00       189.19
 1037.33        2979.75           1620          41.00       154.32
 1037.36        2980.00           1623          48.00       184.83
 1037.40        2980.25           1626          41.00       154.32
 1037.43        2980.50           1630          46.00       176.11
 1037.46        2980.75           1633          39.00       145.60
 1037.49        2981.00           1637          40.00       149.96
 1037.52        2981.25           1640          42.00       158.68
 1037.55        2981.50           1643          40.00       149.96
 1037.58        2981.75           1647          44.00       167.39
 1037.61        2982.00           1650          43.00       163.03
 1037.64        2982.25           1653          47.00       180.47
 1037.67        2982.50           1657          43.00       163.03
 1037.70        2982.75           1660          43.00       163.03
 1037.74        2983.00           1663          37.00       136.88
 1037.77        2983.25           1667          41.00       154.32
 1037.80        2983.50           1670          45.00       171.75
 1037.83        2983.75           1673          46.00       176.11
 1037.86        2984.00           1677          41.00       154.32
HS scan finished at 17:18:04
end
