************************************************************
  HS Scan of (1) Internal mercury lamp
************************************************************
Integration time is 0.2294 seconds per sample
dh070118Manchester 53.47 2.23 2.750537pr1000
************************************************************
Dead Time -------------------------  3E-08 
Number of Cycles Used -------------  4 
Starting Wavelength (Angstroms) ---  2950 
Final Wavelength (Angstoms) -------  2984 
Wavelength Increment (Angstroms) --  .25 
Filter Wheel #1 Position ---------- (1) Ground quartz diffuser (ND=2.32)
Filter Wheel #2 Position ---------- (1) Neutral Density 0.494



************************************************************
HS scan start time = 05:25:53
Dark Count =  6.5 


Time (GMT)  Wavelength (Ang)  Step Number  Raw Counts  Counts/Second

  326.25        2950.00           1222          61.00       237.58
  326.32        2950.25           1226          61.00       237.58
  326.35        2950.50           1229          66.00       259.37
  326.38        2950.75           1232          71.00       281.17
  326.41        2951.00           1236          57.00       220.14
  326.44        2951.25           1239          58.00       224.50
  326.47        2951.50           1242          63.00       246.30
  326.50        2951.75           1246          57.00       220.14
  326.53        2952.00           1249          64.00       250.66
  326.57        2952.25           1252          64.00       250.66
  326.60        2952.50           1256          66.00       259.37
  326.63        2952.75           1259          56.00       215.78
  326.66        2953.00           1262          63.00       246.30
  326.69        2953.25           1266          55.00       211.42
  326.72        2953.50           1269          67.00       263.73
  326.75        2953.75           1272          61.00       237.58
  326.78        2954.00           1276          65.00       255.02
  326.81        2954.25           1279          64.00       250.66
  326.84        2954.50           1282          66.00       259.37
  326.87        2954.75           1286          69.00       272.45
  326.90        2955.00           1289          65.00       255.02
  326.94        2955.25           1292          62.00       241.94
  326.97        2955.50           1296          61.00       237.58
  327.00        2955.75           1299          61.00       237.58
  327.03        2956.00           1302          66.00       259.37
  327.06        2956.25           1306          64.00       250.66
  327.09        2956.50           1309          64.00       250.66
  327.12        2956.75           1312          65.00       255.02
  327.15        2957.00           1316          58.00       224.50
  327.18        2957.25           1319          60.00       233.22
  327.21        2957.50           1322          65.00       255.02
  327.24        2957.75           1326          63.00       246.30
  327.27        2958.00           1329          60.00       233.22
  327.30        2958.25           1332          56.00       215.78
  327.34        2958.50           1336          59.00       228.86
  327.37        2958.75           1339          61.00       237.58
  327.40        2959.00           1342          65.00       255.02
  327.43        2959.25           1346          70.00       276.81
  327.46        2959.50           1349          58.00       224.50
  327.49        2959.75           1352          81.00       324.76
  327.52        2960.00           1356         121.00       499.14
  327.55        2960.25           1359         154.00       642.99
  327.58        2960.50           1362         183.00       769.42
  327.61        2960.75           1366         233.00       987.39
  327.64        2961.00           1369         270.00      1148.69
  327.68        2961.25           1372         312.00      1331.79
  327.71        2961.50           1376         394.00      1689.27
  327.74        2961.75           1379         464.00      1994.45
  327.77        2962.00           1382         778.00      3363.46
  327.80        2962.25           1386        2040.00      8866.79
  327.83        2962.50           1389        3374.00     14686.07
  327.86        2962.75           1392        4800.00     20908.93
  327.89        2963.00           1396        6943.00     30265.04
  327.92        2963.25           1399        8512.00     37118.47
  327.95        2963.50           1402       10087.00     44000.94
  327.98        2963.75           1406       12044.00     52556.65
  328.02        2964.00           1409       13519.00     59008.03
  328.05        2964.25           1412       15175.00     66254.05
  328.08        2964.50           1416       17361.00     75823.99
  328.11        2964.75           1419       18863.00     82402.68
  328.14        2965.00           1422       20210.00     88304.68
  328.17        2965.25           1426       22186.00     96966.50
  328.20        2965.50           1429       23740.00    103781.60
  328.23        2965.75           1432       25501.00    111508.00
  328.26        2966.00           1436       27576.00    120616.60
  328.29        2966.25           1439       28993.00    126839.60
  328.33        2966.50           1442       30345.00    132779.40
  328.36        2966.75           1446       31740.00    138910.30
  328.39        2967.00           1449       32473.00    142132.70
  328.42        2967.25           1452       32842.00    143755.10
  328.45        2967.50           1456       32669.00    142994.40
  328.48        2967.75           1459       32651.00    142915.30
  328.51        2968.00           1462       32542.00    142436.00
  328.54        2968.25           1466       32103.00    140506.00
  328.57        2968.50           1469       30934.00    135367.70
  328.61        2968.75           1472       29515.00    129132.70
  328.64        2969.00           1476       27413.00    119900.90
  328.67        2969.25           1479       26042.00    113882.30
  328.70        2969.50           1482       24694.00    107966.90
  328.73        2969.75           1486       22541.00     98523.12
  328.76        2970.00           1489       21035.00     91920.52
  328.79        2970.25           1492       19522.00     85289.88
  328.82        2970.50           1496       17715.00     77374.25
  328.85        2970.75           1499       16142.00     70486.73
  328.89        2971.00           1502       14609.00     63777.10
  328.92        2971.25           1506       12562.00     54822.00
  328.95        2971.50           1509       11229.00     48993.07
  328.98        2971.75           1513        9238.00     40290.61
  329.01        2972.00           1516        7638.00     33300.47
  329.04        2972.25           1519        6121.00     26675.66
  329.07        2972.50           1523        4207.00     18320.88
  329.10        2972.75           1526        2818.00     12260.39
  329.13        2973.00           1529        1537.00      6673.09
  329.16        2973.25           1533         537.00      2312.71
  329.19        2973.50           1536         341.00      1458.22
  329.22        2973.75           1539         282.00      1201.00
  329.26        2974.00           1543         213.00       900.20
  329.29        2974.25           1546         171.00       717.10
  329.32        2974.50           1549         117.00       481.70
  329.35        2974.75           1553          85.00       342.20
  329.38        2975.00           1556          77.00       307.33
  329.41        2975.25           1559          59.00       228.86
  329.44        2975.50           1563          64.00       250.66
  329.47        2975.75           1566          61.00       237.58
  329.50        2976.00           1569          59.00       228.86
  329.53        2976.25           1573          61.00       237.58
  329.56        2976.50           1576          52.00       198.34
  329.59        2976.75           1579          62.00       241.94
  329.62        2977.00           1583          49.00       185.27
  329.65        2977.25           1586          61.00       237.58
  329.68        2977.50           1590          58.00       224.50
  329.71        2977.75           1593          58.00       224.50
  329.74        2978.00           1596          59.00       228.86
  329.77        2978.25           1600          65.00       255.02
  329.81        2978.50           1603          61.00       237.58
  329.84        2978.75           1606          64.00       250.66
  329.87        2979.00           1610          56.00       215.78
  329.90        2979.25           1613          58.00       224.50
  329.93        2979.50           1616          47.00       176.55
  329.96        2979.75           1620          56.00       215.78
  329.99        2980.00           1623          56.00       215.78
  330.02        2980.25           1626          58.00       224.50
  330.05        2980.50           1630          60.00       233.22
  330.08        2980.75           1633          54.00       207.06
  330.11        2981.00           1637          53.00       202.70
  330.14        2981.25           1640          55.00       211.42
  330.18        2981.50           1643          58.00       224.50
  330.21        2981.75           1647          50.00       189.63
  330.24        2982.00           1650          57.00       220.14
  330.27        2982.25           1653          50.00       189.63
  330.30        2982.50           1657          56.00       215.78
  330.33        2982.75           1660          60.00       233.22
  330.36        2983.00           1663          57.00       220.14
  330.39        2983.25           1667          50.00       189.63
  330.42        2983.50           1670          65.00       255.02
  330.45        2983.75           1673          59.00       228.86
  330.49        2984.00           1677          53.00       202.70
HS scan finished at 05:30:42
end
************************************************************
  HS Scan of (1) Internal mercury lamp
************************************************************
Integration time is 0.2294 seconds per sample
dh070118Manchester 53.47 2.23 2.750537pr1000
************************************************************
Dead Time -------------------------  3E-08 
Number of Cycles Used -------------  4 
Starting Wavelength (Angstroms) ---  2950 
Final Wavelength (Angstoms) -------  2984 
Wavelength Increment (Angstroms) --  .25 
Filter Wheel #1 Position ---------- (1) Ground quartz diffuser (ND=2.32)
Filter Wheel #2 Position ---------- (1) Neutral Density 0.494



************************************************************
HS scan start time = 17:12:05
Dark Count =  6.2 


Time (GMT)  Wavelength (Ang)  Step Number  Raw Counts  Counts/Second

 1032.45        2950.00           1222          64.00       251.96
 1032.52        2950.25           1226          56.00       217.09
 1032.55        2950.50           1229          62.00       243.25
 1032.58        2950.75           1232          59.00       230.17
 1032.61        2951.00           1236          63.00       247.60
 1032.64        2951.25           1239          65.00       256.32
 1032.67        2951.50           1242          60.00       234.53
 1032.70        2951.75           1246          59.00       230.17
 1032.74        2952.00           1249          66.00       260.68
 1032.77        2952.25           1252          61.00       238.89
 1032.80        2952.50           1256          57.00       221.45
 1032.83        2952.75           1259          63.00       247.60
 1032.86        2953.00           1262          57.00       221.45
 1032.89        2953.25           1266          67.00       265.04
 1032.92        2953.50           1269          71.00       282.48
 1032.95        2953.75           1272          61.00       238.89
 1032.98        2954.00           1276          58.00       225.81
 1033.01        2954.25           1279          61.00       238.89
 1033.04        2954.50           1282          61.00       238.89
 1033.07        2954.75           1286          62.00       243.25
 1033.10        2955.00           1289          63.00       247.60
 1033.13        2955.25           1292          65.00       256.32
 1033.16        2955.50           1296          55.00       212.73
 1033.19        2955.75           1299          58.00       225.81
 1033.22        2956.00           1302          60.00       234.53
 1033.26        2956.25           1306          59.00       230.17
 1033.29        2956.50           1309          64.00       251.96
 1033.32        2956.75           1312          56.00       217.09
 1033.35        2957.00           1316          59.00       230.17
 1033.38        2957.25           1319          63.00       247.60
 1033.41        2957.50           1322          61.00       238.89
 1033.44        2957.75           1326          75.00       299.92
 1033.47        2958.00           1329          63.00       247.60
 1033.50        2958.25           1332          60.00       234.53
 1033.53        2958.50           1336          63.00       247.60
 1033.56        2958.75           1339          61.00       238.89
 1033.59        2959.00           1342          62.00       243.25
 1033.62        2959.25           1346          61.00       238.89
 1033.65        2959.50           1349          74.00       295.56
 1033.69        2959.75           1352          86.00       347.87
 1033.72        2960.00           1356         117.00       483.01
 1033.75        2960.25           1359         142.00       591.99
 1033.78        2960.50           1362         190.00       801.24
 1033.81        2960.75           1366         232.00       984.34
 1033.84        2961.00           1369         264.00      1123.84
 1033.87        2961.25           1372         315.00      1346.17
 1033.90        2961.50           1376         391.00      1677.50
 1033.93        2961.75           1379         644.00      2780.53
 1033.96        2962.00           1382        1509.00      6552.29
 1033.99        2962.25           1386        3302.00     14373.24
 1034.02        2962.50           1389        4747.00     20678.91
 1034.06        2962.75           1392        6210.00     27065.56
 1034.09        2963.00           1396        7971.00     34756.36
 1034.12        2963.25           1399        9496.00     41419.35
 1034.15        2963.50           1402       11062.00     48264.26
 1034.18        2963.75           1406       13006.00     56765.30
 1034.21        2964.00           1409       14499.00     63297.07
 1034.24        2964.25           1412       16080.00     70216.63
 1034.27        2964.50           1416       18012.00     78676.33
 1034.30        2964.75           1419       19448.00     84966.96
 1034.33        2965.00           1422       20965.00     91615.02
 1034.37        2965.25           1426       23334.00    102002.20
 1034.40        2965.50           1429       24665.00    107840.90
 1034.43        2965.75           1432       26087.00    114081.20
 1034.46        2966.00           1436       28139.00    123090.20
 1034.49        2966.25           1439       29505.00    129090.10
 1034.52        2966.50           1442       30782.00    134701.10
 1034.55        2966.75           1446       32083.00    140419.40
 1034.58        2967.00           1449       32474.00    142138.40
 1034.62        2967.25           1452       32354.00    141610.80
 1034.65        2967.50           1456       32343.00    141562.40
 1034.68        2967.75           1459       32439.00    141984.50
 1034.71        2968.00           1462       31965.00    139900.70
 1034.74        2968.25           1466       30782.00    134701.10
 1034.77        2968.50           1469       29453.00    128861.60
 1034.80        2968.75           1472       28086.00    122857.40
 1034.83        2969.00           1476       26241.00    114757.10
 1034.86        2969.25           1479       24644.00    107748.80
 1034.89        2969.50           1482       23276.00    101747.80
 1034.92        2969.75           1486       21267.00     92938.81
 1034.96        2970.00           1489       19884.00     86877.41
 1034.99        2970.25           1492       18396.00     80358.27
 1035.02        2970.50           1496       16551.00     72278.62
 1035.05        2970.75           1499       14877.00     64951.20
 1035.08        2971.00           1502       13345.00     58248.17
 1035.11        2971.25           1506       11292.00     49269.81
 1035.14        2971.50           1509        9878.00     43088.80
 1035.17        2971.75           1513        7838.00     34175.39
 1035.20        2972.00           1516        6394.00     27868.97
 1035.24        2972.25           1519        4938.00     21512.57
 1035.27        2972.50           1523        3036.00     13212.74
 1035.30        2972.75           1526        1739.00      7555.33
 1035.33        2973.00           1529         725.00      3133.69
 1035.36        2973.25           1533         370.00      1585.95
 1035.39        2973.50           1536         317.00      1354.89
 1035.42        2973.75           1539         268.00      1141.28
 1035.45        2974.00           1543         208.00       879.71
 1035.48        2974.25           1546         156.00       653.02
 1035.51        2974.50           1549         125.00       517.88
 1035.54        2974.75           1553          87.00       352.23
 1035.57        2975.00           1556          80.00       321.71
 1035.61        2975.25           1559          51.00       195.29
 1035.64        2975.50           1563          57.00       221.45
 1035.67        2975.75           1566          58.00       225.81
 1035.70        2976.00           1569          62.00       243.25
 1035.73        2976.25           1573          60.00       234.53
 1035.76        2976.50           1576          66.00       260.68
 1035.79        2976.75           1579          63.00       247.60
 1035.82        2977.00           1583          67.00       265.04
 1035.85        2977.25           1586          56.00       217.09
 1035.88        2977.50           1590          57.00       221.45
 1035.91        2977.75           1593          53.00       204.01
 1035.95        2978.00           1596          57.00       221.45
 1035.98        2978.25           1600          61.00       238.89
 1036.01        2978.50           1603          55.00       212.73
 1036.04        2978.75           1606          62.00       243.25
 1036.07        2979.00           1610          55.00       212.73
 1036.10        2979.25           1613          61.00       238.89
 1036.13        2979.50           1616          56.00       217.09
 1036.16        2979.75           1620          58.00       225.81
 1036.19        2980.00           1623          53.00       204.01
 1036.22        2980.25           1626          56.00       217.09
 1036.25        2980.50           1630          53.00       204.01
 1036.28        2980.75           1633          57.00       221.45
 1036.31        2981.00           1637          54.00       208.37
 1036.35        2981.25           1640          61.00       238.89
 1036.38        2981.50           1643          57.00       221.45
 1036.41        2981.75           1647          60.00       234.53
 1036.44        2982.00           1650          58.00       225.81
 1036.47        2982.25           1653          58.00       225.81
 1036.50        2982.50           1657          57.00       221.45
 1036.53        2982.75           1660          56.00       217.09
 1036.56        2983.00           1663          58.00       225.81
 1036.59        2983.25           1667          57.00       221.45
 1036.62        2983.50           1670          50.00       190.93
 1036.65        2983.75           1673          63.00       247.60
 1036.69        2984.00           1677          56.00       217.09
HS scan finished at 17:16:54
end
