************************************************************
  HS Scan of (1) Internal mercury lamp
************************************************************
Integration time is 0.2294 seconds per sample
dh050119Manchester 53.47 2.23 2.750537pr1000
************************************************************
Dead Time -------------------------  3E-08 
Number of Cycles Used -------------  4 
Starting Wavelength (Angstroms) ---  2950 
Final Wavelength (Angstoms) -------  2984 
Wavelength Increment (Angstroms) --  .25 
Filter Wheel #1 Position ---------- (1) Ground quartz diffuser (ND=2.32)
Filter Wheel #2 Position ---------- (1) Neutral Density 0.494



************************************************************
HS scan start time = 05:26:12
Dark Count =  5 


Time (GMT)  Wavelength (Ang)  Step Number  Raw Counts  Counts/Second

  326.57        2950.00           1222          53.00       209.24
  326.64        2950.25           1226          64.00       257.19
  326.67        2950.50           1229          55.00       217.96
  326.70        2950.75           1232          51.00       200.52
  326.73        2951.00           1236          54.00       213.60
  326.76        2951.25           1239          46.00       178.73
  326.79        2951.50           1242          52.00       204.88
  326.82        2951.75           1246          47.00       183.09
  326.85        2952.00           1249          57.00       226.68
  326.88        2952.25           1252          57.00       226.68
  326.91        2952.50           1256          59.00       235.40
  326.95        2952.75           1259          56.00       222.32
  326.98        2953.00           1262          47.00       183.09
  327.01        2953.25           1266          56.00       222.32
  327.04        2953.50           1269          63.00       252.84
  327.07        2953.75           1272          57.00       226.68
  327.10        2954.00           1276          57.00       226.68
  327.13        2954.25           1279          58.00       231.04
  327.16        2954.50           1282          51.00       200.52
  327.19        2954.75           1286          52.00       204.88
  327.22        2955.00           1289          55.00       217.96
  327.25        2955.25           1292          59.00       235.40
  327.28        2955.50           1296          49.00       191.81
  327.32        2955.75           1299          43.00       165.65
  327.35        2956.00           1302          53.00       209.24
  327.38        2956.25           1306          52.00       204.88
  327.41        2956.50           1309          62.00       248.48
  327.44        2956.75           1312          57.00       226.68
  327.47        2957.00           1316          55.00       217.96
  327.50        2957.25           1319          51.00       200.52
  327.53        2957.50           1322          62.00       248.48
  327.56        2957.75           1326          56.00       222.32
  327.59        2958.00           1329          54.00       213.60
  327.62        2958.25           1332          56.00       222.32
  327.65        2958.50           1336          64.00       257.19
  327.68        2958.75           1339          49.00       191.81
  327.71        2959.00           1342          52.00       204.88
  327.74        2959.25           1346          61.00       244.12
  327.77        2959.50           1349          55.00       217.96
  327.80        2959.75           1352          66.00       265.91
  327.84        2960.00           1356          83.00       340.02
  327.87        2960.25           1359         108.00       449.00
  327.90        2960.50           1362         131.00       549.27
  327.93        2960.75           1366         159.00       671.33
  327.96        2961.00           1369         195.00       828.27
  327.99        2961.25           1372         236.00      1007.01
  328.02        2961.50           1376         299.00      1281.65
  328.05        2961.75           1379         369.00      1586.82
  328.08        2962.00           1382         720.00      3117.12
  328.11        2962.25           1386        1972.00      8576.75
  328.14        2962.50           1389        3048.00     13270.32
  328.18        2962.75           1392        4131.00     17995.76
  328.21        2963.00           1396        5623.00     24507.99
  328.24        2963.25           1399        6698.00     29201.68
  328.27        2963.50           1402        7901.00     34455.83
  328.30        2963.75           1406        9409.00     41044.41
  328.33        2964.00           1409       10575.00     46140.55
  328.36        2964.25           1412       11789.00     51448.14
  328.39        2964.50           1416       13346.00     58257.80
  328.42        2964.75           1419       14592.00     63709.27
  328.46        2965.00           1422       15729.00     68685.41
  328.49        2965.25           1426       17246.00     75326.96
  328.52        2965.50           1429       18368.00     80240.88
  328.55        2965.75           1432       19535.00     85353.41
  328.58        2966.00           1436       21189.00     92602.14
  328.61        2966.25           1439       22071.00     96468.84
  328.64        2966.50           1442       23147.00    101187.30
  328.67        2966.75           1446       24409.00    106723.00
  328.70        2967.00           1449       24780.00    108350.80
  328.74        2967.25           1452       24896.00    108859.70
  328.77        2967.50           1456       25003.00    109329.20
  328.80        2967.75           1459       24936.00    109035.30
  328.83        2968.00           1462       24845.00    108636.00
  328.86        2968.25           1466       24260.00    106069.30
  328.89        2968.50           1469       23292.00    101823.20
  328.92        2968.75           1472       22242.00     97218.62
  328.95        2969.00           1476       20650.00     90239.60
  328.98        2969.25           1479       19553.00     85432.28
  329.02        2969.50           1482       18356.00     80188.31
  329.05        2969.75           1486       16955.00     74052.75
  329.08        2970.00           1489       15739.00     68729.19
  329.11        2970.25           1492       14693.00     64151.25
  329.14        2970.50           1496       13323.00     58157.19
  329.17        2970.75           1499       11974.00     52257.10
  329.20        2971.00           1502       10733.00     46831.23
  329.23        2971.25           1506        9162.00     39965.07
  329.26        2971.50           1509        8007.00     34918.86
  329.29        2971.75           1513        6668.00     29070.68
  329.32        2972.00           1516        5489.00     23923.01
  329.35        2972.25           1519        4351.00     18955.85
  329.39        2972.50           1523        2859.00     12445.80
  329.42        2972.75           1526        1829.00      7953.07
  329.45        2973.00           1529         880.00      3814.73
  329.48        2973.25           1533         362.00      1556.31
  329.51        2973.50           1536         271.00      1159.59
  329.54        2973.75           1539         234.00       998.29
  329.57        2974.00           1543         196.00       832.63
  329.60        2974.25           1546         154.00       649.53
  329.63        2974.50           1549         114.00       475.16
  329.66        2974.75           1553          78.00       318.22
  329.70        2975.00           1556          68.00       274.63
  329.73        2975.25           1559          58.00       231.04
  329.76        2975.50           1563          60.00       239.76
  329.79        2975.75           1566          61.00       244.12
  329.82        2976.00           1569          49.00       191.81
  329.85        2976.25           1573          51.00       200.52
  329.88        2976.50           1576          48.00       187.45
  329.91        2976.75           1579          56.00       222.32
  329.94        2977.00           1583          43.00       165.65
  329.97        2977.25           1586          49.00       191.81
  330.00        2977.50           1590          49.00       191.81
  330.03        2977.75           1593          50.00       196.17
  330.07        2978.00           1596          55.00       217.96
  330.10        2978.25           1600          50.00       196.17
  330.13        2978.50           1603          45.00       174.37
  330.16        2978.75           1606          48.00       187.45
  330.19        2979.00           1610          47.00       183.09
  330.22        2979.25           1613          54.00       213.60
  330.25        2979.50           1616          55.00       217.96
  330.28        2979.75           1620          46.00       178.73
  330.31        2980.00           1623          53.00       209.24
  330.34        2980.25           1626          56.00       222.32
  330.37        2980.50           1630          53.00       209.24
  330.40        2980.75           1633          46.00       178.73
  330.43        2981.00           1637          48.00       187.45
  330.47        2981.25           1640          49.00       191.81
  330.50        2981.50           1643          53.00       209.24
  330.53        2981.75           1647          57.00       226.68
  330.56        2982.00           1650          47.00       183.09
  330.59        2982.25           1653          51.00       200.52
  330.62        2982.50           1657          51.00       200.52
  330.65        2982.75           1660          48.00       187.45
  330.68        2983.00           1663          46.00       178.73
  330.72        2983.25           1667          52.00       204.88
  330.75        2983.50           1670          50.00       196.17
  330.78        2983.75           1673          53.00       209.24
  330.81        2984.00           1677          52.00       204.88
HS scan finished at 05:31:01
end
************************************************************
  HS Scan of (1) Internal mercury lamp
************************************************************
Integration time is 0.2294 seconds per sample
dh050119Manchester 53.47 2.23 2.804185pr1000
************************************************************
Dead Time -------------------------  3E-08 
Number of Cycles Used -------------  4 
Starting Wavelength (Angstroms) ---  2950 
Final Wavelength (Angstoms) -------  2984 
Wavelength Increment (Angstroms) --  .25 
Filter Wheel #1 Position ---------- (1) Ground quartz diffuser (ND=2.32)
Filter Wheel #2 Position ---------- (1) Neutral Density 0.494



************************************************************
HS scan start time = 17:12:03
Dark Count =  5 


Time (GMT)  Wavelength (Ang)  Step Number  Raw Counts  Counts/Second

 1032.41        2950.00           1222          58.00       231.04
 1032.48        2950.25           1226          68.00       274.63
 1032.51        2950.50           1229          50.00       196.17
 1032.54        2950.75           1232          51.00       200.52
 1032.57        2951.00           1236          57.00       226.68
 1032.60        2951.25           1239          53.00       209.24
 1032.63        2951.50           1242          62.00       248.48
 1032.66        2951.75           1246          58.00       231.04
 1032.69        2952.00           1249          55.00       217.96
 1032.73        2952.25           1252          52.00       204.88
 1032.76        2952.50           1256          58.00       231.04
 1032.79        2952.75           1259          60.00       239.76
 1032.82        2953.00           1262          49.00       191.81
 1032.85        2953.25           1266          54.00       213.60
 1032.88        2953.50           1269          65.00       261.55
 1032.91        2953.75           1272          50.00       196.17
 1032.94        2954.00           1276          56.00       222.32
 1032.97        2954.25           1279          55.00       217.96
 1033.00        2954.50           1282          58.00       231.04
 1033.03        2954.75           1286          56.00       222.32
 1033.06        2955.00           1289          49.00       191.81
 1033.09        2955.25           1292          60.00       239.76
 1033.12        2955.50           1296          52.00       204.88
 1033.16        2955.75           1299          55.00       217.96
 1033.19        2956.00           1302          50.00       196.17
 1033.22        2956.25           1306          53.00       209.24
 1033.25        2956.50           1309          57.00       226.68
 1033.28        2956.75           1312          56.00       222.32
 1033.31        2957.00           1316          57.00       226.68
 1033.34        2957.25           1319          60.00       239.76
 1033.37        2957.50           1322          52.00       204.88
 1033.40        2957.75           1326          58.00       231.04
 1033.43        2958.00           1329          57.00       226.68
 1033.46        2958.25           1332          56.00       222.32
 1033.49        2958.50           1336          54.00       213.60
 1033.52        2958.75           1339          52.00       204.88
 1033.55        2959.00           1342          60.00       239.76
 1033.58        2959.25           1346          60.00       239.76
 1033.62        2959.50           1349          56.00       222.32
 1033.65        2959.75           1352          65.00       261.55
 1033.68        2960.00           1356         107.00       444.64
 1033.71        2960.25           1359         120.00       501.32
 1033.74        2960.50           1362         149.00       627.74
 1033.77        2960.75           1366         190.00       806.47
 1033.80        2961.00           1369         225.00       959.05
 1033.83        2961.25           1372         245.00      1046.24
 1033.86        2961.50           1376         302.00      1294.73
 1033.90        2961.75           1379         441.00      1900.72
 1033.93        2962.00           1382         967.00      4194.08
 1033.96        2962.25           1386        2251.00      9793.64
 1033.99        2962.50           1389        3366.00     14657.71
 1034.02        2962.75           1392        4642.00     20225.87
 1034.05        2963.00           1396        6025.00     26263.06
 1034.08        2963.25           1399        7245.00     31590.52
 1034.11        2963.50           1402        8385.00     36570.18
 1034.14        2963.75           1406        9914.00     43251.38
 1034.18        2964.00           1409       11322.00     49406.22
 1034.21        2964.25           1412       12503.00     54570.52
 1034.24        2964.50           1416       14314.00     62492.82
 1034.27        2964.75           1419       15332.00     66947.76
 1034.30        2965.00           1422       16521.00     72152.53
 1034.33        2965.25           1426       18113.00     79123.96
 1034.36        2965.50           1429       19507.00     85230.72
 1034.39        2965.75           1432       20538.00     89748.72
 1034.42        2966.00           1436       22193.00     97003.76
 1034.45        2966.25           1439       23188.00    101367.10
 1034.48        2966.50           1442       24264.00    106086.90
 1034.52        2966.75           1446       25316.00    110702.70
 1034.55        2967.00           1449       25402.00    111080.10
 1034.58        2967.25           1452       25634.00    112098.20
 1034.61        2967.50           1456       25765.00    112673.20
 1034.64        2967.75           1459       25667.00    112243.10
 1034.67        2968.00           1462       25200.00    110193.70
 1034.70        2968.25           1466       24599.00    107556.60
 1034.73        2968.50           1469       23661.00    103441.70
 1034.76        2968.75           1472       22560.00     98613.02
 1034.80        2969.00           1476       21075.00     92102.44
 1034.83        2969.25           1479       19947.00     87158.72
 1034.86        2969.50           1482       18755.00     81936.12
 1034.89        2969.75           1486       17132.00     74827.77
 1034.92        2970.00           1489       16016.00     69941.72
 1034.95        2970.25           1492       14962.00     65328.44
 1034.98        2970.50           1496       13399.00     58489.64
 1035.01        2970.75           1499       12138.00     52974.27
 1035.04        2971.00           1502       10937.00     47723.03
 1035.08        2971.25           1506        9353.00     40799.69
 1035.11        2971.50           1509        8129.00     35451.81
 1035.14        2971.75           1513        6628.00     28896.01
 1035.17        2972.00           1516        5472.00     23848.79
 1035.20        2972.25           1519        4358.00     18986.40
 1035.23        2972.50           1523        2880.00     12537.41
 1035.26        2972.75           1526        1786.00      7765.54
 1035.29        2973.00           1529         776.00      3361.28
 1035.32        2973.25           1533         336.00      1442.96
 1035.35        2973.50           1536         265.00      1133.43
 1035.38        2973.75           1539         204.00       867.50
 1035.41        2974.00           1543         193.00       819.55
 1035.44        2974.25           1546         141.00       592.86
 1035.48        2974.50           1549         126.00       527.47
 1035.51        2974.75           1553          88.00       361.82
 1035.54        2975.00           1556          67.00       270.27
 1035.57        2975.25           1559          55.00       217.96
 1035.60        2975.50           1563          51.00       200.52
 1035.63        2975.75           1566          45.00       174.37
 1035.66        2976.00           1569          61.00       244.12
 1035.69        2976.25           1573          47.00       183.09
 1035.72        2976.50           1576          60.00       239.76
 1035.75        2976.75           1579          51.00       200.52
 1035.78        2977.00           1583          54.00       213.60
 1035.82        2977.25           1586          46.00       178.73
 1035.85        2977.50           1590          46.00       178.73
 1035.88        2977.75           1593          54.00       213.60
 1035.91        2978.00           1596          49.00       191.81
 1035.94        2978.25           1600          51.00       200.52
 1035.97        2978.50           1603          50.00       196.17
 1036.00        2978.75           1606          46.00       178.73
 1036.03        2979.00           1610          50.00       196.17
 1036.06        2979.25           1613          49.00       191.81
 1036.09        2979.50           1616          49.00       191.81
 1036.12        2979.75           1620          53.00       209.24
 1036.15        2980.00           1623          49.00       191.81
 1036.18        2980.25           1626          48.00       187.45
 1036.21        2980.50           1630          50.00       196.17
 1036.24        2980.75           1633          47.00       183.09
 1036.28        2981.00           1637          43.00       165.65
 1036.31        2981.25           1640          48.00       187.45
 1036.34        2981.50           1643          49.00       191.81
 1036.37        2981.75           1647          46.00       178.73
 1036.40        2982.00           1650          51.00       200.52
 1036.43        2982.25           1653          49.00       191.81
 1036.46        2982.50           1657          48.00       187.45
 1036.49        2982.75           1660          48.00       187.45
 1036.52        2983.00           1663          51.00       200.52
 1036.55        2983.25           1667          51.00       200.52
 1036.58        2983.50           1670          48.00       187.45
 1036.62        2983.75           1673          44.00       170.01
 1036.65        2984.00           1677          44.00       170.01
HS scan finished at 17:16:52
end
