************************************************************
  HS Scan of (1) Internal mercury lamp
************************************************************
Integration time is 0.2294 seconds per sample
dh020118Manchester 53.47 2.23 2.750537pr1000
************************************************************
Dead Time -------------------------  3E-08 
Number of Cycles Used -------------  4 
Starting Wavelength (Angstroms) ---  2950 
Final Wavelength (Angstoms) -------  2984 
Wavelength Increment (Angstroms) --  .25 
Filter Wheel #1 Position ---------- (1) Ground quartz diffuser (ND=2.32)
Filter Wheel #2 Position ---------- (1) Neutral Density 0.494



************************************************************
HS scan start time = 05:27:39
Dark Count =  5.8 


Time (GMT)  Wavelength (Ang)  Step Number  Raw Counts  Counts/Second

  328.03        2950.00           1222          57.00       223.19
  328.09        2950.25           1226          65.00       258.07
  328.12        2950.50           1229          67.00       266.79
  328.15        2950.75           1232          66.00       262.43
  328.19        2951.00           1236          60.00       236.27
  328.22        2951.25           1239          61.00       240.63
  328.25        2951.50           1242          68.00       271.14
  328.28        2951.75           1246          57.00       223.19
  328.31        2952.00           1249          63.00       249.35
  328.34        2952.25           1252          63.00       249.35
  328.37        2952.50           1256          59.00       231.91
  328.40        2952.75           1259          63.00       249.35
  328.43        2953.00           1262          54.00       210.11
  328.46        2953.25           1266          67.00       266.79
  328.49        2953.50           1269          53.00       205.76
  328.52        2953.75           1272          61.00       240.63
  328.55        2954.00           1276          61.00       240.63
  328.58        2954.25           1279          53.00       205.76
  328.62        2954.50           1282          56.00       218.83
  328.65        2954.75           1286          68.00       271.14
  328.68        2955.00           1289          61.00       240.63
  328.71        2955.25           1292          66.00       262.43
  328.74        2955.50           1296          59.00       231.91
  328.77        2955.75           1299          66.00       262.43
  328.80        2956.00           1302          57.00       223.19
  328.83        2956.25           1306          67.00       266.79
  328.86        2956.50           1309          59.00       231.91
  328.89        2956.75           1312          67.00       266.79
  328.92        2957.00           1316          67.00       266.79
  328.95        2957.25           1319          63.00       249.35
  328.99        2957.50           1322          57.00       223.19
  329.02        2957.75           1326          66.00       262.43
  329.05        2958.00           1329          66.00       262.43
  329.08        2958.25           1332          59.00       231.91
  329.11        2958.50           1336          61.00       240.63
  329.14        2958.75           1339          62.00       244.99
  329.17        2959.00           1342          59.00       231.91
  329.20        2959.25           1346          60.00       236.27
  329.23        2959.50           1349          75.00       301.66
  329.26        2959.75           1352          92.00       375.77
  329.29        2960.00           1356         100.00       410.64
  329.32        2960.25           1359         136.00       567.58
  329.36        2960.50           1362         165.00       694.00
  329.39        2960.75           1366         211.00       894.53
  329.42        2961.00           1369         266.00      1134.30
  329.45        2961.25           1372         297.00      1269.45
  329.48        2961.50           1376         383.00      1644.37
  329.51        2961.75           1379         573.00      2472.72
  329.54        2962.00           1382        1302.00      5651.35
  329.57        2962.25           1386        3012.00     13109.78
  329.60        2962.50           1389        4312.00     18782.16
  329.63        2962.75           1392        5813.00     25333.99
  329.67        2963.00           1396        7656.00     33382.15
  329.70        2963.25           1399        9056.00     39498.39
  329.73        2963.50           1402       10752.00     46910.79
  329.76        2963.75           1406       12957.00     56552.71
  329.79        2964.00           1409       14446.00     63066.90
  329.82        2964.25           1412       16003.00     69881.31
  329.85        2964.50           1416       18138.00     79229.95
  329.88        2964.75           1419       19575.00     85525.18
  329.91        2965.00           1422       21202.00     92655.62
  329.95        2965.25           1426       23210.00    101460.10
  329.98        2965.50           1429       24718.00    108075.20
  330.01        2965.75           1432       26166.00    114429.70
  330.04        2966.00           1436       28258.00    123614.50
  330.07        2966.25           1439       29603.00    129522.40
  330.10        2966.50           1442       30979.00    135568.60
  330.13        2966.75           1446       32363.00    141652.10
  330.16        2967.00           1449       32983.00    144378.10
  330.19        2967.25           1452       33044.00    144646.40
  330.22        2967.50           1456       32967.00    144307.80
  330.26        2967.75           1459       33094.00    144866.20
  330.29        2968.00           1462       32886.00    143951.60
  330.32        2968.25           1466       31855.00    139418.90
  330.35        2968.50           1469       30601.00    133907.40
  330.38        2968.75           1472       29186.00    127690.50
  330.41        2969.00           1476       27271.00    119280.50
  330.44        2969.25           1479       25932.00    113402.60
  330.47        2969.50           1482       24477.00    107017.80
  330.50        2969.75           1486       22253.00     97263.34
  330.53        2970.00           1489       20879.00     91239.81
  330.57        2970.25           1492       19264.00     84162.54
  330.60        2970.50           1496       17193.00     75091.38
  330.63        2970.75           1499       15797.00     68979.56
  330.66        2971.00           1502       14214.00     62051.76
  330.69        2971.25           1506       12104.00     52822.09
  330.72        2971.50           1509       10547.00     46014.66
  330.75        2971.75           1513        8646.00     37706.98
  330.78        2972.00           1516        7062.00     30787.80
  330.81        2972.25           1519        5698.00     24831.92
  330.85        2972.50           1523        3673.00     15993.72
  330.88        2972.75           1526        2197.00      9554.61
  330.91        2973.00           1529        1016.00      4404.24
  330.94        2973.25           1533         427.00      1836.20
  330.97        2973.50           1536         346.00      1483.07
  331.00        2973.75           1539         264.00      1125.58
  331.03        2974.00           1543         228.00       968.64
  331.06        2974.25           1546         175.00       737.59
  331.09        2974.50           1549         136.00       567.58
  331.12        2974.75           1553          98.00       401.92
  331.16        2975.00           1556          68.00       271.14
  331.19        2975.25           1559          66.00       262.43
  331.22        2975.50           1563          59.00       231.91
  331.25        2975.75           1566          64.00       253.71
  331.28        2976.00           1569          53.00       205.76
  331.31        2976.25           1573          62.00       244.99
  331.34        2976.50           1576          60.00       236.27
  331.37        2976.75           1579          64.00       253.71
  331.40        2977.00           1583          62.00       244.99
  331.43        2977.25           1586          53.00       205.76
  331.46        2977.50           1590          58.00       227.55
  331.49        2977.75           1593          56.00       218.83
  331.52        2978.00           1596          57.00       223.19
  331.56        2978.25           1600          53.00       205.76
  331.59        2978.50           1603          60.00       236.27
  331.62        2978.75           1606          51.00       197.04
  331.65        2979.00           1610          58.00       227.55
  331.68        2979.25           1613          58.00       227.55
  331.71        2979.50           1616          62.00       244.99
  331.74        2979.75           1620          51.00       197.04
  331.77        2980.00           1623          59.00       231.91
  331.80        2980.25           1626          52.00       201.40
  331.83        2980.50           1630          56.00       218.83
  331.86        2980.75           1633          55.00       214.47
  331.90        2981.00           1637          57.00       223.19
  331.93        2981.25           1640          57.00       223.19
  331.96        2981.50           1643          59.00       231.91
  331.99        2981.75           1647          52.00       201.40
  332.02        2982.00           1650          63.00       249.35
  332.05        2982.25           1653          64.00       253.71
  332.08        2982.50           1657          56.00       218.83
  332.11        2982.75           1660          56.00       218.83
  332.14        2983.00           1663          54.00       210.11
  332.17        2983.25           1667          55.00       214.47
  332.20        2983.50           1670          55.00       214.47
  332.24        2983.75           1673          59.00       231.91
  332.27        2984.00           1677          64.00       253.71
HS scan finished at 05:32:29
end
************************************************************
  HS Scan of (1) Internal mercury lamp
************************************************************
Integration time is 0.2294 seconds per sample
dh020118Manchester 53.47 2.23 2.804185pr1000
************************************************************
Dead Time -------------------------  3E-08 
Number of Cycles Used -------------  4 
Starting Wavelength (Angstroms) ---  2950 
Final Wavelength (Angstoms) -------  2984 
Wavelength Increment (Angstroms) --  .25 
Filter Wheel #1 Position ---------- (1) Ground quartz diffuser (ND=2.32)
Filter Wheel #2 Position ---------- (1) Neutral Density 0.494



************************************************************
HS scan start time = 17:12:01
Dark Count =  7.9 


Time (GMT)  Wavelength (Ang)  Step Number  Raw Counts  Counts/Second

 1032.38        2950.00           1222          62.00       235.83
 1032.45        2950.25           1226          70.00       270.71
 1032.48        2950.50           1229          57.00       214.04
 1032.51        2950.75           1232          56.00       209.68
 1032.54        2951.00           1236          64.00       244.55
 1032.57        2951.25           1239          66.00       253.27
 1032.60        2951.50           1242          67.00       257.63
 1032.64        2951.75           1246          63.00       240.19
 1032.67        2952.00           1249          62.00       235.83
 1032.70        2952.25           1252          61.00       231.48
 1032.73        2952.50           1256          58.00       218.40
 1032.76        2952.75           1259          69.00       266.35
 1032.79        2953.00           1262          57.00       214.04
 1032.82        2953.25           1266          59.00       222.76
 1032.85        2953.50           1269          62.00       235.83
 1032.88        2953.75           1272          68.00       261.99
 1032.91        2954.00           1276          66.00       253.27
 1032.94        2954.25           1279          66.00       253.27
 1032.97        2954.50           1282          62.00       235.83
 1033.00        2954.75           1286          60.00       227.12
 1033.04        2955.00           1289          61.00       231.48
 1033.07        2955.25           1292          64.00       244.55
 1033.10        2955.50           1296          59.00       222.76
 1033.13        2955.75           1299          57.00       214.04
 1033.16        2956.00           1302          50.00       183.52
 1033.19        2956.25           1306          61.00       231.48
 1033.22        2956.50           1309          63.00       240.19
 1033.25        2956.75           1312          69.00       266.35
 1033.28        2957.00           1316          65.00       248.91
 1033.31        2957.25           1319          76.00       296.86
 1033.34        2957.50           1322          66.00       253.27
 1033.37        2957.75           1326          64.00       244.55
 1033.41        2958.00           1329          59.00       222.76
 1033.44        2958.25           1332          62.00       235.83
 1033.47        2958.50           1336          57.00       214.04
 1033.50        2958.75           1339          73.00       283.79
 1033.53        2959.00           1342          62.00       235.83
 1033.56        2959.25           1346          68.00       261.99
 1033.59        2959.50           1349          78.00       305.58
 1033.62        2959.75           1352          87.00       344.82
 1033.65        2960.00           1356         131.00       536.63
 1033.68        2960.25           1359         152.00       628.17
 1033.71        2960.50           1362         177.00       737.16
 1033.75        2960.75           1366         226.00       950.77
 1033.78        2961.00           1369         284.00      1203.62
 1033.81        2961.25           1372         304.00      1290.81
 1033.84        2961.50           1376         371.00      1582.90
 1033.87        2961.75           1379         560.00      2406.89
 1033.90        2962.00           1382        1135.00      4913.98
 1033.93        2962.25           1386        2754.00     11975.10
 1033.96        2962.50           1389        4178.00     18188.21
 1033.99        2962.75           1392        5666.00     24683.05
 1034.02        2963.00           1396        7546.00     32892.51
 1034.05        2963.25           1399        9156.00     39926.18
 1034.09        2963.50           1402       10825.00     47220.73
 1034.12        2963.75           1406       12813.00     55913.68
 1034.15        2964.00           1409       14520.00     63381.53
 1034.18        2964.25           1412       16105.00     70318.63
 1034.21        2964.50           1416       18143.00     79242.66
 1034.24        2964.75           1419       19488.00     85134.77
 1034.27        2965.00           1422       21066.00     92050.28
 1034.30        2965.25           1426       22997.00    100516.70
 1034.33        2965.50           1429       24551.00    107333.30
 1034.36        2965.75           1432       26003.00    113705.00
 1034.40        2966.00           1436       28343.00    123978.60
 1034.43        2966.25           1439       29679.00    129847.00
 1034.46        2966.50           1442       30942.00    135396.70
 1034.49        2966.75           1446       32499.00    142240.80
 1034.52        2967.00           1449       32975.00    144333.80
 1034.55        2967.25           1452       32893.00    143973.20
 1034.58        2967.50           1456       33053.00    144676.70
 1034.61        2967.75           1459       33035.00    144597.60
 1034.64        2968.00           1462       32590.00    142640.90
 1034.68        2968.25           1466       31923.00    139708.60
 1034.71        2968.50           1469       30448.00    133225.80
 1034.74        2968.75           1472       29016.00    126934.50
 1034.77        2969.00           1476       27076.00    118415.10
 1034.80        2969.25           1479       25604.00    111953.90
 1034.83        2969.50           1482       23919.00    104560.70
 1034.86        2969.75           1486       22031.00     96280.75
 1034.89        2970.00           1489       20222.00     88351.13
 1034.92        2970.25           1492       18860.00     82383.40
 1034.95        2970.50           1496       16915.00     73864.90
 1034.98        2970.75           1499       15459.00     67490.93
 1035.02        2971.00           1502       13981.00     61023.12
 1035.05        2971.25           1506       11870.00     51789.64
 1035.08        2971.50           1509       10402.00     45371.65
 1035.11        2971.75           1513        8329.00     36312.86
 1035.14        2972.00           1516        6711.00     29245.79
 1035.17        2972.25           1519        5244.00     22840.85
 1035.20        2972.50           1523        3238.00     14086.60
 1035.23        2972.75           1526        1936.00      8407.09
 1035.26        2973.00           1529         793.00      3422.76
 1035.29        2973.25           1533         396.00      1691.89
 1035.32        2973.50           1536         288.00      1221.06
 1035.35        2973.75           1539         250.00      1055.40
 1035.39        2974.00           1543         211.00       885.38
 1035.42        2974.25           1546         147.00       606.38
 1035.45        2974.50           1549         133.00       545.34
 1035.48        2974.75           1553          92.00       366.61
 1035.51        2975.00           1556          78.00       305.58
 1035.54        2975.25           1559          68.00       261.99
 1035.57        2975.50           1563          62.00       235.83
 1035.60        2975.75           1566          60.00       227.12
 1035.63        2976.00           1569          64.00       244.55
 1035.66        2976.25           1573          57.00       214.04
 1035.69        2976.50           1576          53.00       196.60
 1035.72        2976.75           1579          50.00       183.52
 1035.75        2977.00           1583          56.00       209.68
 1035.79        2977.25           1586          53.00       196.60
 1035.82        2977.50           1590          62.00       235.83
 1035.85        2977.75           1593          63.00       240.19
 1035.88        2978.00           1596          61.00       231.48
 1035.91        2978.25           1600          61.00       231.48
 1035.94        2978.50           1603          58.00       218.40
 1035.97        2978.75           1606          68.00       261.99
 1036.00        2979.00           1610          60.00       227.12
 1036.03        2979.25           1613          52.00       192.24
 1036.06        2979.50           1616          55.00       205.32
 1036.09        2979.75           1620          67.00       257.63
 1036.12        2980.00           1623          55.00       205.32
 1036.15        2980.25           1626          52.00       192.24
 1036.18        2980.50           1630          56.00       209.68
 1036.22        2980.75           1633          55.00       205.32
 1036.25        2981.00           1637          64.00       244.55
 1036.28        2981.25           1640          54.00       200.96
 1036.31        2981.50           1643          58.00       218.40
 1036.34        2981.75           1647          57.00       214.04
 1036.37        2982.00           1650          58.00       218.40
 1036.40        2982.25           1653          65.00       248.91
 1036.43        2982.50           1657          45.00       161.73
 1036.46        2982.75           1660          59.00       222.76
 1036.49        2983.00           1663          60.00       227.12
 1036.52        2983.25           1667          54.00       200.96
 1036.56        2983.50           1670          54.00       200.96
 1036.59        2983.75           1673          57.00       214.04
 1036.62        2984.00           1677          49.00       179.16
HS scan finished at 17:16:50
end
