************************************************************
  HS Scan of (1) Internal mercury lamp
************************************************************
Integration time is 0.2294 seconds per sample
dh080117Manchester 53.47 2.23 2.804185pr1000
************************************************************
Dead Time -------------------------  3E-08 
Number of Cycles Used -------------  4 
Starting Wavelength (Angstroms) ---  2950 
Final Wavelength (Angstoms) -------  2984 
Wavelength Increment (Angstroms) --  .25 
Filter Wheel #1 Position ---------- (1) Ground quartz diffuser (ND=2.32)
Filter Wheel #2 Position ---------- (1) Neutral Density 0.494



************************************************************
HS scan start time = 05:25:31
Dark Count =  6.5 


Time (GMT)  Wavelength (Ang)  Step Number  Raw Counts  Counts/Second

  325.89        2950.00           1222          39.00       141.67
  325.96        2950.25           1226          45.00       167.83
  325.99        2950.50           1229          40.00       146.03
  326.02        2950.75           1232          48.00       180.91
  326.05        2951.00           1236          41.00       150.39
  326.08        2951.25           1239          44.00       163.47
  326.11        2951.50           1242          41.00       150.39
  326.15        2951.75           1246          47.00       176.55
  326.18        2952.00           1249          47.00       176.55
  326.21        2952.25           1252          44.00       163.47
  326.24        2952.50           1256          42.00       154.75
  326.27        2952.75           1259          43.00       159.11
  326.30        2953.00           1262          45.00       167.83
  326.33        2953.25           1266          42.00       154.75
  326.36        2953.50           1269          50.00       189.63
  326.39        2953.75           1272          54.00       207.06
  326.42        2954.00           1276          44.00       163.47
  326.45        2954.25           1279          40.00       146.03
  326.48        2954.50           1282          41.00       150.39
  326.51        2954.75           1286          44.00       163.47
  326.54        2955.00           1289          39.00       141.67
  326.57        2955.25           1292          46.00       172.19
  326.60        2955.50           1296          53.00       202.70
  326.63        2955.75           1299          48.00       180.91
  326.67        2956.00           1302          47.00       176.55
  326.70        2956.25           1306          45.00       167.83
  326.73        2956.50           1309          44.00       163.47
  326.76        2956.75           1312          43.00       159.11
  326.79        2957.00           1316          48.00       180.91
  326.82        2957.25           1319          43.00       159.11
  326.85        2957.50           1322          36.00       128.60
  326.88        2957.75           1326          50.00       189.63
  326.91        2958.00           1329          44.00       163.47
  326.94        2958.25           1332          47.00       176.55
  326.98        2958.50           1336          43.00       159.11
  327.01        2958.75           1339          48.00       180.91
  327.04        2959.00           1342          39.00       141.67
  327.07        2959.25           1346          53.00       202.70
  327.10        2959.50           1349          48.00       180.91
  327.13        2959.75           1352          50.00       189.63
  327.16        2960.00           1356          87.00       350.92
  327.19        2960.25           1359         112.00       459.90
  327.22        2960.50           1362         150.00       625.56
  327.25        2960.75           1366         189.00       795.57
  327.28        2961.00           1369         257.00      1092.01
  327.31        2961.25           1372         288.00      1227.16
  327.34        2961.50           1376         362.00      1549.77
  327.37        2961.75           1379         527.00      2269.12
  327.40        2962.00           1382        1044.00      4523.28
  327.43        2962.25           1386        2617.00     11383.57
  327.47        2962.50           1389        4128.00     17976.13
  327.50        2962.75           1392        5748.00     25047.15
  327.53        2963.00           1396        8023.00     34982.20
  327.56        2963.25           1399        9593.00     41841.94
  327.59        2963.50           1402       11235.00     49019.29
  327.62        2963.75           1406       13588.00     59309.89
  327.65        2964.00           1409       15201.00     66367.85
  327.68        2964.25           1412       16862.00     73638.96
  327.71        2964.50           1416       19167.00     83734.50
  327.75        2964.75           1419       20873.00     91210.44
  327.78        2965.00           1422       22408.00     97939.93
  327.81        2965.25           1426       24636.00    107712.40
  327.84        2965.50           1429       26378.00    115357.10
  327.87        2965.75           1432       27992.00    122443.30
  327.90        2966.00           1436       30379.00    132928.80
  327.93        2966.25           1439       31989.00    140004.90
  327.96        2966.50           1442       33437.00    146371.50
  327.99        2966.75           1446       35114.00    153748.10
  328.03        2967.00           1449       35720.00    156414.50
  328.06        2967.25           1452       35700.00    156326.50
  328.09        2967.50           1456       35732.00    156467.30
  328.12        2967.75           1459       35634.00    156036.10
  328.15        2968.00           1462       35606.00    155912.80
  328.18        2968.25           1466       35070.00    153554.50
  328.21        2968.50           1469       33695.00    147506.10
  328.24        2968.75           1472       32096.00    140475.20
  328.27        2969.00           1476       29966.00    131114.10
  328.30        2969.25           1479       28408.00    124270.20
  328.34        2969.50           1482       26666.00    116621.40
  328.37        2969.75           1486       24416.00    106747.20
  328.40        2970.00           1489       22798.00     99650.12
  328.43        2970.25           1492       21110.00     92249.28
  328.46        2970.50           1496       19191.00     83839.63
  328.49        2970.75           1499       17564.00     76712.96
  328.52        2971.00           1502       16063.00     70140.90
  328.55        2971.25           1506       13831.00     60372.98
  328.58        2971.50           1509       12167.00     53094.53
  328.62        2971.75           1513        9708.00     42344.52
  328.65        2972.00           1516        8058.00     35135.10
  328.68        2972.25           1519        6438.00     28059.79
  328.71        2972.50           1523        4399.00     19158.79
  328.74        2972.75           1526        2839.00     12352.01
  328.77        2973.00           1529        1595.00      6926.03
  328.80        2973.25           1533         570.00      2456.59
  328.83        2973.50           1536         406.00      1741.59
  328.86        2973.75           1539         314.00      1340.51
  328.89        2974.00           1543         276.00      1174.85
  328.93        2974.25           1546         213.00       900.20
  328.96        2974.50           1549         180.00       756.34
  328.99        2974.75           1553         112.00       459.90
  329.02        2975.00           1556          92.00       372.72
  329.05        2975.25           1559          68.00       268.09
  329.08        2975.50           1563          46.00       172.19
  329.11        2975.75           1566          50.00       189.63
  329.14        2976.00           1569          47.00       176.55
  329.17        2976.25           1573          43.00       159.11
  329.20        2976.50           1576          48.00       180.91
  329.24        2976.75           1579          47.00       176.55
  329.27        2977.00           1583          42.00       154.75
  329.30        2977.25           1586          42.00       154.75
  329.33        2977.50           1590          44.00       163.47
  329.36        2977.75           1593          42.00       154.75
  329.39        2978.00           1596          42.00       154.75
  329.42        2978.25           1600          43.00       159.11
  329.45        2978.50           1603          40.00       146.03
  329.48        2978.75           1606          39.00       141.67
  329.51        2979.00           1610          43.00       159.11
  329.54        2979.25           1613          42.00       154.75
  329.57        2979.50           1616          45.00       167.83
  329.61        2979.75           1620          39.00       141.67
  329.64        2980.00           1623          50.00       189.63
  329.67        2980.25           1626          48.00       180.91
  329.70        2980.50           1630          48.00       180.91
  329.73        2980.75           1633          40.00       146.03
  329.76        2981.00           1637          37.00       132.96
  329.79        2981.25           1640          41.00       150.39
  329.82        2981.50           1643          41.00       150.39
  329.85        2981.75           1647          48.00       180.91
  329.88        2982.00           1650          46.00       172.19
  329.91        2982.25           1653          39.00       141.67
  329.94        2982.50           1657          42.00       154.75
  329.97        2982.75           1660          41.00       150.39
  330.01        2983.00           1663          46.00       172.19
  330.04        2983.25           1667          46.00       172.19
  330.07        2983.50           1670          42.00       154.75
  330.10        2983.75           1673          43.00       159.11
  330.13        2984.00           1677          41.00       150.39
HS scan finished at 05:30:21
end
************************************************************
  HS Scan of (1) Internal mercury lamp
************************************************************
Integration time is 0.2294 seconds per sample
dh080117Manchester 53.47 2.23 2.804185pr1000
************************************************************
Dead Time -------------------------  3E-08 
Number of Cycles Used -------------  4 
Starting Wavelength (Angstroms) ---  2950 
Final Wavelength (Angstoms) -------  2984 
Wavelength Increment (Angstroms) --  .25 
Filter Wheel #1 Position ---------- (1) Ground quartz diffuser (ND=2.32)
Filter Wheel #2 Position ---------- (1) Neutral Density 0.494



************************************************************
HS scan start time = 17:13:17
Dark Count =  9.100001 


Time (GMT)  Wavelength (Ang)  Step Number  Raw Counts  Counts/Second

 1033.65        2950.00           1222          44.00       152.14
 1033.72        2950.25           1226          49.00       173.93
 1033.75        2950.50           1229          41.00       139.06
 1033.78        2950.75           1232          46.00       160.86
 1033.81        2951.00           1236          46.00       160.86
 1033.84        2951.25           1239          53.00       191.37
 1033.88        2951.50           1242          43.00       147.78
 1033.91        2951.75           1246          50.00       178.29
 1033.94        2952.00           1249          46.00       160.86
 1033.97        2952.25           1252          39.00       130.34
 1034.00        2952.50           1256          48.00       169.57
 1034.03        2952.75           1259          42.00       143.42
 1034.06        2953.00           1262          42.00       143.42
 1034.09        2953.25           1266          44.00       152.14
 1034.12        2953.50           1269          50.00       178.29
 1034.15        2953.75           1272          39.00       130.34
 1034.18        2954.00           1276          46.00       160.86
 1034.21        2954.25           1279          42.00       143.42
 1034.24        2954.50           1282          50.00       178.29
 1034.27        2954.75           1286          53.00       191.37
 1034.30        2955.00           1289          46.00       160.86
 1034.33        2955.25           1292          46.00       160.86
 1034.36        2955.50           1296          52.00       187.01
 1034.39        2955.75           1299          44.00       152.14
 1034.43        2956.00           1302          47.00       165.21
 1034.46        2956.25           1306          44.00       152.14
 1034.49        2956.50           1309          45.00       156.50
 1034.52        2956.75           1312          42.00       143.42
 1034.55        2957.00           1316          42.00       143.42
 1034.58        2957.25           1319          40.00       134.70
 1034.61        2957.50           1322          39.00       130.34
 1034.64        2957.75           1326          47.00       165.21
 1034.67        2958.00           1329          46.00       160.86
 1034.70        2958.25           1332          41.00       139.06
 1034.73        2958.50           1336          48.00       169.57
 1034.76        2958.75           1339          46.00       160.86
 1034.79        2959.00           1342          49.00       173.93
 1034.83        2959.25           1346          43.00       147.78
 1034.86        2959.50           1349          47.00       165.21
 1034.89        2959.75           1352          64.00       239.32
 1034.92        2960.00           1356          93.00       365.74
 1034.95        2960.25           1359         112.00       448.57
 1034.98        2960.50           1362         153.00       627.30
 1035.01        2960.75           1366         203.00       845.27
 1035.04        2961.00           1369         258.00      1085.04
 1035.07        2961.25           1372         285.00      1202.75
 1035.10        2961.50           1376         371.00      1577.67
 1035.13        2961.75           1379         574.00      2462.69
 1035.16        2962.00           1382        1190.00      5148.57
 1035.19        2962.25           1386        2923.00     12707.11
 1035.23        2962.50           1389        4531.00     19723.52
 1035.26        2962.75           1392        6169.00     26873.88
 1035.29        2963.00           1396        8187.00     35687.27
 1035.32        2963.25           1399        9817.00     42809.52
 1035.35        2963.50           1402       11249.00     49069.14
 1035.38        2963.75           1406       13702.00     59797.24
 1035.41        2964.00           1409       15375.00     67118.01
 1035.44        2964.25           1412       16818.00     73434.93
 1035.47        2964.50           1416       19194.00     83841.40
 1035.50        2964.75           1419       20689.00     90392.58
 1035.53        2965.00           1422       22325.00     97564.58
 1035.57        2965.25           1426       24720.00    108069.50
 1035.60        2965.50           1429       26394.00    115416.00
 1035.63        2965.75           1432       28152.00    123134.50
 1035.66        2966.00           1436       30157.00    131941.90
 1035.69        2966.25           1439       31877.00    139501.10
 1035.72        2966.50           1442       33283.00    145682.90
 1035.75        2966.75           1446       34919.00    152878.70
 1035.78        2967.00           1449       35490.00    155391.00
 1035.81        2967.25           1452       35603.00    155888.20
 1035.85        2967.50           1456       35417.00    155069.80
 1035.88        2967.75           1459       35340.00    154731.00
 1035.91        2968.00           1462       35428.00    155118.20
 1035.94        2968.25           1466       34355.00    150397.60
 1035.97        2968.50           1469       33272.00    145634.50
 1036.00        2968.75           1472       31715.00    138789.00
 1036.03        2969.00           1476       29557.00    129305.80
 1036.06        2969.25           1479       27854.00    121825.90
 1036.09        2969.50           1482       26201.00    114568.80
 1036.13        2969.75           1486       24021.00    105002.90
 1036.16        2970.00           1489       22589.00     98722.21
 1036.19        2970.25           1492       20954.00     91554.09
 1036.22        2970.50           1496       18841.00     82294.91
 1036.25        2970.75           1499       17358.00     75799.46
 1036.28        2971.00           1502       15532.00     67805.19
 1036.31        2971.25           1506       13116.00     57233.76
 1036.34        2971.50           1509       11503.00     50179.67
 1036.37        2971.75           1513        9361.00     40816.74
 1036.40        2972.00           1516        7775.00     33887.52
 1036.44        2972.25           1519        6080.00     26485.29
 1036.47        2972.50           1523        4036.00     17563.31
 1036.50        2972.75           1526        2511.00     10909.85
 1036.53        2973.00           1529        1216.00      5261.95
 1036.56        2973.25           1533         467.00      1996.20
 1036.59        2973.50           1536         352.00      1494.84
 1036.62        2973.75           1539         281.00      1185.31
 1036.65        2974.00           1543         248.00      1041.44
 1036.68        2974.25           1546         199.00       827.83
 1036.71        2974.50           1549         162.00       666.53
 1036.74        2974.75           1553         100.00       396.26
 1036.78        2975.00           1556          78.00       300.35
 1036.81        2975.25           1559          63.00       234.96
 1036.84        2975.50           1563          53.00       191.37
 1036.87        2975.75           1566          49.00       173.93
 1036.90        2976.00           1569          41.00       139.06
 1036.93        2976.25           1573          47.00       165.21
 1036.96        2976.50           1576          51.00       182.65
 1036.99        2976.75           1579          43.00       147.78
 1037.02        2977.00           1583          48.00       169.57
 1037.05        2977.25           1586          41.00       139.06
 1037.08        2977.50           1590          43.00       147.78
 1037.11        2977.75           1593          42.00       143.42
 1037.15        2978.00           1596          42.00       143.42
 1037.18        2978.25           1600          51.00       182.65
 1037.21        2978.50           1603          47.00       165.21
 1037.24        2978.75           1606          46.00       160.86
 1037.27        2979.00           1610          50.00       178.29
 1037.30        2979.25           1613          41.00       139.06
 1037.33        2979.50           1616          37.00       121.62
 1037.36        2979.75           1620          42.00       143.42
 1037.39        2980.00           1623          38.00       125.98
 1037.42        2980.25           1626          42.00       143.42
 1037.45        2980.50           1630          45.00       156.50
 1037.48        2980.75           1633          43.00       147.78
 1037.52        2981.00           1637          41.00       139.06
 1037.55        2981.25           1640          44.00       152.14
 1037.58        2981.50           1643          41.00       139.06
 1037.61        2981.75           1647          44.00       152.14
 1037.64        2982.00           1650          36.00       117.26
 1037.67        2982.25           1653          48.00       169.57
 1037.70        2982.50           1657          47.00       165.21
 1037.73        2982.75           1660          48.00       169.57
 1037.76        2983.00           1663          42.00       143.42
 1037.79        2983.25           1667          44.00       152.14
 1037.82        2983.50           1670          45.00       156.50
 1037.86        2983.75           1673          46.00       160.86
 1037.89        2984.00           1677          54.00       195.73
HS scan finished at 17:18:06
end
