************************************************************
  HS Scan of (1) Internal mercury lamp
************************************************************
Integration time is 0.2294 seconds per sample
dh190117Manchester 53.47 2.23 2.804185pr1000
************************************************************
Dead Time -------------------------  3E-08 
Number of Cycles Used -------------  4 
Starting Wavelength (Angstroms) ---  2950 
Final Wavelength (Angstoms) -------  2984 
Wavelength Increment (Angstroms) --  .25 
Filter Wheel #1 Position ---------- (1) Ground quartz diffuser (ND=2.32)
Filter Wheel #2 Position ---------- (1) Neutral Density 0.494



************************************************************
HS scan start time = 05:19:32
Dark Count =  5.3 


Time (GMT)  Wavelength (Ang)  Step Number  Raw Counts  Counts/Second

  319.90        2950.00           1222          47.00       181.78
  319.97        2950.25           1226          40.00       151.26
  320.00        2950.50           1229          40.00       151.26
  320.03        2950.75           1232          46.00       177.42
  320.06        2951.00           1236          40.00       151.26
  320.09        2951.25           1239          40.00       151.26
  320.12        2951.50           1242          49.00       190.50
  320.15        2951.75           1246          41.00       155.62
  320.18        2952.00           1249          46.00       177.42
  320.21        2952.25           1252          46.00       177.42
  320.24        2952.50           1256          69.00       277.68
  320.27        2952.75           1259          42.00       159.98
  320.30        2953.00           1262          36.00       133.83
  320.33        2953.25           1266          48.00       186.14
  320.37        2953.50           1269          53.00       207.94
  320.40        2953.75           1272          40.00       151.26
  320.43        2954.00           1276          42.00       159.98
  320.46        2954.25           1279          45.00       173.06
  320.49        2954.50           1282          44.00       168.70
  320.52        2954.75           1286          48.00       186.14
  320.55        2955.00           1289          44.00       168.70
  320.58        2955.25           1292          44.00       168.70
  320.61        2955.50           1296          46.00       177.42
  320.64        2955.75           1299          48.00       186.14
  320.67        2956.00           1302          49.00       190.50
  320.70        2956.25           1306          43.00       164.34
  320.74        2956.50           1309          53.00       207.94
  320.77        2956.75           1312          46.00       177.42
  320.80        2957.00           1316          48.00       186.14
  320.83        2957.25           1319          53.00       207.94
  320.86        2957.50           1322          46.00       177.42
  320.89        2957.75           1326          47.00       181.78
  320.92        2958.00           1329          41.00       155.62
  320.95        2958.25           1332          36.00       133.83
  320.98        2958.50           1336          41.00       155.62
  321.01        2958.75           1339          66.00       264.61
  321.04        2959.00           1342          42.00       159.98
  321.07        2959.25           1346          42.00       159.98
  321.11        2959.50           1349          43.00       164.34
  321.14        2959.75           1352          55.00       216.65
  321.17        2960.00           1356          71.00       286.40
  321.20        2960.25           1359         113.00       469.49
  321.23        2960.50           1362         140.00       587.19
  321.26        2960.75           1366         204.00       866.20
  321.29        2961.00           1369         248.00      1058.01
  321.32        2961.25           1372         285.00      1219.31
  321.35        2961.50           1376         355.00      1524.48
  321.38        2961.75           1379         487.00      2099.96
  321.42        2962.00           1382         856.00      3708.78
  321.45        2962.25           1386        2166.00      9421.58
  321.48        2962.50           1389        3825.00     16659.15
  321.51        2962.75           1392        5350.00     23314.91
  321.54        2963.00           1396        7536.00     32860.19
  321.57        2963.25           1399        9098.00     39684.10
  321.60        2963.50           1402       10633.00     46392.78
  321.63        2963.75           1406       12808.00     55903.18
  321.66        2964.00           1409       14661.00     64009.90
  321.69        2964.25           1412       16333.00     71328.15
  321.73        2964.50           1416       18702.00     81702.63
  321.76        2964.75           1419       20340.00     88879.66
  321.79        2965.00           1422       22002.00     96165.00
  321.82        2965.25           1426       24042.00    105111.70
  321.85        2965.50           1429       25601.00    111952.10
  321.88        2965.75           1432       27283.00    119335.40
  321.91        2966.00           1436       29660.00    129775.00
  321.94        2966.25           1439       31175.00    136432.20
  321.97        2966.50           1442       32845.00    143773.50
  322.00        2966.75           1446       34266.00    150022.90
  322.04        2967.00           1449       35364.00    154853.30
  322.07        2967.25           1452       35566.00    155742.10
  322.10        2967.50           1456       35687.00    156274.50
  322.13        2967.75           1459       35539.00    155623.30
  322.16        2968.00           1462       35383.00    154936.90
  322.19        2968.25           1466       34849.00    152587.50
  322.22        2968.50           1469       33818.00    148052.40
  322.25        2968.75           1472       32440.00    141992.90
  322.28        2969.00           1476       30573.00    133786.60
  322.31        2969.25           1479       28911.00    126484.70
  322.34        2969.50           1482       27416.00    119919.30
  322.38        2969.75           1486       25129.00    109880.80
  322.41        2970.00           1489       23572.00    103050.00
  322.44        2970.25           1492       21936.00     95875.63
  322.47        2970.50           1496       19368.00     84620.38
  322.50        2970.75           1499       17800.00     77751.77
  322.53        2971.00           1502       16242.00     70929.77
  322.56        2971.25           1506       14080.00     61467.65
  322.59        2971.50           1509       12416.00     54188.72
  322.62        2971.75           1513       10230.00     44631.21
  322.65        2972.00           1516        8596.00     37490.70
  322.69        2972.25           1519        6906.00     30108.71
  322.72        2972.50           1523        4870.00     21219.70
  322.75        2972.75           1526        3332.00     14508.06
  322.78        2973.00           1529        1885.00      8196.00
  322.81        2973.25           1533         666.00      2880.37
  322.84        2973.50           1536         383.00      1646.55
  322.87        2973.75           1539         300.00      1284.71
  322.90        2974.00           1543         243.00      1036.21
  322.93        2974.25           1546         196.00       831.32
  322.96        2974.50           1549         163.00       687.46
  322.99        2974.75           1553          96.00       395.38
  323.02        2975.00           1556          70.00       282.04
  323.06        2975.25           1559          61.00       242.81
  323.09        2975.50           1563          50.00       194.86
  323.12        2975.75           1566          47.00       181.78
  323.15        2976.00           1569          45.00       173.06
  323.18        2976.25           1573          43.00       164.34
  323.21        2976.50           1576          40.00       151.26
  323.24        2976.75           1579          44.00       168.70
  323.27        2977.00           1583          47.00       181.78
  323.30        2977.25           1586          53.00       207.94
  323.33        2977.50           1590          52.00       203.58
  323.36        2977.75           1593          44.00       168.70
  323.39        2978.00           1596          47.00       181.78
  323.43        2978.25           1600          38.00       142.55
  323.46        2978.50           1603          42.00       159.98
  323.49        2978.75           1606          44.00       168.70
  323.52        2979.00           1610          47.00       181.78
  323.55        2979.25           1613          41.00       155.62
  323.58        2979.50           1616          42.00       159.98
  323.61        2979.75           1620          47.00       181.78
  323.64        2980.00           1623          39.00       146.91
  323.67        2980.25           1626          43.00       164.34
  323.70        2980.50           1630          42.00       159.98
  323.73        2980.75           1633          46.00       177.42
  323.77        2981.00           1637          43.00       164.34
  323.80        2981.25           1640          49.00       190.50
  323.83        2981.50           1643          39.00       146.91
  323.86        2981.75           1647          38.00       142.55
  323.89        2982.00           1650          41.00       155.62
  323.92        2982.25           1653          46.00       177.42
  323.95        2982.50           1657          40.00       151.26
  323.98        2982.75           1660          35.00       129.47
  324.01        2983.00           1663          38.00       142.55
  324.04        2983.25           1667          47.00       181.78
  324.07        2983.50           1670          48.00       186.14
  324.10        2983.75           1673          52.00       203.58
  324.13        2984.00           1677          40.00       151.26
HS scan finished at 05:24:21
end
************************************************************
  HS Scan of (1) Internal mercury lamp
************************************************************
Integration time is 0.2294 seconds per sample
dh190117Manchester 53.47 2.23 2.804185pr1000
************************************************************
Dead Time -------------------------  3E-08 
Number of Cycles Used -------------  4 
Starting Wavelength (Angstroms) ---  2950 
Final Wavelength (Angstoms) -------  2984 
Wavelength Increment (Angstroms) --  .25 
Filter Wheel #1 Position ---------- (1) Ground quartz diffuser (ND=2.32)
Filter Wheel #2 Position ---------- (1) Neutral Density 0.494



************************************************************
HS scan start time = 17:41:59
Dark Count =  8.3 


Time (GMT)  Wavelength (Ang)  Step Number  Raw Counts  Counts/Second

 1062.36        2950.00           1222          44.00       155.62
 1062.42        2950.25           1226          46.00       164.34
 1062.45        2950.50           1229          50.00       181.78
 1062.48        2950.75           1232          44.00       155.62
 1062.51        2951.00           1236          43.00       151.26
 1062.54        2951.25           1239          45.00       159.98
 1062.58        2951.50           1242          48.00       173.06
 1062.61        2951.75           1246          38.00       129.47
 1062.64        2952.00           1249          45.00       159.98
 1062.67        2952.25           1252          36.00       120.75
 1062.70        2952.50           1256          45.00       159.98
 1062.73        2952.75           1259          46.00       164.34
 1062.76        2953.00           1262          40.00       138.19
 1062.79        2953.25           1266          42.00       146.91
 1062.82        2953.50           1269          42.00       146.91
 1062.85        2953.75           1272          48.00       173.06
 1062.88        2954.00           1276          34.00       112.03
 1062.91        2954.25           1279          37.00       125.11
 1062.95        2954.50           1282          48.00       173.06
 1062.98        2954.75           1286          45.00       159.98
 1063.01        2955.00           1289          43.00       151.26
 1063.04        2955.25           1292          43.00       151.26
 1063.07        2955.50           1296          40.00       138.19
 1063.10        2955.75           1299          44.00       155.62
 1063.13        2956.00           1302          39.00       133.83
 1063.16        2956.25           1306          39.00       133.83
 1063.19        2956.50           1309          43.00       151.26
 1063.22        2956.75           1312          45.00       159.98
 1063.25        2957.00           1316          40.00       138.19
 1063.28        2957.25           1319          43.00       151.26
 1063.31        2957.50           1322          43.00       151.26
 1063.35        2957.75           1326          40.00       138.19
 1063.38        2958.00           1329          38.00       129.47
 1063.41        2958.25           1332          50.00       181.78
 1063.44        2958.50           1336          47.00       168.70
 1063.47        2958.75           1339          53.00       194.86
 1063.50        2959.00           1342          42.00       146.91
 1063.53        2959.25           1346          50.00       181.78
 1063.56        2959.50           1349          55.00       203.58
 1063.59        2959.75           1352          58.00       216.65
 1063.62        2960.00           1356         100.00       399.74
 1063.65        2960.25           1359         120.00       486.93
 1063.68        2960.50           1362         173.00       717.98
 1063.72        2960.75           1366         227.00       953.38
 1063.75        2961.00           1369         258.00      1088.53
 1063.78        2961.25           1372         304.00      1289.06
 1063.81        2961.50           1376         411.00      1755.54
 1063.84        2961.75           1379         616.00      2649.30
 1063.87        2962.00           1382        1203.00      5208.75
 1063.90        2962.25           1386        2853.00     12405.23
 1063.93        2962.50           1389        4456.00     19399.70
 1063.96        2962.75           1392        5949.00     25916.83
 1063.99        2963.00           1396        7974.00     34760.29
 1064.03        2963.25           1399        9543.00     41615.57
 1064.06        2963.50           1402       11006.00     48010.26
 1064.09        2963.75           1406       13240.00     57779.67
 1064.12        2964.00           1409       14835.00     64758.21
 1064.15        2964.25           1412       16661.00     72751.02
 1064.18        2964.50           1416       18791.00     82079.37
 1064.21        2964.75           1419       20275.00     88581.64
 1064.24        2965.00           1422       21950.00     95923.86
 1064.27        2965.25           1426       24385.00    106603.30
 1064.30        2965.50           1429       26063.00    113966.60
 1064.33        2965.75           1432       27856.00    121838.20
 1064.37        2966.00           1436       29765.00    130223.10
 1064.40        2966.25           1439       31312.00    137021.10
 1064.43        2966.50           1442       32617.00    142757.90
 1064.46        2966.75           1446       34356.00    150405.60
 1064.49        2967.00           1449       34989.00    153190.20
 1064.52        2967.25           1452       35331.00    154694.90
 1064.55        2967.50           1456       35273.00    154439.70
 1064.58        2967.75           1459       35203.00    154131.70
 1064.61        2968.00           1462       35258.00    154373.70
 1064.64        2968.25           1466       34359.00    150418.80
 1064.68        2968.50           1469       33289.00    145712.70
 1064.71        2968.75           1472       31703.00    138739.70
 1064.74        2969.00           1476       29556.00    129304.90
 1064.77        2969.25           1479       27831.00    121728.40
 1064.80        2969.50           1482       26176.00    114462.60
 1064.83        2969.75           1486       24152.00    105581.10
 1064.86        2970.00           1489       22622.00     98870.41
 1064.89        2970.25           1492       21031.00     91895.10
 1064.92        2970.50           1496       18894.00     82530.59
 1064.95        2970.75           1499       17331.00     75684.73
 1064.99        2971.00           1502       15672.00     68421.48
 1065.02        2971.25           1506       13260.00     57867.15
 1065.05        2971.50           1509       11684.00     50974.58
 1065.08        2971.75           1513        9612.00     41917.11
 1065.11        2972.00           1516        7906.00     34463.25
 1065.14        2972.25           1519        6188.00     26960.34
 1065.17        2972.50           1523        4105.00     17867.90
 1065.20        2972.75           1526        2612.00     11353.91
 1065.23        2973.00           1529        1374.00      5954.42
 1065.26        2973.25           1533         471.00      2017.12
 1065.30        2973.50           1536         318.00      1350.10
 1065.33        2973.75           1539         277.00      1171.36
 1065.36        2974.00           1543         217.00       909.79
 1065.39        2974.25           1546         156.00       643.87
 1065.42        2974.50           1549         128.00       521.80
 1065.45        2974.75           1553          90.00       356.15
 1065.48        2975.00           1556          65.00       247.17
 1065.51        2975.25           1559          54.00       199.22
 1065.54        2975.50           1563          49.00       177.42
 1065.58        2975.75           1566          49.00       177.42
 1065.61        2976.00           1569          60.00       225.37
 1065.64        2976.25           1573          48.00       173.06
 1065.67        2976.50           1576          45.00       159.98
 1065.70        2976.75           1579          46.00       164.34
 1065.73        2977.00           1583          46.00       164.34
 1065.76        2977.25           1586          42.00       146.91
 1065.79        2977.50           1590          35.00       116.39
 1065.82        2977.75           1593          35.00       116.39
 1065.85        2978.00           1596          48.00       173.06
 1065.88        2978.25           1600          47.00       168.70
 1065.91        2978.50           1603          46.00       164.34
 1065.94        2978.75           1606          50.00       181.78
 1065.98        2979.00           1610          50.00       181.78
 1066.01        2979.25           1613          46.00       164.34
 1066.04        2979.50           1616          46.00       164.34
 1066.07        2979.75           1620          44.00       155.62
 1066.10        2980.00           1623          42.00       146.91
 1066.13        2980.25           1626          42.00       146.91
 1066.16        2980.50           1630          43.00       151.26
 1066.19        2980.75           1633          43.00       151.26
 1066.22        2981.00           1637          38.00       129.47
 1066.25        2981.25           1640          48.00       173.06
 1066.29        2981.50           1643          46.00       164.34
 1066.32        2981.75           1647          39.00       133.83
 1066.35        2982.00           1650          38.00       129.47
 1066.38        2982.25           1653          42.00       146.91
 1066.41        2982.50           1657          41.00       142.55
 1066.44        2982.75           1660          44.00       155.62
 1066.47        2983.00           1663          43.00       151.26
 1066.50        2983.25           1667          38.00       129.47
 1066.53        2983.50           1670          51.00       186.14
 1066.56        2983.75           1673          36.00       120.75
 1066.59        2984.00           1677          41.00       142.55
HS scan finished at 17:46:49
end
