************************************************************
  HS Scan of (1) Internal mercury lamp
************************************************************
Integration time is 0.2294 seconds per sample
dh100117Manchester 53.47 2.23 2.750537pr1000
************************************************************
Dead Time -------------------------  3E-08 
Number of Cycles Used -------------  4 
Starting Wavelength (Angstroms) ---  2950 
Final Wavelength (Angstoms) -------  2984 
Wavelength Increment (Angstroms) --  .25 
Filter Wheel #1 Position ---------- (1) Ground quartz diffuser (ND=2.32)
Filter Wheel #2 Position ---------- (1) Neutral Density 0.494



************************************************************
HS scan start time = 05:24:51
Dark Count =  6.1 


Time (GMT)  Wavelength (Ang)  Step Number  Raw Counts  Counts/Second

  325.22        2950.00           1222          53.00       204.45
  325.29        2950.25           1226          42.00       156.50
  325.32        2950.50           1229          50.00       191.37
  325.35        2950.75           1232          42.00       156.50
  325.38        2951.00           1236          42.00       156.50
  325.41        2951.25           1239          43.00       160.86
  325.45        2951.50           1242          59.00       230.60
  325.48        2951.75           1246          44.00       165.21
  325.51        2952.00           1249          45.00       169.57
  325.54        2952.25           1252          44.00       165.21
  325.57        2952.50           1256          49.00       187.01
  325.60        2952.75           1259          51.00       195.73
  325.63        2953.00           1262          46.00       173.93
  325.66        2953.25           1266          42.00       156.50
  325.69        2953.50           1269          46.00       173.93
  325.72        2953.75           1272          48.00       182.65
  325.75        2954.00           1276          44.00       165.21
  325.79        2954.25           1279          45.00       169.57
  325.82        2954.50           1282          53.00       204.45
  325.85        2954.75           1286          46.00       173.93
  325.88        2955.00           1289          46.00       173.93
  325.91        2955.25           1292          41.00       152.14
  325.94        2955.50           1296          44.00       165.21
  325.97        2955.75           1299          46.00       173.93
  326.00        2956.00           1302          49.00       187.01
  326.03        2956.25           1306          45.00       169.57
  326.06        2956.50           1309          47.00       178.29
  326.09        2956.75           1312          47.00       178.29
  326.12        2957.00           1316          38.00       139.06
  326.16        2957.25           1319          45.00       169.57
  326.19        2957.50           1322          47.00       178.29
  326.22        2957.75           1326          46.00       173.93
  326.25        2958.00           1329          43.00       160.86
  326.28        2958.25           1332          42.00       156.50
  326.31        2958.50           1336          49.00       187.01
  326.34        2958.75           1339          44.00       165.21
  326.37        2959.00           1342          49.00       187.01
  326.40        2959.25           1346          47.00       178.29
  326.43        2959.50           1349          48.00       182.65
  326.46        2959.75           1352          63.00       248.04
  326.49        2960.00           1356          88.00       357.02
  326.53        2960.25           1359         129.00       535.75
  326.56        2960.50           1362         168.00       705.77
  326.59        2960.75           1366         205.00       867.07
  326.62        2961.00           1369         249.00      1058.88
  326.65        2961.25           1372         317.00      1355.33
  326.68        2961.50           1376         377.00      1616.91
  326.71        2961.75           1379         476.00      2048.51
  326.74        2962.00           1382         859.00      3718.38
  326.78        2962.25           1386        2102.00      9138.95
  326.81        2962.50           1389        3619.00     15756.79
  326.84        2962.75           1392        5325.00     23202.28
  326.87        2963.00           1396        7527.00     32817.39
  326.90        2963.25           1399        9173.00     40008.33
  326.93        2963.50           1402       10868.00     47416.58
  326.96        2963.75           1406       13142.00     57360.62
  326.99        2964.00           1409       14939.00     65222.97
  327.02        2964.25           1412       16603.00     72506.72
  327.05        2964.50           1416       18869.00     82430.71
  327.09        2964.75           1419       20596.00     89998.11
  327.12        2965.00           1422       22138.00     96757.79
  327.15        2965.25           1426       24574.00    107442.10
  327.18        2965.50           1429       26060.00    113963.10
  327.21        2965.75           1432       27978.00    122383.60
  327.24        2966.00           1436       30247.00    132350.50
  327.27        2966.25           1439       31929.00    139742.90
  327.30        2966.50           1442       33424.00    146316.10
  327.33        2966.75           1446       35205.00    154150.20
  327.36        2967.00           1449       36157.00    158339.30
  327.40        2967.25           1452       36179.00    158436.10
  327.43        2967.50           1456       36161.00    158356.90
  327.46        2967.75           1459       36193.00    158497.70
  327.49        2968.00           1462       36104.00    158106.00
  327.52        2968.25           1466       35496.00    155430.60
  327.55        2968.50           1469       34443.00    150797.90
  327.58        2968.75           1472       32845.00    143770.00
  327.61        2969.00           1476       30588.00    133849.00
  327.64        2969.25           1479       28994.00    126845.80
  327.67        2969.50           1482       27239.00    119138.70
  327.71        2969.75           1486       24969.00    109175.20
  327.74        2970.00           1489       23405.00    102314.00
  327.77        2970.25           1492       21818.00     95354.78
  327.80        2970.50           1496       19762.00     86343.25
  327.83        2970.75           1499       17943.00     78374.56
  327.86        2971.00           1502       16417.00     71692.40
  327.89        2971.25           1506       14458.00     63118.10
  327.92        2971.50           1509       12552.00     54780.01
  327.95        2971.75           1513       10336.00     45091.04
  327.99        2972.00           1516        8721.00     38033.35
  328.02        2972.25           1519        6958.00     30332.30
  328.05        2972.50           1523        4831.00     21045.98
  328.08        2972.75           1526        3258.00     14181.71
  328.11        2973.00           1529        1795.00      7799.99
  328.14        2973.25           1533         682.00      2946.64
  328.17        2973.50           1536         390.00      1673.58
  328.20        2973.75           1539         301.00      1285.58
  328.23        2974.00           1543         245.00      1041.44
  328.26        2974.25           1546         194.00       819.11
  328.29        2974.50           1549         142.00       592.43
  328.32        2974.75           1553          90.00       365.74
  328.36        2975.00           1556          66.00       261.12
  328.39        2975.25           1559          56.00       217.53
  328.42        2975.50           1563          49.00       187.01
  328.45        2975.75           1566          48.00       182.65
  328.48        2976.00           1569          48.00       182.65
  328.51        2976.25           1573          51.00       195.73
  328.54        2976.50           1576          48.00       182.65
  328.57        2976.75           1579          47.00       178.29
  328.60        2977.00           1583          47.00       178.29
  328.63        2977.25           1586          49.00       187.01
  328.66        2977.50           1590          56.00       217.53
  328.69        2977.75           1593          40.00       147.78
  328.72        2978.00           1596          42.00       156.50
  328.76        2978.25           1600          57.00       221.88
  328.79        2978.50           1603          42.00       156.50
  328.82        2978.75           1606          45.00       169.57
  328.85        2979.00           1610          44.00       165.21
  328.88        2979.25           1613          43.00       160.86
  328.91        2979.50           1616          44.00       165.21
  328.94        2979.75           1620          45.00       169.57
  328.97        2980.00           1623          48.00       182.65
  329.00        2980.25           1626          45.00       169.57
  329.03        2980.50           1630          44.00       165.21
  329.06        2980.75           1633          45.00       169.57
  329.09        2981.00           1637          46.00       173.93
  329.12        2981.25           1640          48.00       182.65
  329.15        2981.50           1643          47.00       178.29
  329.19        2981.75           1647          44.00       165.21
  329.22        2982.00           1650          44.00       165.21
  329.25        2982.25           1653          41.00       152.14
  329.28        2982.50           1657          44.00       165.21
  329.31        2982.75           1660          45.00       169.57
  329.34        2983.00           1663          44.00       165.21
  329.37        2983.25           1667          42.00       156.50
  329.40        2983.50           1670          42.00       156.50
  329.43        2983.75           1673          38.00       139.06
  329.46        2984.00           1677          44.00       165.21
HS scan finished at 05:29:41
end
************************************************************
  HS Scan of (1) Internal mercury lamp
************************************************************
Integration time is 0.2294 seconds per sample
dh100117Manchester 53.47 2.23 2.804185pr1000
************************************************************
Dead Time -------------------------  3E-08 
Number of Cycles Used -------------  4 
Starting Wavelength (Angstroms) ---  2950 
Final Wavelength (Angstoms) -------  2984 
Wavelength Increment (Angstroms) --  .25 
Filter Wheel #1 Position ---------- (1) Ground quartz diffuser (ND=2.32)
Filter Wheel #2 Position ---------- (1) Neutral Density 0.494



************************************************************
HS scan start time = 17:12:04
Dark Count =  5.7 


Time (GMT)  Wavelength (Ang)  Step Number  Raw Counts  Counts/Second

 1032.44        2950.00           1222          62.00       245.42
 1032.50        2950.25           1226          40.00       149.52
 1032.53        2950.50           1229          41.00       153.88
 1032.56        2950.75           1232          51.00       197.47
 1032.60        2951.00           1236          45.00       171.32
 1032.63        2951.25           1239          42.00       158.24
 1032.66        2951.50           1242          49.00       188.75
 1032.69        2951.75           1246          42.00       158.24
 1032.72        2952.00           1249          45.00       171.32
 1032.75        2952.25           1252          51.00       197.47
 1032.78        2952.50           1256          45.00       171.32
 1032.81        2952.75           1259          45.00       171.32
 1032.85        2953.00           1262          41.00       153.88
 1032.88        2953.25           1266          43.00       162.60
 1032.91        2953.50           1269          44.00       166.96
 1032.94        2953.75           1272          48.00       184.40
 1032.97        2954.00           1276          39.00       145.16
 1033.00        2954.25           1279          49.00       188.75
 1033.03        2954.50           1282          50.00       193.11
 1033.06        2954.75           1286          48.00       184.40
 1033.09        2955.00           1289          40.00       149.52
 1033.12        2955.25           1292          41.00       153.88
 1033.15        2955.50           1296          44.00       166.96
 1033.18        2955.75           1299          50.00       193.11
 1033.21        2956.00           1302          42.00       158.24
 1033.24        2956.25           1306          56.00       219.27
 1033.27        2956.50           1309          41.00       153.88
 1033.31        2956.75           1312          44.00       166.96
 1033.34        2957.00           1316          49.00       188.75
 1033.37        2957.25           1319          52.00       201.83
 1033.40        2957.50           1322          49.00       188.75
 1033.43        2957.75           1326          44.00       166.96
 1033.46        2958.00           1329          49.00       188.75
 1033.49        2958.25           1332          42.00       158.24
 1033.52        2958.50           1336          42.00       158.24
 1033.55        2958.75           1339          37.00       136.44
 1033.58        2959.00           1342          45.00       171.32
 1033.62        2959.25           1346          46.00       175.68
 1033.65        2959.50           1349          43.00       162.60
 1033.68        2959.75           1352          58.00       227.99
 1033.71        2960.00           1356          85.00       345.69
 1033.74        2960.25           1359         116.00       480.83
 1033.77        2960.50           1362         156.00       655.20
 1033.80        2960.75           1366         209.00       886.25
 1033.83        2961.00           1369         253.00      1078.06
 1033.86        2961.25           1372         299.00      1278.60
 1033.90        2961.50           1376         389.00      1670.96
 1033.93        2961.75           1379         583.00      2516.76
 1033.96        2962.00           1382        1210.00      5250.61
 1033.99        2962.25           1386        2977.00     12957.52
 1034.02        2962.50           1389        4435.00     19319.39
 1034.05        2962.75           1392        6048.00     26360.42
 1034.08        2963.00           1396        8169.00     35623.49
 1034.11        2963.25           1399        9643.00     42063.95
 1034.14        2963.50           1402       11443.00     49932.19
 1034.18        2963.75           1406       13686.00     59742.12
 1034.21        2964.00           1409       15177.00     66266.31
 1034.24        2964.25           1412       16891.00     73769.45
 1034.27        2964.50           1416       19451.00     84982.30
 1034.30        2964.75           1419       21223.00     92748.12
 1034.33        2965.00           1422       23029.00    100666.70
 1034.36        2965.25           1426       25135.00    109905.40
 1034.39        2965.50           1429       26659.00    116594.10
 1034.42        2965.75           1432       28478.00    124581.20
 1034.45        2966.00           1436       30541.00    133644.20
 1034.49        2966.25           1439       32154.00    140733.80
 1034.52        2966.50           1442       33655.00    147333.80
 1034.55        2966.75           1446       35248.00    154341.20
 1034.58        2967.00           1449       35663.00    156167.20
 1034.61        2967.25           1452       35712.00    156382.80
 1034.64        2967.50           1456       35933.00    157355.30
 1034.67        2967.75           1459       35643.00    156079.20
 1034.70        2968.00           1462       35433.00    155155.10
 1034.73        2968.25           1466       34318.00    150249.90
 1034.77        2968.50           1469       32924.00    144119.20
 1034.80        2968.75           1472       31642.00    138483.10
 1034.83        2969.00           1476       29804.00    130405.90
 1034.86        2969.25           1479       28019.00    122565.40
 1034.89        2969.50           1482       26304.00    115035.80
 1034.92        2969.75           1486       24024.00    105031.00
 1034.95        2970.00           1489       22439.00     98079.37
 1034.98        2970.25           1492       20891.00     91292.85
 1035.01        2970.50           1496       18495.00     80794.12
 1035.05        2970.75           1499       16916.00     73878.91
 1035.08        2971.00           1502       15403.00     67255.43
 1035.11        2971.25           1506       13064.00     57021.17
 1035.14        2971.50           1509       11339.00     49477.49
 1035.17        2971.75           1513        9179.00     40036.29
 1035.20        2972.00           1516        7517.00     32775.45
 1035.23        2972.25           1519        5972.00     26028.60
 1035.26        2972.50           1523        3897.00     16971.59
 1035.29        2972.75           1526        2536.00     11033.73
 1035.33        2973.00           1529        1335.00      5795.69
 1035.36        2973.25           1533         493.00      2124.37
 1035.39        2973.50           1536         343.00      1470.42
 1035.42        2973.75           1539         302.00      1291.68
 1035.45        2974.00           1543         226.00       960.36
 1035.48        2974.25           1546         178.00       751.11
 1035.51        2974.50           1549         131.00       546.22
 1035.54        2974.75           1553          96.00       393.64
 1035.57        2975.00           1556          66.00       262.86
 1035.60        2975.25           1559          52.00       201.83
 1035.63        2975.50           1563          46.00       175.68
 1035.67        2975.75           1566          43.00       162.60
 1035.70        2976.00           1569          48.00       184.40
 1035.73        2976.25           1573          47.00       180.04
 1035.76        2976.50           1576          42.00       158.24
 1035.79        2976.75           1579          47.00       180.04
 1035.82        2977.00           1583          46.00       175.68
 1035.85        2977.25           1586          48.00       184.40
 1035.88        2977.50           1590          51.00       197.47
 1035.91        2977.75           1593          51.00       197.47
 1035.94        2978.00           1596          46.00       175.68
 1035.97        2978.25           1600          44.00       166.96
 1036.01        2978.50           1603          43.00       162.60
 1036.04        2978.75           1606          45.00       171.32
 1036.07        2979.00           1610          46.00       175.68
 1036.10        2979.25           1613          40.00       149.52
 1036.13        2979.50           1616          41.00       153.88
 1036.16        2979.75           1620          52.00       201.83
 1036.19        2980.00           1623          41.00       153.88
 1036.22        2980.25           1626          46.00       175.68
 1036.25        2980.50           1630          46.00       175.68
 1036.28        2980.75           1633          39.00       145.16
 1036.31        2981.00           1637          47.00       180.04
 1036.34        2981.25           1640          42.00       158.24
 1036.37        2981.50           1643          45.00       171.32
 1036.41        2981.75           1647          42.00       158.24
 1036.44        2982.00           1650          47.00       180.04
 1036.47        2982.25           1653          42.00       158.24
 1036.50        2982.50           1657          45.00       171.32
 1036.53        2982.75           1660          42.00       158.24
 1036.56        2983.00           1663          43.00       162.60
 1036.59        2983.25           1667          42.00       158.24
 1036.62        2983.50           1670          36.00       132.08
 1036.65        2983.75           1673          46.00       175.68
 1036.68        2984.00           1677          41.00       153.88
HS scan finished at 17:16:54
end
