************************************************************
  HS Scan of (1) Internal mercury lamp
************************************************************
Integration time is 0.2294 seconds per sample
dh190119Manchester 53.47 2.23 2.804185pr1000
************************************************************
Dead Time -------------------------  3E-08 
Number of Cycles Used -------------  4 
Starting Wavelength (Angstroms) ---  2950 
Final Wavelength (Angstoms) -------  2984 
Wavelength Increment (Angstroms) --  .25 
Filter Wheel #1 Position ---------- (1) Ground quartz diffuser (ND=2.32)
Filter Wheel #2 Position ---------- (1) Neutral Density 0.494



************************************************************
HS scan start time = 05:19:58
Dark Count =  6.7 


Time (GMT)  Wavelength (Ang)  Step Number  Raw Counts  Counts/Second

  320.33        2950.00           1222          53.00       201.83
  320.40        2950.25           1226          52.00       197.47
  320.43        2950.50           1229          51.00       193.11
  320.46        2950.75           1232          54.00       206.19
  320.49        2951.00           1236          55.00       210.55
  320.52        2951.25           1239          54.00       206.19
  320.55        2951.50           1242          57.00       219.27
  320.58        2951.75           1246          56.00       214.91
  320.62        2952.00           1249          54.00       206.19
  320.65        2952.25           1252          53.00       201.83
  320.68        2952.50           1256          49.00       184.40
  320.71        2952.75           1259          62.00       241.07
  320.74        2953.00           1262          56.00       214.91
  320.77        2953.25           1266          55.00       210.55
  320.80        2953.50           1269          49.00       184.40
  320.83        2953.75           1272          55.00       210.55
  320.86        2954.00           1276          53.00       201.83
  320.90        2954.25           1279          52.00       197.47
  320.93        2954.50           1282          52.00       197.47
  320.96        2954.75           1286          59.00       227.99
  320.99        2955.00           1289          53.00       201.83
  321.02        2955.25           1292          63.00       245.42
  321.05        2955.50           1296          46.00       171.32
  321.08        2955.75           1299          51.00       193.11
  321.11        2956.00           1302          53.00       201.83
  321.14        2956.25           1306          49.00       184.40
  321.17        2956.50           1309          51.00       193.11
  321.20        2956.75           1312          52.00       197.47
  321.23        2957.00           1316          63.00       245.42
  321.27        2957.25           1319          55.00       210.55
  321.30        2957.50           1322          61.00       236.71
  321.33        2957.75           1326          51.00       193.11
  321.36        2958.00           1329          54.00       206.19
  321.39        2958.25           1332          57.00       219.27
  321.42        2958.50           1336          57.00       219.27
  321.45        2958.75           1339          56.00       214.91
  321.48        2959.00           1342          52.00       197.47
  321.51        2959.25           1346          58.00       223.63
  321.55        2959.50           1349          56.00       214.91
  321.58        2959.75           1352          64.00       249.78
  321.61        2960.00           1356          85.00       341.33
  321.64        2960.25           1359         105.00       428.51
  321.67        2960.50           1362         116.00       476.47
  321.70        2960.75           1366         172.00       720.59
  321.73        2961.00           1369         192.00       807.78
  321.76        2961.25           1372         228.00       964.72
  321.79        2961.50           1376         285.00      1213.21
  321.82        2961.75           1379         366.00      1566.33
  321.85        2962.00           1382         725.00      3131.51
  321.88        2962.25           1386        1852.00      8045.97
  321.92        2962.50           1389        2971.00     12926.98
  321.95        2962.75           1392        3965.00     17263.95
  321.98        2963.00           1396        5579.00     24308.48
  322.01        2963.25           1399        6604.00     28783.78
  322.04        2963.50           1402        7826.00     34120.78
  322.07        2963.75           1406        9420.00     41085.05
  322.10        2964.00           1409       10593.00     46211.80
  322.13        2964.25           1412       11825.00     51598.12
  322.16        2964.50           1416       13353.00     58280.98
  322.20        2964.75           1419       14538.00     63465.54
  322.23        2965.00           1422       15785.00     68923.10
  322.26        2965.25           1426       17255.00     75358.93
  322.29        2965.50           1429       18438.00     80540.06
  322.32        2965.75           1432       19535.00     85345.97
  322.35        2966.00           1436       21095.00     92182.66
  322.38        2966.25           1439       22195.00     97005.09
  322.41        2966.50           1442       23125.00    101083.30
  322.44        2966.75           1446       24353.00    106469.90
  322.48        2967.00           1449       24734.00    108141.50
  322.51        2967.25           1452       24794.00    108404.70
  322.54        2967.50           1456       24886.00    108808.40
  322.57        2967.75           1459       24746.00    108194.10
  322.60        2968.00           1462       24607.00    107584.30
  322.63        2968.25           1466       24031.00    105057.30
  322.66        2968.50           1469       23095.00    100951.80
  322.69        2968.75           1472       22121.00     96680.62
  322.72        2969.00           1476       20787.00     90832.62
  322.76        2969.25           1479       19515.00     85258.34
  322.79        2969.50           1482       18450.00     80592.62
  322.82        2969.75           1486       16822.00     73462.96
  322.85        2970.00           1489       15741.00     68730.50
  322.88        2970.25           1492       14692.00     64139.43
  322.91        2970.50           1496       13081.00     57091.16
  322.94        2970.75           1499       11847.00     51694.32
  322.97        2971.00           1502       10863.00     47392.10
  323.00        2971.25           1506        9360.00     40822.85
  323.03        2971.50           1509        8240.00     35929.29
  323.07        2971.75           1513        6726.00     29316.53
  323.10        2972.00           1516        5726.00     24950.23
  323.13        2972.25           1519        4603.00     20048.24
  323.16        2972.50           1523        3109.00     13529.03
  323.19        2972.75           1526        1993.00      8660.93
  323.22        2973.00           1529         969.00      4195.38
  323.25        2973.25           1533         390.00      1670.96
  323.28        2973.50           1536         283.00      1204.49
  323.31        2973.75           1539         221.00       934.20
  323.34        2974.00           1543         204.00       860.09
  323.38        2974.25           1546         151.00       629.04
  323.41        2974.50           1549         124.00       511.34
  323.44        2974.75           1553          83.00       332.61
  323.47        2975.00           1556          64.00       249.78
  323.50        2975.25           1559          51.00       193.11
  323.53        2975.50           1563          54.00       206.19
  323.56        2975.75           1566          56.00       214.91
  323.59        2976.00           1569          57.00       219.27
  323.62        2976.25           1573          56.00       214.91
  323.65        2976.50           1576          57.00       219.27
  323.68        2976.75           1579          48.00       180.04
  323.71        2977.00           1583          49.00       184.40
  323.74        2977.25           1586          55.00       210.55
  323.78        2977.50           1590          46.00       171.32
  323.81        2977.75           1593          48.00       180.04
  323.84        2978.00           1596          49.00       184.40
  323.87        2978.25           1600          56.00       214.91
  323.90        2978.50           1603          56.00       214.91
  323.93        2978.75           1606          49.00       184.40
  323.96        2979.00           1610          48.00       180.04
  323.99        2979.25           1613          52.00       197.47
  324.02        2979.50           1616          54.00       206.19
  324.05        2979.75           1620          45.00       166.96
  324.09        2980.00           1623          48.00       180.04
  324.12        2980.25           1626          44.00       162.60
  324.15        2980.50           1630          45.00       166.96
  324.18        2980.75           1633          50.00       188.75
  324.21        2981.00           1637          48.00       180.04
  324.24        2981.25           1640          51.00       193.11
  324.27        2981.50           1643          51.00       193.11
  324.30        2981.75           1647          55.00       210.55
  324.33        2982.00           1650          48.00       180.04
  324.36        2982.25           1653          44.00       162.60
  324.40        2982.50           1657          49.00       184.40
  324.43        2982.75           1660          53.00       201.83
  324.46        2983.00           1663          47.00       175.68
  324.49        2983.25           1667          51.00       193.11
  324.52        2983.50           1670          58.00       223.63
  324.55        2983.75           1673          47.00       175.68
  324.58        2984.00           1677          49.00       184.40
HS scan finished at 05:24:48
end
************************************************************
  HS Scan of (1) Internal mercury lamp
************************************************************
Integration time is 0.2294 seconds per sample
dh190119Manchester 53.47 2.23 2.804185pr1000
************************************************************
Dead Time -------------------------  3E-08 
Number of Cycles Used -------------  4 
Starting Wavelength (Angstroms) ---  2950 
Final Wavelength (Angstoms) -------  2984 
Wavelength Increment (Angstroms) --  .25 
Filter Wheel #1 Position ---------- (1) Ground quartz diffuser (ND=2.32)
Filter Wheel #2 Position ---------- (1) Neutral Density 0.494



************************************************************
HS scan start time = 17:13:19
Dark Count =  6.6 


Time (GMT)  Wavelength (Ang)  Step Number  Raw Counts  Counts/Second

 1033.68        2950.00           1222          56.00       215.35
 1033.75        2950.25           1226          54.00       206.63
 1033.78        2950.50           1229          58.00       224.06
 1033.81        2950.75           1232          56.00       215.35
 1033.84        2951.00           1236          51.00       193.55
 1033.87        2951.25           1239          51.00       193.55
 1033.90        2951.50           1242          57.00       219.71
 1033.93        2951.75           1246          51.00       193.55
 1033.97        2952.00           1249          55.00       210.99
 1034.00        2952.25           1252          48.00       180.47
 1034.03        2952.50           1256          59.00       228.42
 1034.06        2952.75           1259          52.00       197.91
 1034.09        2953.00           1262          56.00       215.35
 1034.12        2953.25           1266          61.00       237.14
 1034.15        2953.50           1269          51.00       193.55
 1034.18        2953.75           1272          60.00       232.78
 1034.23        2954.00           1276          59.00       228.42
 1034.26        2954.25           1279          54.00       206.63
 1034.29        2954.50           1282          47.00       176.11
 1034.33        2954.75           1286          61.00       237.14
 1034.36        2955.00           1289          50.00       189.19
 1034.39        2955.25           1292          61.00       237.14
 1034.42        2955.50           1296          54.00       206.63
 1034.45        2955.75           1299          50.00       189.19
 1034.48        2956.00           1302          56.00       215.35
 1034.51        2956.25           1306          50.00       189.19
 1034.54        2956.50           1309          59.00       228.42
 1034.57        2956.75           1312          58.00       224.06
 1034.60        2957.00           1316          59.00       228.42
 1034.63        2957.25           1319          53.00       202.27
 1034.66        2957.50           1322          54.00       206.63
 1034.70        2957.75           1326          49.00       184.83
 1034.73        2958.00           1329          56.00       215.35
 1034.76        2958.25           1332          55.00       210.99
 1034.79        2958.50           1336          52.00       197.91
 1034.82        2958.75           1339          53.00       202.27
 1034.85        2959.00           1342          57.00       219.71
 1034.88        2959.25           1346          61.00       237.14
 1034.91        2959.50           1349          52.00       197.91
 1034.94        2959.75           1352          70.00       276.38
 1034.97        2960.00           1356          87.00       350.48
 1035.01        2960.25           1359         144.00       598.96
 1035.04        2960.50           1362         141.00       585.89
 1035.07        2960.75           1366         187.00       786.42
 1035.10        2961.00           1369         214.00       904.12
 1035.13        2961.25           1372         251.00      1065.42
 1035.16        2961.50           1376         294.00      1252.88
 1035.19        2961.75           1379         378.00      1619.08
 1035.22        2962.00           1382         742.00      3206.06
 1035.25        2962.25           1386        1979.00      8600.30
 1035.29        2962.50           1389        3058.00     13306.97
 1035.32        2962.75           1392        4224.00     18394.63
 1035.35        2963.00           1396        5824.00     25378.51
 1035.38        2963.25           1399        6880.00     29989.48
 1035.41        2963.50           1402        8059.00     35139.03
 1035.44        2963.75           1406        9715.00     42374.68
 1035.47        2964.00           1409       10763.00     46955.38
 1035.50        2964.25           1412       11985.00     52298.21
 1035.53        2964.50           1416       13494.00     58898.23
 1035.57        2964.75           1419       14623.00     63837.93
 1035.60        2965.00           1422       15883.00     69352.52
 1035.63        2965.25           1426       17538.00     76598.66
 1035.66        2965.50           1429       18626.00     81364.02
 1035.69        2965.75           1432       19935.00     87099.13
 1035.72        2966.00           1436       21069.00     92069.12
 1035.75        2966.25           1439       22334.00     97615.01
 1035.78        2966.50           1442       23320.00    101939.00
 1035.81        2966.75           1446       24720.00    108080.50
 1035.84        2967.00           1449       25095.00    109725.90
 1035.88        2967.25           1452       25184.00    110116.50
 1035.91        2967.50           1456       25225.00    110296.40
 1035.94        2967.75           1459       25185.00    110120.80
 1035.97        2968.00           1462       25102.00    109756.60
 1036.00        2968.25           1466       24484.00    107045.00
 1036.03        2968.50           1469       23561.00    102996.10
 1036.06        2968.75           1472       22481.00     98259.58
 1036.09        2969.00           1476       21048.00     91977.08
 1036.14        2969.25           1479       19851.00     86731.05
 1036.17        2969.50           1482       18667.00     81543.62
 1036.20        2969.75           1486       17179.00     75026.57
 1036.24        2970.00           1489       16164.00     70582.61
 1036.27        2970.25           1492       14853.00     64844.42
 1036.33        2970.50           1496       13310.00     58093.31
 1036.37        2970.75           1499       12132.00     52941.04
 1036.40        2971.00           1502       10890.00     47510.57
 1036.44        2971.25           1506        9397.00     40984.98
 1036.47        2971.50           1509        8313.00     36248.64
 1036.50        2971.75           1513        6785.00     29574.62
 1036.53        2972.00           1516        5605.00     24422.42
 1036.56        2972.25           1519        4481.00     19516.22
 1036.59        2972.50           1523        2978.00     12957.96
 1036.62        2972.75           1526        1909.00      8295.00
 1036.65        2973.00           1529         884.00      3825.20
 1036.68        2973.25           1533         357.00      1527.53
 1036.71        2973.50           1536         280.00      1191.85
 1036.75        2973.75           1539         222.00       939.00
 1036.80        2974.00           1543         182.00       764.62
 1036.83        2974.25           1546         144.00       598.96
 1036.87        2974.50           1549         119.00       489.98
 1036.90        2974.75           1553          82.00       328.69
 1036.93        2975.00           1556          67.00       263.30
 1036.96        2975.25           1559          50.00       189.19
 1036.99        2975.50           1563          50.00       189.19
 1037.02        2975.75           1566          49.00       184.83
 1037.05        2976.00           1569          51.00       193.55
 1037.08        2976.25           1573          52.00       197.91
 1037.11        2976.50           1576          47.00       176.11
 1037.15        2976.75           1579          56.00       215.35
 1037.18        2977.00           1583          51.00       193.55
 1037.21        2977.25           1586          54.00       206.63
 1037.24        2977.50           1590          45.00       167.39
 1037.27        2977.75           1593          51.00       193.55
 1037.30        2978.00           1596          55.00       210.99
 1037.33        2978.25           1600          66.00       258.94
 1037.36        2978.50           1603          50.00       189.19
 1037.39        2978.75           1606          50.00       189.19
 1037.42        2979.00           1610          50.00       189.19
 1037.46        2979.25           1613          51.00       193.55
 1037.49        2979.50           1616          50.00       189.19
 1037.52        2979.75           1620          51.00       193.55
 1037.55        2980.00           1623          49.00       184.83
 1037.58        2980.25           1626          56.00       215.35
 1037.61        2980.50           1630          56.00       215.35
 1037.64        2980.75           1633          50.00       189.19
 1037.67        2981.00           1637          55.00       210.99
 1037.70        2981.25           1640          52.00       197.91
 1037.73        2981.50           1643          53.00       202.27
 1037.76        2981.75           1647          45.00       167.39
 1037.80        2982.00           1650          51.00       193.55
 1037.83        2982.25           1653          52.00       197.91
 1037.86        2982.50           1657          48.00       180.47
 1037.89        2982.75           1660          47.00       176.11
 1037.92        2983.00           1663          47.00       176.11
 1037.95        2983.25           1667          52.00       197.91
 1037.98        2983.50           1670          47.00       176.11
 1038.01        2983.75           1673          40.00       145.60
 1038.04        2984.00           1677          57.00       219.71
HS scan finished at 17:18:16
end
