************************************************************
  HS Scan of (1) Internal mercury lamp
************************************************************
Integration time is 0.2294 seconds per sample
dh110118Manchester 53.47 2.23 2.750537pr1000
************************************************************
Dead Time -------------------------  3E-08 
Number of Cycles Used -------------  4 
Starting Wavelength (Angstroms) ---  2950 
Final Wavelength (Angstoms) -------  2984 
Wavelength Increment (Angstroms) --  .25 
Filter Wheel #1 Position ---------- (1) Ground quartz diffuser (ND=2.32)
Filter Wheel #2 Position ---------- (1) Neutral Density 0.494



************************************************************
HS scan start time = 05:24:33
Dark Count =  4.6 


Time (GMT)  Wavelength (Ang)  Step Number  Raw Counts  Counts/Second

  324.92        2950.00           1222          64.00       258.94
  324.99        2950.25           1226          57.00       228.42
  325.02        2950.50           1229          64.00       258.94
  325.05        2950.75           1232          61.00       245.86
  325.08        2951.00           1236          64.00       258.94
  325.11        2951.25           1239          57.00       228.42
  325.14        2951.50           1242          54.00       215.35
  325.17        2951.75           1246          64.00       258.94
  325.20        2952.00           1249          58.00       232.78
  325.23        2952.25           1252          62.00       250.22
  325.26        2952.50           1256          55.00       219.71
  325.29        2952.75           1259          55.00       219.71
  325.32        2953.00           1262          63.00       254.58
  325.35        2953.25           1266          60.00       241.50
  325.39        2953.50           1269          54.00       215.35
  325.42        2953.75           1272          66.00       267.66
  325.45        2954.00           1276          70.00       285.09
  325.48        2954.25           1279          57.00       228.42
  325.51        2954.50           1282          57.00       228.42
  325.54        2954.75           1286          61.00       245.86
  325.57        2955.00           1289          64.00       258.94
  325.60        2955.25           1292          63.00       254.58
  325.63        2955.50           1296          65.00       263.30
  325.66        2955.75           1299          68.00       276.38
  325.69        2956.00           1302          67.00       272.02
  325.72        2956.25           1306          64.00       258.94
  325.75        2956.50           1309          55.00       219.71
  325.78        2956.75           1312          60.00       241.50
  325.82        2957.00           1316          66.00       267.66
  325.85        2957.25           1319          65.00       263.30
  325.88        2957.50           1322          59.00       237.14
  325.91        2957.75           1326          57.00       228.42
  325.94        2958.00           1329          75.00       306.89
  325.97        2958.25           1332          64.00       258.94
  326.00        2958.50           1336          60.00       241.50
  326.03        2958.75           1339          66.00       267.66
  326.06        2959.00           1342          52.00       206.63
  326.09        2959.25           1346          57.00       228.42
  326.13        2959.50           1349          70.00       285.09
  326.16        2959.75           1352          76.00       311.25
  326.19        2960.00           1356          96.00       398.44
  326.22        2960.25           1359         125.00       524.86
  326.25        2960.50           1362         148.00       625.12
  326.28        2960.75           1366         205.00       873.61
  326.31        2961.00           1369         263.00      1126.45
  326.34        2961.25           1372         273.00      1170.05
  326.37        2961.50           1376         351.00      1510.09
  326.40        2961.75           1379         499.00      2155.33
  326.44        2962.00           1382        1071.00      4649.30
  326.47        2962.25           1386        2656.00     11561.99
  326.50        2962.50           1389        4020.00     17513.12
  326.53        2962.75           1392        5445.00     23732.68
  326.56        2963.00           1396        7329.00     31959.14
  326.59        2963.25           1399        8870.00     38690.92
  326.62        2963.50           1402       10401.00     45381.71
  326.65        2963.75           1406       12782.00     55792.53
  326.68        2964.00           1409       14209.00     62035.14
  326.71        2964.25           1412       15927.00     69553.88
  326.74        2964.50           1416       17834.00     77903.75
  326.78        2964.75           1419       19412.00     84816.24
  326.81        2965.00           1422       20846.00     91100.43
  326.84        2965.25           1426       23013.00    100601.30
  326.87        2965.50           1429       24574.00    107448.70
  326.90        2965.75           1432       25968.00    113565.90
  326.93        2966.00           1436       28076.00    122820.50
  326.96        2966.25           1439       29495.00    129053.20
  326.99        2966.50           1442       30847.00    134993.70
  327.02        2966.75           1446       32386.00    141758.50
  327.05        2967.00           1449       32712.00    143191.80
  327.08        2967.25           1452       32916.00    144088.80
  327.11        2967.50           1456       32992.00    144423.00
  327.14        2967.75           1459       32727.00    143257.80
  327.18        2968.00           1462       32941.00    144198.70
  327.21        2968.25           1466       31925.00    139731.90
  327.24        2968.50           1469       30718.00    134426.80
  327.27        2968.75           1472       29243.00    127946.20
  327.30        2969.00           1476       27338.00    119579.90
  327.33        2969.25           1479       26076.00    114039.90
  327.36        2969.50           1482       24578.00    107466.20
  327.39        2969.75           1486       22425.00     98022.81
  327.42        2970.00           1489       20966.00     91626.41
  327.45        2970.25           1492       19527.00     85320.11
  327.48        2970.50           1496       17499.00     76436.63
  327.51        2970.75           1499       16008.00     69908.46
  327.55        2971.00           1502       14448.00     63080.91
  327.58        2971.25           1506       12497.00     54546.03
  327.61        2971.50           1509       11013.00     48057.03
  327.64        2971.75           1513        9068.00     39556.07
  327.67        2972.00           1516        7706.00     33605.79
  327.70        2972.25           1519        6219.00     27111.84
  327.73        2972.50           1523        4048.00     17635.31
  327.76        2972.75           1526        2588.00     11265.36
  327.79        2973.00           1529        1339.00      5817.93
  327.83        2973.25           1533         521.00      2251.24
  327.86        2973.50           1536         334.00      1435.98
  327.89        2973.75           1539         286.00      1226.72
  327.92        2974.00           1543         229.00       978.23
  327.95        2974.25           1546         170.00       721.03
  327.98        2974.50           1549         142.00       598.96
  328.01        2974.75           1553          97.00       402.79
  328.04        2975.00           1556          75.00       306.89
  328.07        2975.25           1559          65.00       263.30
  328.10        2975.50           1563          72.00       293.81
  328.13        2975.75           1566          60.00       241.50
  328.16        2976.00           1569          52.00       206.63
  328.19        2976.25           1573          57.00       228.42
  328.23        2976.50           1576          56.00       224.06
  328.26        2976.75           1579          61.00       245.86
  328.29        2977.00           1583          63.00       254.58
  328.32        2977.25           1586          61.00       245.86
  328.35        2977.50           1590          62.00       250.22
  328.38        2977.75           1593          66.00       267.66
  328.41        2978.00           1596          52.00       206.63
  328.44        2978.25           1600          65.00       263.30
  328.47        2978.50           1603          59.00       237.14
  328.50        2978.75           1606          64.00       258.94
  328.53        2979.00           1610          56.00       224.06
  328.56        2979.25           1613          60.00       241.50
  328.59        2979.50           1616          62.00       250.22
  328.62        2979.75           1620          63.00       254.58
  328.65        2980.00           1623          58.00       232.78
  328.68        2980.25           1626          57.00       228.42
  328.72        2980.50           1630          53.00       210.99
  328.75        2980.75           1633          61.00       245.86
  328.78        2981.00           1637          56.00       224.06
  328.81        2981.25           1640          64.00       258.94
  328.84        2981.50           1643          56.00       224.06
  328.87        2981.75           1647          57.00       228.42
  328.90        2982.00           1650          58.00       232.78
  328.93        2982.25           1653          65.00       263.30
  328.96        2982.50           1657          62.00       250.22
  328.99        2982.75           1660          50.00       197.91
  329.02        2983.00           1663          56.00       224.06
  329.05        2983.25           1667          60.00       241.50
  329.08        2983.50           1670          59.00       237.14
  329.11        2983.75           1673          56.00       224.06
  329.14        2984.00           1677          53.00       210.99
HS scan finished at 05:29:22
end
************************************************************
  HS Scan of (1) Internal mercury lamp
************************************************************
Integration time is 0.2294 seconds per sample
dh110118Manchester 53.47 2.23 2.804185pr1000
************************************************************
Dead Time -------------------------  3E-08 
Number of Cycles Used -------------  4 
Starting Wavelength (Angstroms) ---  2950 
Final Wavelength (Angstoms) -------  2984 
Wavelength Increment (Angstroms) --  .25 
Filter Wheel #1 Position ---------- (1) Ground quartz diffuser (ND=2.32)
Filter Wheel #2 Position ---------- (1) Neutral Density 0.494



************************************************************
HS scan start time = 17:12:02
Dark Count =  7.3 


Time (GMT)  Wavelength (Ang)  Step Number  Raw Counts  Counts/Second

 1032.40        2950.00           1222          66.00       255.89
 1032.47        2950.25           1226          59.00       225.37
 1032.50        2950.50           1229          64.00       247.17
 1032.53        2950.75           1232          60.00       229.73
 1032.56        2951.00           1236          68.00       264.61
 1032.59        2951.25           1239          62.00       238.45
 1032.62        2951.50           1242          67.00       260.25
 1032.65        2951.75           1246          62.00       238.45
 1032.68        2952.00           1249          68.00       264.61
 1032.71        2952.25           1252          66.00       255.89
 1032.75        2952.50           1256          59.00       225.37
 1032.78        2952.75           1259          59.00       225.37
 1032.81        2953.00           1262          60.00       229.73
 1032.84        2953.25           1266          66.00       255.89
 1032.87        2953.50           1269          62.00       238.45
 1032.90        2953.75           1272          65.00       251.53
 1032.93        2954.00           1276          58.00       221.01
 1032.96        2954.25           1279          56.00       212.29
 1032.99        2954.50           1282          62.00       238.45
 1033.02        2954.75           1286          60.00       229.73
 1033.05        2955.00           1289          63.00       242.81
 1033.08        2955.25           1292          59.00       225.37
 1033.11        2955.50           1296          63.00       242.81
 1033.14        2955.75           1299          68.00       264.61
 1033.18        2956.00           1302          88.00       351.79
 1033.21        2956.25           1306          57.00       216.65
 1033.24        2956.50           1309          57.00       216.65
 1033.27        2956.75           1312          54.00       203.58
 1033.30        2957.00           1316          57.00       216.65
 1033.33        2957.25           1319          59.00       225.37
 1033.36        2957.50           1322          71.00       277.68
 1033.39        2957.75           1326          65.00       251.53
 1033.42        2958.00           1329          58.00       221.01
 1033.45        2958.25           1332          63.00       242.81
 1033.48        2958.50           1336          75.00       295.12
 1033.51        2958.75           1339          70.00       273.32
 1033.54        2959.00           1342          68.00       264.61
 1033.57        2959.25           1346          61.00       234.09
 1033.60        2959.50           1349          81.00       321.28
 1033.63        2959.75           1352          90.00       360.51
 1033.67        2960.00           1356         124.00       508.73
 1033.70        2960.25           1359         162.00       674.38
 1033.73        2960.50           1362         202.00       848.76
 1033.76        2960.75           1366         240.00      1014.42
 1033.79        2961.00           1369         295.00      1254.19
 1033.82        2961.25           1372         315.00      1341.38
 1033.85        2961.50           1376         407.00      1742.46
 1033.88        2961.75           1379         549.00      2361.55
 1033.91        2962.00           1382        1240.00      5374.45
 1033.94        2962.25           1386        3073.00     13369.35
 1033.97        2962.50           1389        4498.00     19587.36
 1034.01        2962.75           1392        5826.00     25384.19
 1034.04        2963.00           1396        7728.00     33690.10
 1034.07        2963.25           1399        9270.00     40426.95
 1034.10        2963.50           1402       10828.00     47236.47
 1034.13        2963.75           1406       12774.00     55745.73
 1034.16        2964.00           1409       14316.00     62491.50
 1034.19        2964.25           1412       16107.00     70330.02
 1034.22        2964.50           1416       17943.00     78369.30
 1034.25        2964.75           1419       19449.00     84966.52
 1034.28        2965.00           1422       21123.00     92302.76
 1034.31        2965.25           1426       23277.00    101747.30
 1034.35        2965.50           1429       24779.00    108336.30
 1034.38        2965.75           1432       26201.00    114576.70
 1034.41        2966.00           1436       28244.00    123546.40
 1034.44        2966.25           1439       29673.00    129823.30
 1034.47        2966.50           1442       30829.00    134902.80
 1034.50        2966.75           1446       32141.00    140669.50
 1034.53        2967.00           1449       32506.00    142274.20
 1034.56        2967.25           1452       32458.00    142063.20
 1034.59        2967.50           1456       32356.00    141614.80
 1034.62        2967.75           1459       32396.00    141790.60
 1034.66        2968.00           1462       32213.00    140986.10
 1034.69        2968.25           1466       31079.00    136001.50
 1034.72        2968.50           1469       29428.00    128747.00
 1034.75        2968.75           1472       27992.00    122439.80
 1034.78        2969.00           1476       26181.00    114488.90
 1034.81        2969.25           1479       24439.00    106844.50
 1034.84        2969.50           1482       22983.00    100457.90
 1034.87        2969.75           1486       21104.00     92219.47
 1034.90        2970.00           1489       19555.00     85430.96
 1034.93        2970.25           1492       18176.00     79389.82
 1034.97        2970.50           1496       16263.00     71012.94
 1035.00        2970.75           1499       14718.00     64250.58
 1035.03        2971.00           1502       13103.00     57184.77
 1035.06        2971.25           1506       10910.00     47594.94
 1035.09        2971.50           1509        9441.00     41174.20
 1035.12        2971.75           1513        7548.00     32903.87
 1035.15        2972.00           1516        6032.00     26283.58
 1035.18        2972.25           1519        4545.00     19792.48
 1035.22        2972.50           1523        2711.00     11790.13
 1035.25        2972.75           1526        1518.00      6586.74
 1035.28        2973.00           1529         648.00      2793.17
 1035.31        2973.25           1533         357.00      1524.48
 1035.34        2973.50           1536         280.00      1188.80
 1035.37        2973.75           1539         225.00       949.02
 1035.40        2974.00           1543         190.00       796.44
 1035.43        2974.25           1546         136.00       561.04
 1035.46        2974.50           1549         103.00       417.18
 1035.49        2974.75           1553          76.00       299.48
 1035.52        2975.00           1556          68.00       264.61
 1035.55        2975.25           1559          55.00       207.94
 1035.59        2975.50           1563          56.00       212.29
 1035.62        2975.75           1566          63.00       242.81
 1035.65        2976.00           1569          59.00       225.37
 1035.68        2976.25           1573          57.00       216.65
 1035.71        2976.50           1576          57.00       216.65
 1035.74        2976.75           1579          60.00       229.73
 1035.77        2977.00           1583          59.00       225.37
 1035.80        2977.25           1586          56.00       212.29
 1035.83        2977.50           1590          63.00       242.81
 1035.86        2977.75           1593          53.00       199.22
 1035.89        2978.00           1596          60.00       229.73
 1035.93        2978.25           1600          57.00       216.65
 1035.96        2978.50           1603          61.00       234.09
 1035.99        2978.75           1606          58.00       221.01
 1036.02        2979.00           1610          56.00       212.29
 1036.05        2979.25           1613          53.00       199.22
 1036.08        2979.50           1616          68.00       264.61
 1036.11        2979.75           1620          52.00       194.86
 1036.14        2980.00           1623          57.00       216.65
 1036.17        2980.25           1626          61.00       234.09
 1036.20        2980.50           1630          57.00       216.65
 1036.23        2980.75           1633          52.00       194.86
 1036.26        2981.00           1637          55.00       207.94
 1036.29        2981.25           1640          49.00       181.78
 1036.33        2981.50           1643          54.00       203.58
 1036.36        2981.75           1647          59.00       225.37
 1036.39        2982.00           1650          52.00       194.86
 1036.42        2982.25           1653          56.00       212.29
 1036.45        2982.50           1657          55.00       207.94
 1036.48        2982.75           1660          54.00       203.58
 1036.51        2983.00           1663          56.00       212.29
 1036.54        2983.25           1667          63.00       242.81
 1036.57        2983.50           1670          53.00       199.22
 1036.60        2983.75           1673          61.00       234.09
 1036.63        2984.00           1677          55.00       207.94
HS scan finished at 17:16:51
end
