************************************************************
  HS Scan of (1) Internal mercury lamp
************************************************************
Integration time is 0.2294 seconds per sample
dh120118Manchester 53.47 2.23 2.804185pr1000
************************************************************
Dead Time -------------------------  3E-08 
Number of Cycles Used -------------  4 
Starting Wavelength (Angstroms) ---  2950 
Final Wavelength (Angstoms) -------  2984 
Wavelength Increment (Angstroms) --  .25 
Filter Wheel #1 Position ---------- (1) Ground quartz diffuser (ND=2.32)
Filter Wheel #2 Position ---------- (1) Neutral Density 0.494



************************************************************
HS scan start time = 05:24:09
Dark Count =  6.5 


Time (GMT)  Wavelength (Ang)  Step Number  Raw Counts  Counts/Second

  324.52        2950.00           1222          56.00       215.78
  324.59        2950.25           1226          66.00       259.37
  324.62        2950.50           1229          61.00       237.58
  324.65        2950.75           1232          60.00       233.22
  324.68        2951.00           1236          62.00       241.94
  324.71        2951.25           1239          61.00       237.58
  324.74        2951.50           1242          62.00       241.94
  324.77        2951.75           1246          63.00       246.30
  324.80        2952.00           1249          62.00       241.94
  324.83        2952.25           1252          56.00       215.78
  324.87        2952.50           1256          55.00       211.42
  324.90        2952.75           1259          61.00       237.58
  324.93        2953.00           1262          67.00       263.73
  324.96        2953.25           1266          55.00       211.42
  324.99        2953.50           1269          62.00       241.94
  325.02        2953.75           1272          61.00       237.58
  325.05        2954.00           1276          71.00       281.17
  325.08        2954.25           1279          64.00       250.66
  325.11        2954.50           1282          56.00       215.78
  325.14        2954.75           1286          60.00       233.22
  325.17        2955.00           1289          60.00       233.22
  325.20        2955.25           1292          61.00       237.58
  325.23        2955.50           1296          52.00       198.34
  325.27        2955.75           1299          62.00       241.94
  325.30        2956.00           1302          64.00       250.66
  325.33        2956.25           1306          63.00       246.30
  325.36        2956.50           1309          65.00       255.02
  325.39        2956.75           1312          64.00       250.66
  325.42        2957.00           1316          60.00       233.22
  325.45        2957.25           1319          68.00       268.09
  325.48        2957.50           1322          54.00       207.06
  325.51        2957.75           1326          65.00       255.02
  325.54        2958.00           1329          59.00       228.86
  325.57        2958.25           1332          63.00       246.30
  325.60        2958.50           1336          61.00       237.58
  325.63        2958.75           1339          69.00       272.45
  325.66        2959.00           1342          58.00       224.50
  325.70        2959.25           1346          61.00       237.58
  325.73        2959.50           1349          69.00       272.45
  325.76        2959.75           1352          73.00       289.89
  325.79        2960.00           1356         107.00       438.11
  325.82        2960.25           1359         127.00       525.29
  325.85        2960.50           1362         172.00       721.46
  325.88        2960.75           1366         224.00       948.15
  325.91        2961.00           1369         247.00      1048.42
  325.94        2961.25           1372         296.00      1262.04
  325.97        2961.50           1376         385.00      1650.04
  326.00        2961.75           1379         489.00      2103.45
  326.03        2962.00           1382         944.00      4087.25
  326.06        2962.25           1386        2412.00     10489.35
  326.09        2962.50           1389        3869.00     16845.91
  326.13        2962.75           1392        5375.00     23418.81
  326.16        2963.00           1396        7252.00     31614.54
  326.19        2963.25           1399        8680.00     37852.46
  326.22        2963.50           1402       10329.00     45058.69
  326.25        2963.75           1406       12363.00     53951.68
  326.28        2964.00           1409       14177.00     61886.81
  326.31        2964.25           1412       15594.00     68087.94
  326.34        2964.50           1416       17792.00     77711.49
  326.37        2964.75           1419       19234.00     84028.03
  326.41        2965.00           1422       20586.00     89952.53
  326.44        2965.25           1426       22785.00     99593.11
  326.47        2965.50           1429       24077.00    105259.90
  326.50        2965.75           1432       25766.00    112671.00
  326.53        2966.00           1436       27865.00    121885.60
  326.56        2966.25           1439       29214.00    127810.40
  326.59        2966.50           1442       30596.00    133882.40
  326.62        2966.75           1446       32149.00    140708.20
  326.65        2967.00           1449       32505.00    142273.40
  326.69        2967.25           1452       32677.00    143029.60
  326.72        2967.50           1456       32596.00    142673.40
  326.75        2967.75           1459       32557.00    142502.00
  326.78        2968.00           1462       32462.00    142084.30
  326.81        2968.25           1466       31699.00    138730.10
  326.84        2968.50           1469       30485.00    133394.60
  326.87        2968.75           1472       29145.00    127507.30
  326.90        2969.00           1476       27097.00    118513.50
  326.93        2969.25           1479       25485.00    111437.80
  326.97        2969.50           1482       24096.00    105343.30
  327.00        2969.75           1486       22172.00     96905.11
  327.03        2970.00           1489       20557.00     89825.43
  327.06        2970.25           1492       19164.00     83721.35
  327.09        2970.50           1496       17095.00     74659.19
  327.12        2970.75           1499       15628.00     68236.76
  327.15        2971.00           1502       14211.00     62035.57
  327.18        2971.25           1506       12246.00     53440.01
  327.21        2971.50           1509       10703.00     46693.53
  327.24        2971.75           1513        8836.00     38534.06
  327.27        2972.00           1516        7340.00     31998.88
  327.30        2972.25           1519        5825.00     25383.32
  327.34        2972.50           1523        3869.00     16845.91
  327.37        2972.75           1526        2449.00     10650.74
  327.40        2973.00           1529        1140.00      4941.88
  327.43        2973.25           1533         490.00      2107.81
  327.46        2973.50           1536         339.00      1449.50
  327.49        2973.75           1539         289.00      1231.52
  327.52        2974.00           1543         243.00      1030.98
  327.55        2974.25           1546         191.00       804.29
  327.58        2974.50           1549         140.00       581.96
  327.61        2974.75           1553         111.00       455.54
  327.64        2975.00           1556          81.00       324.76
  327.68        2975.25           1559          73.00       289.89
  327.71        2975.50           1563          57.00       220.14
  327.74        2975.75           1566          54.00       207.06
  327.77        2976.00           1569          61.00       237.58
  327.80        2976.25           1573          54.00       207.06
  327.83        2976.50           1576          60.00       233.22
  327.86        2976.75           1579          60.00       233.22
  327.89        2977.00           1583          62.00       241.94
  327.92        2977.25           1586          54.00       207.06
  327.95        2977.50           1590          50.00       189.63
  327.98        2977.75           1593          52.00       198.34
  328.01        2978.00           1596          62.00       241.94
  328.05        2978.25           1600          66.00       259.37
  328.08        2978.50           1603          58.00       224.50
  328.11        2978.75           1606          50.00       189.63
  328.14        2979.00           1610          66.00       259.37
  328.17        2979.25           1613          62.00       241.94
  328.20        2979.50           1616          60.00       233.22
  328.23        2979.75           1620          56.00       215.78
  328.26        2980.00           1623          58.00       224.50
  328.29        2980.25           1626          51.00       193.99
  328.32        2980.50           1630          54.00       207.06
  328.35        2980.75           1633          53.00       202.70
  328.38        2981.00           1637          51.00       193.99
  328.41        2981.25           1640          60.00       233.22
  328.45        2981.50           1643          57.00       220.14
  328.48        2981.75           1647          61.00       237.58
  328.51        2982.00           1650          56.00       215.78
  328.54        2982.25           1653          58.00       224.50
  328.57        2982.50           1657          53.00       202.70
  328.60        2982.75           1660          59.00       228.86
  328.63        2983.00           1663          57.00       220.14
  328.66        2983.25           1667          61.00       237.58
  328.69        2983.50           1670          58.00       224.50
  328.72        2983.75           1673          51.00       193.99
  328.75        2984.00           1677          54.00       207.06
HS scan finished at 05:28:58
end
************************************************************
  HS Scan of (1) Internal mercury lamp
************************************************************
Integration time is 0.2294 seconds per sample
dh120118Manchester 53.47 2.23 2.804185pr1000
************************************************************
Dead Time -------------------------  3E-08 
Number of Cycles Used -------------  4 
Starting Wavelength (Angstroms) ---  2950 
Final Wavelength (Angstoms) -------  2984 
Wavelength Increment (Angstroms) --  .25 
Filter Wheel #1 Position ---------- (1) Ground quartz diffuser (ND=2.32)
Filter Wheel #2 Position ---------- (1) Neutral Density 0.494



************************************************************
HS scan start time = 17:12:03
Dark Count =  6.7 


Time (GMT)  Wavelength (Ang)  Step Number  Raw Counts  Counts/Second

 1032.43        2950.00           1222          56.00       214.91
 1032.49        2950.25           1226          61.00       236.71
 1032.52        2950.50           1229          64.00       249.78
 1032.55        2950.75           1232          63.00       245.42
 1032.59        2951.00           1236          61.00       236.71
 1032.62        2951.25           1239          55.00       210.55
 1032.65        2951.50           1242          58.00       223.63
 1032.68        2951.75           1246          60.00       232.35
 1032.71        2952.00           1249          61.00       236.71
 1032.74        2952.25           1252          67.00       262.86
 1032.77        2952.50           1256          57.00       219.27
 1032.80        2952.75           1259          56.00       214.91
 1032.83        2953.00           1262          61.00       236.71
 1032.86        2953.25           1266          59.00       227.99
 1032.89        2953.50           1269          72.00       284.66
 1032.93        2953.75           1272          62.00       241.07
 1032.96        2954.00           1276          64.00       249.78
 1032.99        2954.25           1279          65.00       254.14
 1033.02        2954.50           1282          53.00       201.83
 1033.05        2954.75           1286          57.00       219.27
 1033.08        2955.00           1289          66.00       258.50
 1033.11        2955.25           1292          55.00       210.55
 1033.14        2955.50           1296          65.00       254.14
 1033.17        2955.75           1299          50.00       188.75
 1033.20        2956.00           1302          60.00       232.35
 1033.23        2956.25           1306          63.00       245.42
 1033.26        2956.50           1309          65.00       254.14
 1033.29        2956.75           1312          60.00       232.35
 1033.32        2957.00           1316          59.00       227.99
 1033.35        2957.25           1319          70.00       275.94
 1033.38        2957.50           1322          64.00       249.78
 1033.42        2957.75           1326          67.00       262.86
 1033.45        2958.00           1329          69.00       271.58
 1033.48        2958.25           1332          59.00       227.99
 1033.51        2958.50           1336          59.00       227.99
 1033.54        2958.75           1339          60.00       232.35
 1033.57        2959.00           1342          63.00       245.42
 1033.60        2959.25           1346          59.00       227.99
 1033.63        2959.50           1349          60.00       232.35
 1033.66        2959.75           1352          67.00       262.86
 1033.69        2960.00           1356          96.00       389.28
 1033.72        2960.25           1359         109.00       445.95
 1033.75        2960.50           1362         140.00       581.09
 1033.78        2960.75           1366         186.00       781.62
 1033.82        2961.00           1369         241.00      1021.39
 1033.85        2961.25           1372         273.00      1160.89
 1033.88        2961.50           1376         358.00      1531.46
 1033.91        2961.75           1379         462.00      1984.86
 1033.94        2962.00           1382         914.00      3955.57
 1033.97        2962.25           1386        2360.00     10261.66
 1034.00        2962.50           1389        3680.00     16020.34
 1034.03        2962.75           1392        5108.00     22252.43
 1034.06        2963.00           1396        6960.00     30338.41
 1034.09        2963.25           1399        8471.00     36938.47
 1034.13        2963.50           1402       10039.00     43790.27
 1034.16        2963.75           1406       12160.00     53063.05
 1034.19        2964.00           1409       13761.00     60065.86
 1034.22        2964.25           1412       15394.00     67211.68
 1034.25        2964.50           1416       17456.00     76239.13
 1034.28        2964.75           1419       19071.00     83313.04
 1034.31        2965.00           1422       20575.00     89903.44
 1034.34        2965.25           1426       22690.00     99175.64
 1034.37        2965.50           1429       24215.00    105864.50
 1034.41        2965.75           1432       25550.00    111722.10
 1034.44        2966.00           1436       27687.00    121103.10
 1034.47        2966.25           1439       28970.00    126737.70
 1034.50        2966.50           1442       30256.00    132387.40
 1034.53        2966.75           1446       32012.00    140105.10
 1034.56        2967.00           1449       32384.00    141740.50
 1034.59        2967.25           1452       32589.00    142641.80
 1034.62        2967.50           1456       32595.00    142668.20
 1034.65        2967.75           1459       32606.00    142716.60
 1034.68        2968.00           1462       32411.00    141859.20
 1034.72        2968.25           1466       31698.00    138724.80
 1034.75        2968.50           1469       30612.00    133951.80
 1034.78        2968.75           1472       29108.00    127343.90
 1034.81        2969.00           1476       27348.00    119614.60
 1034.84        2969.25           1479       25809.00    112858.80
 1034.87        2969.50           1482       24300.00    106237.40
 1034.90        2969.75           1486       22374.00     97789.96
 1034.93        2970.00           1489       20993.00     91735.56
 1034.96        2970.25           1492       19544.00     85385.40
 1034.99        2970.50           1496       17557.00     76681.44
 1035.03        2970.75           1499       15869.00     69290.80
 1035.06        2971.00           1502       14367.00     62717.28
 1035.09        2971.25           1506       12555.00     54790.51
 1035.12        2971.50           1509       11053.00     48222.72
 1035.15        2971.75           1513        9051.00     39472.61
 1035.18        2972.00           1516        7642.00     33317.07
 1035.21        2972.25           1519        6257.00     27268.59
 1035.24        2972.50           1523        4203.00     18302.55
 1035.27        2972.75           1526        2752.00     11971.61
 1035.30        2973.00           1529        1438.00      6240.49
 1035.33        2973.25           1533         538.00      2316.20
 1035.37        2973.50           1536         368.00      1575.05
 1035.40        2973.75           1539         320.00      1365.79
 1035.43        2974.00           1543         260.00      1104.22
 1035.46        2974.25           1546         213.00       899.33
 1035.49        2974.50           1549         166.00       694.43
 1035.52        2974.75           1553         113.00       463.39
 1035.55        2975.00           1556          87.00       350.05
 1035.58        2975.25           1559          73.00       289.02
 1035.61        2975.50           1563          58.00       223.63
 1035.64        2975.75           1566          54.00       206.19
 1035.68        2976.00           1569          55.00       210.55
 1035.71        2976.25           1573          57.00       219.27
 1035.74        2976.50           1576          60.00       232.35
 1035.77        2976.75           1579          60.00       232.35
 1035.80        2977.00           1583          59.00       227.99
 1035.83        2977.25           1586          60.00       232.35
 1035.86        2977.50           1590          50.00       188.75
 1035.89        2977.75           1593          65.00       254.14
 1035.92        2978.00           1596          60.00       232.35
 1035.95        2978.25           1600          57.00       219.27
 1035.98        2978.50           1603          55.00       210.55
 1036.02        2978.75           1606          58.00       223.63
 1036.05        2979.00           1610          60.00       232.35
 1036.08        2979.25           1613          60.00       232.35
 1036.11        2979.50           1616          60.00       232.35
 1036.14        2979.75           1620          67.00       262.86
 1036.17        2980.00           1623          62.00       241.07
 1036.20        2980.25           1626          59.00       227.99
 1036.23        2980.50           1630          56.00       214.91
 1036.26        2980.75           1633          62.00       241.07
 1036.29        2981.00           1637          51.00       193.11
 1036.32        2981.25           1640          58.00       223.63
 1036.35        2981.50           1643          63.00       245.42
 1036.39        2981.75           1647          63.00       245.42
 1036.42        2982.00           1650          74.00       293.38
 1036.45        2982.25           1653          59.00       227.99
 1036.48        2982.50           1657          61.00       236.71
 1036.51        2982.75           1660          57.00       219.27
 1036.54        2983.00           1663          56.00       214.91
 1036.57        2983.25           1667          55.00       210.55
 1036.60        2983.50           1670          59.00       227.99
 1036.63        2983.75           1673          56.00       214.91
 1036.66        2984.00           1677          55.00       210.55
HS scan finished at 17:16:53
end
