************************************************************
  HS Scan of (1) Internal mercury lamp
************************************************************
Integration time is 0.2294 seconds per sample
dh140118Manchester 53.47 2.23 2.804185pr1000
************************************************************
Dead Time -------------------------  3E-08 
Number of Cycles Used -------------  4 
Starting Wavelength (Angstroms) ---  2950 
Final Wavelength (Angstoms) -------  2984 
Wavelength Increment (Angstroms) --  .25 
Filter Wheel #1 Position ---------- (1) Ground quartz diffuser (ND=2.32)
Filter Wheel #2 Position ---------- (1) Neutral Density 0.494



************************************************************
HS scan start time = 05:23:10
Dark Count =  9 


Time (GMT)  Wavelength (Ang)  Step Number  Raw Counts  Counts/Second

  323.53        2950.00           1222          61.00       226.68
  323.60        2950.25           1226          64.00       239.76
  323.63        2950.50           1229          57.00       209.24
  323.66        2950.75           1232          64.00       239.76
  323.69        2951.00           1236          64.00       239.76
  323.72        2951.25           1239          54.00       196.17
  323.75        2951.50           1242          59.00       217.96
  323.78        2951.75           1246          62.00       231.04
  323.82        2952.00           1249          66.00       248.48
  323.85        2952.25           1252          59.00       217.96
  323.88        2952.50           1256          65.00       244.12
  323.91        2952.75           1259          66.00       248.48
  323.94        2953.00           1262          58.00       213.60
  323.97        2953.25           1266          75.00       287.71
  324.00        2953.50           1269          61.00       226.68
  324.03        2953.75           1272          64.00       239.76
  324.06        2954.00           1276          58.00       213.60
  324.09        2954.25           1279          59.00       217.96
  324.12        2954.50           1282          61.00       226.68
  324.16        2954.75           1286          67.00       252.84
  324.19        2955.00           1289          63.00       235.40
  324.22        2955.25           1292          62.00       231.04
  324.25        2955.50           1296          61.00       226.68
  324.28        2955.75           1299          64.00       239.76
  324.31        2956.00           1302          68.00       257.19
  324.34        2956.25           1306          58.00       213.60
  324.37        2956.50           1309          67.00       252.84
  324.40        2956.75           1312          61.00       226.68
  324.43        2957.00           1316          60.00       222.32
  324.46        2957.25           1319          62.00       231.04
  324.50        2957.50           1322          66.00       248.48
  324.53        2957.75           1326          65.00       244.12
  324.56        2958.00           1329          58.00       213.60
  324.59        2958.25           1332          55.00       200.52
  324.62        2958.50           1336          65.00       244.12
  324.65        2958.75           1339          70.00       265.91
  324.68        2959.00           1342          58.00       213.60
  324.71        2959.25           1346          58.00       213.60
  324.74        2959.50           1349          66.00       248.48
  324.77        2959.75           1352          82.00       318.22
  324.80        2960.00           1356         104.00       414.13
  324.83        2960.25           1359         147.00       601.58
  324.86        2960.50           1362         179.00       741.08
  324.90        2960.75           1366         214.00       893.66
  324.93        2961.00           1369         262.00      1102.91
  324.96        2961.25           1372         299.00      1264.22
  324.99        2961.50           1376         364.00      1547.59
  325.02        2961.75           1379         456.00      1948.68
  325.05        2962.00           1382         797.00      3435.40
  325.08        2962.25           1386        2269.00      9854.70
  325.11        2962.50           1389        3777.00     16433.56
  325.14        2962.75           1392        5167.00     22499.93
  325.17        2963.00           1396        7080.00     30852.43
  325.21        2963.25           1399        8555.00     37295.42
  325.24        2963.50           1402       10031.00     43745.26
  325.27        2963.75           1406       12071.00     52663.79
  325.30        2964.00           1409       13597.00     59338.32
  325.33        2964.25           1412       15163.00     66190.60
  325.36        2964.50           1416       17269.00     75410.16
  325.39        2964.75           1419       18759.00     81936.12
  325.42        2965.00           1422       20397.00     89113.24
  325.45        2965.25           1426       22311.00     97503.63
  325.49        2965.50           1429       23915.00    104538.30
  325.52        2965.75           1432       25261.00    110443.80
  325.55        2966.00           1436       27267.00    119248.90
  325.58        2966.25           1439       28476.00    124557.90
  325.61        2966.50           1442       30066.00    131542.50
  325.64        2966.75           1446       31813.00    139220.20
  325.67        2967.00           1449       32314.00    141422.60
  325.70        2967.25           1452       32663.00    142957.10
  325.73        2967.50           1456       32522.00    142337.10
  325.77        2967.75           1459       32817.00    143634.20
  325.80        2968.00           1462       32591.00    142640.50
  325.83        2968.25           1466       32109.00    140521.40
  325.86        2968.50           1469       30865.00    135053.50
  325.89        2968.75           1472       29444.00    128809.80
  325.92        2969.00           1476       27712.00    121202.80
  325.95        2969.25           1479       26305.00    115025.70
  325.98        2969.50           1482       24712.00    108034.90
  326.01        2969.75           1486       22746.00     99411.12
  326.04        2970.00           1489       21158.00     92448.72
  326.08        2970.25           1492       19506.00     85208.82
  326.11        2970.50           1496       17448.00     76194.03
  326.14        2970.75           1499       16051.00     70077.43
  326.17        2971.00           1502       14561.00     63556.12
  326.20        2971.25           1506       12557.00     54789.19
  326.23        2971.50           1509       10996.00     47963.48
  326.26        2971.75           1513        9115.00     39742.21
  326.29        2972.00           1516        7599.00     33119.20
  326.32        2972.25           1519        6232.00     27149.39
  326.36        2972.50           1523        4183.00     18205.24
  326.39        2972.75           1526        2737.00     11896.14
  326.42        2973.00           1529        1369.00      5929.56
  326.45        2973.25           1533         498.00      2131.78
  326.48        2973.50           1536         331.00      1403.72
  326.51        2973.75           1539         278.00      1172.67
  326.54        2974.00           1543         207.00       863.14
  326.57        2974.25           1546         168.00       693.13
  326.60        2974.50           1549         131.00       531.83
  326.63        2974.75           1553          94.00       370.54
  326.66        2975.00           1556          74.00       283.35
  326.69        2975.25           1559          69.00       261.55
  326.73        2975.50           1563          62.00       231.04
  326.76        2975.75           1566          65.00       244.12
  326.79        2976.00           1569          63.00       235.40
  326.82        2976.25           1573          60.00       222.32
  326.85        2976.50           1576          58.00       213.60
  326.88        2976.75           1579          54.00       196.17
  326.91        2977.00           1583          57.00       209.24
  326.94        2977.25           1586          60.00       222.32
  326.97        2977.50           1590          57.00       209.24
  327.00        2977.75           1593          59.00       217.96
  327.03        2978.00           1596          61.00       226.68
  327.06        2978.25           1600          60.00       222.32
  327.09        2978.50           1603          57.00       209.24
  327.13        2978.75           1606          55.00       200.52
  327.16        2979.00           1610          57.00       209.24
  327.19        2979.25           1613          57.00       209.24
  327.22        2979.50           1616          59.00       217.96
  327.25        2979.75           1620          56.00       204.88
  327.28        2980.00           1623          61.00       226.68
  327.31        2980.25           1626          50.00       178.73
  327.34        2980.50           1630          51.00       183.09
  327.37        2980.75           1633          57.00       209.24
  327.40        2981.00           1637          52.00       187.45
  327.43        2981.25           1640          55.00       200.52
  327.46        2981.50           1643          59.00       217.96
  327.49        2981.75           1647          60.00       222.32
  327.52        2982.00           1650          54.00       196.17
  327.55        2982.25           1653          52.00       187.45
  327.59        2982.50           1657          58.00       213.60
  327.62        2982.75           1660          57.00       209.24
  327.65        2983.00           1663          58.00       213.60
  327.68        2983.25           1667          52.00       187.45
  327.71        2983.50           1670          62.00       231.04
  327.74        2983.75           1673          54.00       196.17
  327.77        2984.00           1677          62.00       231.04
HS scan finished at 05:27:59
end
************************************************************
  HS Scan of (1) Internal mercury lamp
************************************************************
Integration time is 0.2294 seconds per sample
dh140118Manchester 53.47 2.23 2.750537pr1000
************************************************************
Dead Time -------------------------  3E-08 
Number of Cycles Used -------------  4 
Starting Wavelength (Angstroms) ---  2950 
Final Wavelength (Angstoms) -------  2984 
Wavelength Increment (Angstroms) --  .25 
Filter Wheel #1 Position ---------- (1) Ground quartz diffuser (ND=2.32)
Filter Wheel #2 Position ---------- (1) Neutral Density 0.494



************************************************************
HS scan start time = 17:12:03
Dark Count =  3.4 


Time (GMT)  Wavelength (Ang)  Step Number  Raw Counts  Counts/Second

 1032.43        2950.00           1222          59.00       242.37
 1032.49        2950.25           1226          58.00       238.01
 1032.52        2950.50           1229          65.00       268.53
 1032.55        2950.75           1232          64.00       264.17
 1032.59        2951.00           1236          58.00       238.01
 1032.62        2951.25           1239          63.00       259.81
 1032.65        2951.50           1242          62.00       255.45
 1032.68        2951.75           1246          58.00       238.01
 1032.71        2952.00           1249          62.00       255.45
 1032.74        2952.25           1252          63.00       259.81
 1032.77        2952.50           1256          70.00       290.33
 1032.80        2952.75           1259          56.00       229.30
 1032.83        2953.00           1262          64.00       264.17
 1032.86        2953.25           1266          66.00       272.89
 1032.89        2953.50           1269          52.00       211.86
 1032.92        2953.75           1272          58.00       238.01
 1032.95        2954.00           1276          63.00       259.81
 1032.99        2954.25           1279          61.00       251.09
 1033.02        2954.50           1282          62.00       255.45
 1033.05        2954.75           1286          58.00       238.01
 1033.08        2955.00           1289          64.00       264.17
 1033.11        2955.25           1292          61.00       251.09
 1033.14        2955.50           1296          61.00       251.09
 1033.17        2955.75           1299          56.00       229.30
 1033.20        2956.00           1302          59.00       242.37
 1033.23        2956.25           1306          59.00       242.37
 1033.26        2956.50           1309          62.00       255.45
 1033.29        2956.75           1312          62.00       255.45
 1033.32        2957.00           1316          58.00       238.01
 1033.35        2957.25           1319          65.00       268.53
 1033.38        2957.50           1322          63.00       259.81
 1033.41        2957.75           1326          64.00       264.17
 1033.45        2958.00           1329          62.00       255.45
 1033.48        2958.25           1332          63.00       259.81
 1033.51        2958.50           1336          64.00       264.17
 1033.54        2958.75           1339          61.00       251.09
 1033.57        2959.00           1342          59.00       242.37
 1033.60        2959.25           1346          66.00       272.89
 1033.63        2959.50           1349          72.00       299.04
 1033.66        2959.75           1352          90.00       377.51
 1033.69        2960.00           1356         112.00       473.42
 1033.72        2960.25           1359         153.00       652.15
 1033.75        2960.50           1362         181.00       774.21
 1033.78        2960.75           1366         242.00      1040.14
 1033.81        2961.00           1369         279.00      1201.44
 1033.84        2961.25           1372         319.00      1375.82
 1033.88        2961.50           1376         366.00      1580.72
 1033.91        2961.75           1379         501.00      2169.28
 1033.94        2962.00           1382         951.00      4131.29
 1033.97        2962.25           1386        2550.00     11104.83
 1034.00        2962.50           1389        3984.00     17361.26
 1034.03        2962.75           1392        5375.00     23432.34
 1034.06        2963.00           1396        7315.00     31903.24
 1034.09        2963.25           1399        8848.00     38600.04
 1034.12        2963.50           1402       10465.00     45666.71
 1034.15        2963.75           1406       12470.00     54433.19
 1034.19        2964.00           1409       13957.00     60937.81
 1034.22        2964.25           1412       15588.00     68075.25
 1034.25        2964.50           1416       17524.00     76551.37
 1034.28        2964.75           1419       19037.00     83178.53
 1034.31        2965.00           1422       20646.00     90229.09
 1034.34        2965.25           1426       22671.00     99106.78
 1034.37        2965.50           1429       24108.00    105409.50
 1034.40        2965.75           1432       25786.00    112772.40
 1034.43        2966.00           1436       27798.00    121605.00
 1034.47        2966.25           1439       29084.00    127253.00
 1034.50        2966.50           1442       30456.00    133280.80
 1034.53        2966.75           1446       31739.00    138919.50
 1034.56        2967.00           1449       32325.00    141495.60
 1034.59        2967.25           1452       32422.00    141922.10
 1034.62        2967.50           1456       32354.00    141623.10
 1034.65        2967.75           1459       32288.00    141333.00
 1034.68        2968.00           1462       32408.00    141860.50
 1034.71        2968.25           1466       31397.00    137416.30
 1034.75        2968.50           1469       30115.00    131782.40
 1034.78        2968.75           1472       28611.00    125175.40
 1034.81        2969.00           1476       26894.00    117635.90
 1034.84        2969.25           1479       25226.00    110314.80
 1034.87        2969.50           1482       23833.00    104203.20
 1034.90        2969.75           1486       21933.00     95870.81
 1034.93        2970.00           1489       20404.00     89168.46
 1034.96        2970.25           1492       18983.00     82941.96
 1034.99        2970.50           1496       16968.00     74116.66
 1035.02        2970.75           1499       15525.00     67799.50
 1035.06        2971.00           1502       14002.00     61134.69
 1035.09        2971.25           1506       11927.00     52058.57
 1035.12        2971.50           1509       10270.00     44814.35
 1035.15        2971.75           1513        8433.00     36786.87
 1035.18        2972.00           1516        6949.00     30304.79
 1035.21        2972.25           1519        5410.00     23585.12
 1035.24        2972.50           1523        3690.00     16078.37
 1035.27        2972.75           1526        2291.00      9975.09
 1035.30        2973.00           1529         973.00      4227.21
 1035.34        2973.25           1533         422.00      1824.86
 1035.37        2973.50           1536         316.00      1362.74
 1035.40        2973.75           1539         268.00      1153.48
 1035.43        2974.00           1543         218.00       935.51
 1035.46        2974.25           1546         166.00       708.82
 1035.49        2974.50           1549         124.00       525.73
 1035.52        2974.75           1553          91.00       381.87
 1035.55        2975.00           1556          72.00       299.04
 1035.58        2975.25           1559          72.00       299.04
 1035.61        2975.50           1563          61.00       251.09
 1035.65        2975.75           1566          59.00       242.37
 1035.68        2976.00           1569          63.00       259.81
 1035.71        2976.25           1573          56.00       229.30
 1035.74        2976.50           1576          61.00       251.09
 1035.77        2976.75           1579          67.00       277.25
 1035.80        2977.00           1583          53.00       216.22
 1035.83        2977.25           1586          60.00       246.73
 1035.86        2977.50           1590          57.00       233.65
 1035.89        2977.75           1593          55.00       224.94
 1035.92        2978.00           1596          58.00       238.01
 1035.95        2978.25           1600          54.00       220.58
 1035.98        2978.50           1603          59.00       242.37
 1036.02        2978.75           1606          59.00       242.37
 1036.05        2979.00           1610          49.00       198.78
 1036.08        2979.25           1613          52.00       211.86
 1036.11        2979.50           1616          54.00       220.58
 1036.14        2979.75           1620          56.00       229.30
 1036.17        2980.00           1623          58.00       238.01
 1036.20        2980.25           1626          55.00       224.94
 1036.23        2980.50           1630          50.00       203.14
 1036.26        2980.75           1633          54.00       220.58
 1036.29        2981.00           1637          49.00       198.78
 1036.32        2981.25           1640          48.00       194.42
 1036.35        2981.50           1643          67.00       277.25
 1036.38        2981.75           1647          68.00       281.61
 1036.42        2982.00           1650          61.00       251.09
 1036.45        2982.25           1653          58.00       238.01
 1036.48        2982.50           1657          60.00       246.73
 1036.51        2982.75           1660          59.00       242.37
 1036.54        2983.00           1663          54.00       220.58
 1036.57        2983.25           1667          49.00       198.78
 1036.60        2983.50           1670          60.00       246.73
 1036.63        2983.75           1673          58.00       238.01
 1036.66        2984.00           1677          57.00       233.65
HS scan finished at 17:16:53
end
