************************************************************
  HS Scan of (1) Internal mercury lamp
************************************************************
Integration time is 0.2294 seconds per sample
dh130117Manchester 53.47 2.23 2.696889pr1000
************************************************************
Dead Time -------------------------  3E-08 
Number of Cycles Used -------------  4 
Starting Wavelength (Angstroms) ---  2950 
Final Wavelength (Angstoms) -------  2984 
Wavelength Increment (Angstroms) --  .25 
Filter Wheel #1 Position ---------- (1) Ground quartz diffuser (ND=2.32)
Filter Wheel #2 Position ---------- (1) Neutral Density 0.494



************************************************************
HS scan start time = 05:23:34
Dark Count =  7.1 


Time (GMT)  Wavelength (Ang)  Step Number  Raw Counts  Counts/Second

  323.94        2950.00           1222          40.00       143.42
  324.01        2950.25           1226          41.00       147.78
  324.04        2950.50           1229          40.00       143.42
  324.07        2950.75           1232          46.00       169.57
  324.10        2951.00           1236          43.00       156.50
  324.13        2951.25           1239          43.00       156.50
  324.16        2951.50           1242          41.00       147.78
  324.19        2951.75           1246          42.00       152.14
  324.22        2952.00           1249          42.00       152.14
  324.25        2952.25           1252          48.00       178.29
  324.28        2952.50           1256          43.00       156.50
  324.31        2952.75           1259          45.00       165.21
  324.35        2953.00           1262          44.00       160.86
  324.38        2953.25           1266          51.00       191.37
  324.41        2953.50           1269          41.00       147.78
  324.44        2953.75           1272          48.00       178.29
  324.47        2954.00           1276          46.00       169.57
  324.50        2954.25           1279          45.00       165.21
  324.53        2954.50           1282          50.00       187.01
  324.56        2954.75           1286          45.00       165.21
  324.59        2955.00           1289          36.00       125.98
  324.62        2955.25           1292          39.00       139.06
  324.65        2955.50           1296          50.00       187.01
  324.68        2955.75           1299          46.00       169.57
  324.71        2956.00           1302          47.00       173.93
  324.74        2956.25           1306          48.00       178.29
  324.77        2956.50           1309          42.00       152.14
  324.80        2956.75           1312          44.00       160.86
  324.83        2957.00           1316          51.00       191.37
  324.87        2957.25           1319          41.00       147.78
  324.90        2957.50           1322          48.00       178.29
  324.93        2957.75           1326          37.00       130.34
  324.96        2958.00           1329          47.00       173.93
  324.99        2958.25           1332          44.00       160.86
  325.02        2958.50           1336          39.00       139.06
  325.05        2958.75           1339          46.00       169.57
  325.08        2959.00           1342          51.00       191.37
  325.11        2959.25           1346          47.00       173.93
  325.14        2959.50           1349          55.00       208.81
  325.17        2959.75           1352          74.00       291.63
  325.21        2960.00           1356          98.00       396.26
  325.24        2960.25           1359         127.00       522.68
  325.27        2960.50           1362         169.00       705.77
  325.30        2960.75           1366         223.00       941.18
  325.33        2961.00           1369         267.00      1132.99
  325.36        2961.25           1372         314.00      1337.89
  325.39        2961.50           1376         371.00      1586.39
  325.42        2961.75           1379         505.00      2170.59
  325.45        2962.00           1382         923.00      3993.07
  325.48        2962.25           1386        2353.00     10229.38
  325.52        2962.50           1389        4036.00     17572.03
  325.55        2962.75           1392        5565.00     24245.62
  325.58        2963.00           1396        7561.00     32961.52
  325.61        2963.25           1399        9144.00     39877.24
  325.64        2963.50           1402       10777.00     47014.40
  325.67        2963.75           1406       13040.00     56910.07
  325.70        2964.00           1409       14703.00     64185.82
  325.73        2964.25           1412       16590.00     72445.43
  325.76        2964.50           1416       18952.00     82789.95
  325.79        2964.75           1419       20592.00     89976.21
  325.82        2965.00           1422       22285.00     97397.96
  325.86        2965.25           1426       24579.00    107459.70
  325.89        2965.50           1429       26210.00    114617.10
  325.92        2965.75           1432       27846.00    121799.50
  325.95        2966.00           1436       29972.00    131137.90
  325.98        2966.25           1439       31659.00    138551.60
  326.01        2966.50           1442       33087.00    144829.70
  326.04        2966.75           1446       34960.00    153067.90
  326.07        2967.00           1449       35775.00    156653.90
  326.10        2967.25           1452       36033.00    157789.20
  326.14        2967.50           1456       36059.00    157903.60
  326.17        2967.75           1459       35977.00    157542.80
  326.20        2968.00           1462       35959.00    157463.50
  326.23        2968.25           1466       35290.00    154519.80
  326.26        2968.50           1469       34444.00    150797.90
  326.29        2968.75           1472       32944.00    144200.90
  326.32        2969.00           1476       30763.00    134613.60
  326.35        2969.25           1479       29239.00    127917.60
  326.38        2969.50           1482       27730.00    121290.10
  326.41        2969.75           1486       25457.00    111312.20
  326.45        2970.00           1489       23822.00    104138.70
  326.48        2970.25           1492       22128.00     96709.56
  326.51        2970.50           1496       19934.00     87092.56
  326.54        2970.75           1499       18155.00     79298.71
  326.57        2971.00           1502       16298.00     71167.04
  326.60        2971.25           1506       14298.00     62413.62
  326.63        2971.50           1509       12407.00     54141.49
  326.66        2971.75           1513       10268.00     44789.44
  326.69        2972.00           1516        8669.00     37801.79
  326.73        2972.25           1519        7065.00     30795.22
  326.76        2972.50           1523        4900.00     21342.78
  326.79        2972.75           1526        3517.00     15307.38
  326.82        2973.00           1529        2011.00      8737.69
  326.85        2973.25           1533         664.00      2863.80
  326.88        2973.50           1536         372.00      1590.75
  326.91        2973.75           1539         294.00      1250.70
  326.94        2974.00           1543         258.00      1093.76
  326.97        2974.25           1546         183.00       766.80
  327.00        2974.50           1549         133.00       548.83
  327.04        2974.75           1553          78.00       309.07
  327.07        2975.00           1556          63.00       243.68
  327.10        2975.25           1559          57.00       217.53
  327.13        2975.50           1563          47.00       173.93
  327.16        2975.75           1566          45.00       165.21
  327.19        2976.00           1569          40.00       143.42
  327.22        2976.25           1573          46.00       169.57
  327.25        2976.50           1576          57.00       217.53
  327.28        2976.75           1579          52.00       195.73
  327.31        2977.00           1583          44.00       160.86
  327.35        2977.25           1586          48.00       178.29
  327.38        2977.50           1590          48.00       178.29
  327.41        2977.75           1593          45.00       165.21
  327.44        2978.00           1596          43.00       156.50
  327.47        2978.25           1600          43.00       156.50
  327.50        2978.50           1603          49.00       182.65
  327.53        2978.75           1606          42.00       152.14
  327.56        2979.00           1610          47.00       173.93
  327.59        2979.25           1613          45.00       165.21
  327.62        2979.50           1616          45.00       165.21
  327.65        2979.75           1620          42.00       152.14
  327.68        2980.00           1623          42.00       152.14
  327.71        2980.25           1626          48.00       178.29
  327.74        2980.50           1630          49.00       182.65
  327.78        2980.75           1633          47.00       173.93
  327.81        2981.00           1637          43.00       156.50
  327.84        2981.25           1640          49.00       182.65
  327.87        2981.50           1643          43.00       156.50
  327.90        2981.75           1647          49.00       182.65
  327.93        2982.00           1650          41.00       147.78
  327.96        2982.25           1653          39.00       139.06
  327.99        2982.50           1657          37.00       130.34
  328.02        2982.75           1660          42.00       152.14
  328.05        2983.00           1663          44.00       160.86
  328.08        2983.25           1667          42.00       152.14
  328.12        2983.50           1670          50.00       187.01
  328.15        2983.75           1673          39.00       139.06
  328.18        2984.00           1677          50.00       187.01
HS scan finished at 05:28:24
end
************************************************************
  HS Scan of (1) Internal mercury lamp
************************************************************
Integration time is 0.2294 seconds per sample
dh130117Manchester 53.47 2.23 2.750537pr1000
************************************************************
Dead Time -------------------------  3E-08 
Number of Cycles Used -------------  4 
Starting Wavelength (Angstroms) ---  2950 
Final Wavelength (Angstoms) -------  2984 
Wavelength Increment (Angstroms) --  .25 
Filter Wheel #1 Position ---------- (1) Ground quartz diffuser (ND=2.32)
Filter Wheel #2 Position ---------- (1) Neutral Density 0.494



************************************************************
HS scan start time = 17:12:03
Dark Count =  7.4 


Time (GMT)  Wavelength (Ang)  Step Number  Raw Counts  Counts/Second

 1032.41        2950.00           1222          46.00       168.27
 1032.48        2950.25           1226          44.00       159.55
 1032.51        2950.50           1229          43.00       155.19
 1032.54        2950.75           1232          42.00       150.83
 1032.57        2951.00           1236          45.00       163.91
 1032.60        2951.25           1239          41.00       146.47
 1032.63        2951.50           1242          43.00       155.19
 1032.66        2951.75           1246          47.00       172.63
 1032.70        2952.00           1249          56.00       211.86
 1032.73        2952.25           1252          45.00       163.91
 1032.76        2952.50           1256          40.00       142.11
 1032.79        2952.75           1259          45.00       163.91
 1032.82        2953.00           1262          43.00       155.19
 1032.85        2953.25           1266          43.00       155.19
 1032.88        2953.50           1269          41.00       146.47
 1032.91        2953.75           1272          44.00       159.55
 1032.94        2954.00           1276          45.00       163.91
 1032.97        2954.25           1279          46.00       168.27
 1033.00        2954.50           1282          43.00       155.19
 1033.04        2954.75           1286          56.00       211.86
 1033.07        2955.00           1289          46.00       168.27
 1033.10        2955.25           1292          39.00       137.75
 1033.13        2955.50           1296          44.00       159.55
 1033.16        2955.75           1299          42.00       150.83
 1033.19        2956.00           1302          40.00       142.11
 1033.22        2956.25           1306          45.00       163.91
 1033.25        2956.50           1309          48.00       176.98
 1033.28        2956.75           1312          45.00       163.91
 1033.32        2957.00           1316          51.00       190.06
 1033.35        2957.25           1319          44.00       159.55
 1033.38        2957.50           1322          43.00       155.19
 1033.41        2957.75           1326          59.00       224.94
 1033.44        2958.00           1329          42.00       150.83
 1033.47        2958.25           1332          45.00       163.91
 1033.50        2958.50           1336          45.00       163.91
 1033.53        2958.75           1339          43.00       155.19
 1033.56        2959.00           1342          42.00       150.83
 1033.59        2959.25           1346          45.00       163.91
 1033.62        2959.50           1349          54.00       203.14
 1033.65        2959.75           1352          58.00       220.58
 1033.68        2960.00           1356          89.00       355.71
 1033.71        2960.25           1359         114.00       464.70
 1033.74        2960.50           1362         140.00       578.04
 1033.77        2960.75           1366         190.00       796.01
 1033.80        2961.00           1369         247.00      1044.50
 1033.84        2961.25           1372         290.00      1231.96
 1033.87        2961.50           1376         398.00      1702.79
 1033.90        2961.75           1379         564.00      2426.51
 1033.93        2962.00           1382        1093.00      4733.02
 1033.96        2962.25           1386        2650.00     11523.60
 1033.99        2962.50           1389        4228.00     18408.60
 1034.02        2962.75           1392        5827.00     25388.12
 1034.05        2963.00           1396        7909.00     34480.29
 1034.08        2963.25           1399        9387.00     40937.78
 1034.11        2963.50           1402       11181.00     48779.27
 1034.14        2963.75           1406       13395.00     58461.64
 1034.18        2964.00           1409       15170.00     66228.23
 1034.21        2964.25           1412       17041.00     74418.80
 1034.24        2964.50           1416       19317.00     84387.74
 1034.27        2964.75           1419       20678.00     90351.81
 1034.30        2965.00           1422       22367.00     97756.19
 1034.33        2965.25           1426       24826.00    108542.10
 1034.36        2965.50           1429       26514.00    115950.20
 1034.39        2965.75           1432       28099.00    122909.20
 1034.42        2966.00           1436       30117.00    131773.60
 1034.46        2966.25           1439       31663.00    138567.90
 1034.49        2966.50           1442       33338.00    145932.20
 1034.52        2966.75           1446       35045.00    153440.60
 1034.55        2967.00           1449       35369.00    154866.10
 1034.58        2967.25           1452       35536.00    155600.90
 1034.61        2967.50           1456       35614.00    155944.10
 1034.64        2967.75           1459       35498.00    155433.70
 1034.67        2968.00           1462       35415.00    155068.50
 1034.70        2968.25           1466       34444.00    150796.60
 1034.73        2968.50           1469       33277.00    145663.90
 1034.76        2968.75           1472       32027.00    140168.00
 1034.80        2969.00           1476       29873.00    130701.60
 1034.83        2969.25           1479       28319.00    123875.40
 1034.86        2969.50           1482       26421.00    115541.90
 1034.89        2969.75           1486       24244.00    105988.60
 1034.92        2970.00           1489       22677.00     99115.55
 1034.95        2970.25           1492       21059.00     92021.78
 1034.98        2970.50           1496       18890.00     82517.02
 1035.01        2970.75           1499       17353.00     75785.02
 1035.04        2971.00           1502       15663.00     68386.02
 1035.07        2971.25           1506       13451.00     58706.62
 1035.11        2971.50           1509       11858.00     51739.36
 1035.14        2971.75           1513        9744.00     42497.92
 1035.17        2972.00           1516        8224.00     35856.33
 1035.20        2972.25           1519        6680.00     29112.60
 1035.23        2972.50           1523        4511.00     19643.66
 1035.26        2972.75           1526        2894.00     12588.01
 1035.29        2973.00           1529        1472.00      6385.70
 1035.32        2973.25           1533         523.00      2247.75
 1035.35        2973.50           1536         347.00      1480.45
 1035.38        2973.75           1539         296.00      1258.11
 1035.42        2974.00           1543         237.00      1000.90
 1035.45        2974.25           1546         178.00       743.70
 1035.48        2974.50           1549         149.00       617.27
 1035.51        2974.75           1553          99.00       399.31
 1035.54        2975.00           1556          71.00       277.25
 1035.57        2975.25           1559          50.00       185.70
 1035.60        2975.50           1563          54.00       203.14
 1035.63        2975.75           1566          42.00       150.83
 1035.66        2976.00           1569          45.00       163.91
 1035.69        2976.25           1573          42.00       150.83
 1035.73        2976.50           1576          46.00       168.27
 1035.76        2976.75           1579          42.00       150.83
 1035.79        2977.00           1583          43.00       155.19
 1035.82        2977.25           1586          50.00       185.70
 1035.85        2977.50           1590          45.00       163.91
 1035.88        2977.75           1593          46.00       168.27
 1035.91        2978.00           1596          41.00       146.47
 1035.94        2978.25           1600          42.00       150.83
 1035.97        2978.50           1603          44.00       159.55
 1036.00        2978.75           1606          44.00       159.55
 1036.04        2979.00           1610          45.00       163.91
 1036.07        2979.25           1613          48.00       176.98
 1036.10        2979.50           1616          42.00       150.83
 1036.13        2979.75           1620          49.00       181.34
 1036.16        2980.00           1623          47.00       172.63
 1036.19        2980.25           1626          42.00       150.83
 1036.22        2980.50           1630          44.00       159.55
 1036.25        2980.75           1633          48.00       176.98
 1036.28        2981.00           1637          56.00       211.86
 1036.31        2981.25           1640          38.00       133.39
 1036.34        2981.50           1643          46.00       168.27
 1036.37        2981.75           1647          50.00       185.70
 1036.41        2982.00           1650          49.00       181.34
 1036.44        2982.25           1653          49.00       181.34
 1036.47        2982.50           1657          43.00       155.19
 1036.50        2982.75           1660          37.00       129.03
 1036.53        2983.00           1663          39.00       137.75
 1036.56        2983.25           1667          41.00       146.47
 1036.59        2983.50           1670          42.00       150.83
 1036.62        2983.75           1673          33.00       111.60
 1036.65        2984.00           1677          52.00       194.42
HS scan finished at 17:16:52
end
