************************************************************
  HS Scan of (1) Internal mercury lamp
************************************************************
Integration time is 0.2294 seconds per sample
dh180117Manchester 53.47 2.23 2.804185pr1000
************************************************************
Dead Time -------------------------  3E-08 
Number of Cycles Used -------------  4 
Starting Wavelength (Angstroms) ---  2950 
Final Wavelength (Angstoms) -------  2984 
Wavelength Increment (Angstroms) --  .25 
Filter Wheel #1 Position ---------- (1) Ground quartz diffuser (ND=2.32)
Filter Wheel #2 Position ---------- (1) Neutral Density 0.494



************************************************************
HS scan start time = 05:20:22
Dark Count =  6.1 


Time (GMT)  Wavelength (Ang)  Step Number  Raw Counts  Counts/Second

  320.73        2950.00           1222          42.00       156.50
  320.80        2950.25           1226          42.00       156.50
  320.83        2950.50           1229          44.00       165.21
  320.86        2950.75           1232          47.00       178.29
  320.89        2951.00           1236          45.00       169.57
  320.92        2951.25           1239          49.00       187.01
  320.95        2951.50           1242          41.00       152.14
  320.98        2951.75           1246          46.00       173.93
  321.01        2952.00           1249          60.00       234.96
  321.04        2952.25           1252          49.00       187.01
  321.07        2952.50           1256          42.00       156.50
  321.11        2952.75           1259          44.00       165.21
  321.14        2953.00           1262          46.00       173.93
  321.17        2953.25           1266          44.00       165.21
  321.20        2953.50           1269          44.00       165.21
  321.23        2953.75           1272          42.00       156.50
  321.26        2954.00           1276          44.00       165.21
  321.29        2954.25           1279          46.00       173.93
  321.32        2954.50           1282          43.00       160.86
  321.35        2954.75           1286          48.00       182.65
  321.38        2955.00           1289          41.00       152.14
  321.41        2955.25           1292          47.00       178.29
  321.45        2955.50           1296          43.00       160.86
  321.48        2955.75           1299          50.00       191.37
  321.51        2956.00           1302          42.00       156.50
  321.54        2956.25           1306          50.00       191.37
  321.57        2956.50           1309          44.00       165.21
  321.60        2956.75           1312          46.00       173.93
  321.63        2957.00           1316          53.00       204.45
  321.66        2957.25           1319          44.00       165.21
  321.69        2957.50           1322          48.00       182.65
  321.72        2957.75           1326          36.00       130.34
  321.75        2958.00           1329          42.00       156.50
  321.78        2958.25           1332          40.00       147.78
  321.81        2958.50           1336          35.00       125.98
  321.85        2958.75           1339          45.00       169.57
  321.88        2959.00           1342          41.00       152.14
  321.91        2959.25           1346          50.00       191.37
  321.94        2959.50           1349          53.00       204.45
  321.97        2959.75           1352          60.00       234.96
  322.00        2960.00           1356          75.00       300.35
  322.03        2960.25           1359          97.00       396.26
  322.06        2960.50           1362         133.00       553.19
  322.09        2960.75           1366         184.00       775.52
  322.12        2961.00           1369         236.00      1002.21
  322.15        2961.25           1372         275.00      1172.23
  322.18        2961.50           1376         361.00      1547.15
  322.21        2961.75           1379         581.00      2506.29
  322.24        2962.00           1382        1165.00      5052.64
  322.28        2962.25           1386        2837.00     12345.02
  322.31        2962.50           1389        4442.00     19348.20
  322.34        2962.75           1392        6034.00     26297.55
  322.37        2963.00           1396        8257.00     36006.18
  322.40        2963.25           1399        9822.00     42844.49
  322.43        2963.50           1402       11395.00     49720.58
  322.46        2963.75           1406       13761.00     60068.49
  322.49        2964.00           1409       15511.00     67726.40
  322.52        2964.25           1412       17297.00     75545.48
  322.55        2964.50           1416       19541.00     85374.89
  322.59        2964.75           1419       21272.00     92961.16
  322.62        2965.00           1422       23044.00    100730.70
  322.65        2965.25           1426       25102.00    109758.80
  322.68        2965.50           1429       27046.00    118291.30
  322.71        2965.75           1432       28507.00    124706.80
  322.74        2966.00           1436       30595.00    133879.70
  322.77        2966.25           1439       32161.00    140762.80
  322.80        2966.50           1442       34015.00    148915.30
  322.83        2966.75           1446       35524.00    155553.80
  322.86        2967.00           1449       35843.00    156957.50
  322.89        2967.25           1452       35956.00    157454.70
  322.93        2967.50           1456       35866.00    157058.70
  322.96        2967.75           1459       35996.00    157630.80
  322.99        2968.00           1462       35633.00    156033.40
  323.02        2968.25           1466       34655.00    151730.50
  323.05        2968.50           1469       33387.00    146153.40
  323.08        2968.75           1472       31923.00    139716.50
  323.11        2969.00           1476       29876.00    130720.40
  323.14        2969.25           1479       28193.00    123327.70
  323.17        2969.50           1482       26407.00    115486.20
  323.21        2969.75           1486       24265.00    106086.50
  323.24        2970.00           1489       22522.00     98441.56
  323.27        2970.25           1492       21040.00     91944.19
  323.30        2970.50           1496       18878.00     82470.15
  323.33        2970.75           1499       17309.00     75598.02
  323.36        2971.00           1502       15533.00     67822.70
  323.39        2971.25           1506       13393.00     58458.58
  323.42        2971.50           1509       11799.00     51487.06
  323.45        2971.75           1513        9648.00     42084.05
  323.48        2972.00           1516        8151.00     35543.11
  323.52        2972.25           1519        6442.00     28079.01
  323.55        2972.50           1523        4288.00     18676.11
  323.58        2972.75           1526        2663.00     11585.98
  323.61        2973.00           1529        1346.00      5841.91
  323.64        2973.25           1533         556.00      2397.30
  323.67        2973.50           1536         345.00      1477.40
  323.70        2973.75           1539         307.00      1311.73
  323.73        2974.00           1543         247.00      1050.16
  323.76        2974.25           1546         186.00       784.24
  323.79        2974.50           1549         132.00       548.83
  323.82        2974.75           1553         102.00       418.05
  323.85        2975.00           1556          76.00       304.71
  323.89        2975.25           1559          58.00       226.24
  323.92        2975.50           1563          51.00       195.73
  323.95        2975.75           1566          48.00       182.65
  323.98        2976.00           1569          47.00       178.29
  324.01        2976.25           1573          48.00       182.65
  324.04        2976.50           1576          58.00       226.24
  324.07        2976.75           1579          43.00       160.86
  324.10        2977.00           1583          46.00       173.93
  324.13        2977.25           1586          42.00       156.50
  324.16        2977.50           1590          50.00       191.37
  324.19        2977.75           1593          48.00       182.65
  324.23        2978.00           1596          43.00       160.86
  324.26        2978.25           1600          42.00       156.50
  324.29        2978.50           1603          47.00       178.29
  324.32        2978.75           1606          45.00       169.57
  324.35        2979.00           1610          48.00       182.65
  324.38        2979.25           1613          42.00       156.50
  324.41        2979.50           1616          39.00       143.42
  324.44        2979.75           1620          43.00       160.86
  324.47        2980.00           1623          44.00       165.21
  324.50        2980.25           1626          43.00       160.86
  324.54        2980.50           1630          50.00       191.37
  324.57        2980.75           1633          50.00       191.37
  324.60        2981.00           1637          44.00       165.21
  324.63        2981.25           1640          45.00       169.57
  324.66        2981.50           1643          46.00       173.93
  324.69        2981.75           1647          39.00       143.42
  324.72        2982.00           1650          44.00       165.21
  324.75        2982.25           1653          38.00       139.06
  324.78        2982.50           1657          40.00       147.78
  324.81        2982.75           1660          45.00       169.57
  324.84        2983.00           1663          41.00       152.14
  324.87        2983.25           1667          41.00       152.14
  324.91        2983.50           1670          46.00       173.93
  324.94        2983.75           1673          48.00       182.65
  324.97        2984.00           1677          41.00       152.14
HS scan finished at 05:25:11
end
************************************************************
  HS Scan of (1) Internal mercury lamp
************************************************************
Integration time is 0.2294 seconds per sample
dh180117Manchester 53.47 2.23 2.804185pr1000
************************************************************
Dead Time -------------------------  3E-08 
Number of Cycles Used -------------  4 
Starting Wavelength (Angstroms) ---  2950 
Final Wavelength (Angstoms) -------  2984 
Wavelength Increment (Angstroms) --  .25 
Filter Wheel #1 Position ---------- (1) Ground quartz diffuser (ND=2.32)
Filter Wheel #2 Position ---------- (1) Neutral Density 0.494



************************************************************
HS scan start time = 17:12:03
Dark Count =  8.399999 


Time (GMT)  Wavelength (Ang)  Step Number  Raw Counts  Counts/Second

 1032.42        2950.00           1222          47.00       168.27
 1032.48        2950.25           1226          50.00       181.34
 1032.51        2950.50           1229          53.00       194.42
 1032.55        2950.75           1232          45.00       159.55
 1032.58        2951.00           1236          42.00       146.47
 1032.61        2951.25           1239          51.00       185.70
 1032.64        2951.50           1242          43.00       150.83
 1032.67        2951.75           1246          49.00       176.98
 1032.70        2952.00           1249          50.00       181.34
 1032.73        2952.25           1252          46.00       163.91
 1032.76        2952.50           1256          41.00       142.11
 1032.79        2952.75           1259          44.00       155.19
 1032.82        2953.00           1262          44.00       155.19
 1032.85        2953.25           1266          40.00       137.75
 1032.88        2953.50           1269          47.00       168.27
 1032.91        2953.75           1272          44.00       155.19
 1032.95        2954.00           1276          41.00       142.11
 1032.98        2954.25           1279          44.00       155.19
 1033.01        2954.50           1282          40.00       137.75
 1033.04        2954.75           1286          47.00       168.27
 1033.07        2955.00           1289          47.00       168.27
 1033.10        2955.25           1292          48.00       172.63
 1033.13        2955.50           1296          48.00       172.63
 1033.16        2955.75           1299          34.00       111.60
 1033.19        2956.00           1302          44.00       155.19
 1033.22        2956.25           1306          40.00       137.75
 1033.25        2956.50           1309          40.00       137.75
 1033.28        2956.75           1312          41.00       142.11
 1033.32        2957.00           1316          41.00       142.11
 1033.35        2957.25           1319          52.00       190.06
 1033.38        2957.50           1322          40.00       137.75
 1033.41        2957.75           1326          46.00       163.91
 1033.44        2958.00           1329          44.00       155.19
 1033.47        2958.25           1332          53.00       194.42
 1033.50        2958.50           1336          41.00       142.11
 1033.53        2958.75           1339          47.00       168.27
 1033.56        2959.00           1342          47.00       168.27
 1033.59        2959.25           1346          44.00       155.19
 1033.62        2959.50           1349          61.00       229.30
 1033.65        2959.75           1352          88.00       347.00
 1033.68        2960.00           1356         102.00       408.03
 1033.72        2960.25           1359         142.00       582.40
 1033.75        2960.50           1362         181.00       752.41
 1033.78        2960.75           1366         237.00       996.54
 1033.81        2961.00           1369         278.00      1175.28
 1033.84        2961.25           1372         322.00      1367.10
 1033.87        2961.50           1376         434.00      1855.38
 1033.90        2961.75           1379         631.00      2714.26
 1033.93        2962.00           1382        1190.00      5151.62
 1033.96        2962.25           1386        2822.00     12269.56
 1033.99        2962.50           1389        4505.00     19613.11
 1034.02        2962.75           1392        6126.00     26689.19
 1034.05        2963.00           1396        8286.00     36122.82
 1034.09        2963.25           1399        9783.00     42663.99
 1034.12        2963.50           1402       11413.00     49789.22
 1034.15        2963.75           1406       13725.00     59900.92
 1034.18        2964.00           1409       15258.00     66609.00
 1034.21        2964.25           1412       16950.00     74015.96
 1034.24        2964.50           1416       19292.00     84273.82
 1034.27        2964.75           1419       20888.00     91267.87
 1034.30        2965.00           1422       22466.00     98185.91
 1034.33        2965.25           1426       24504.00    107124.90
 1034.36        2965.50           1429       26249.00    114782.60
 1034.39        2965.75           1432       27999.00    122465.70
 1034.42        2966.00           1436       30343.00    132762.30
 1034.46        2966.25           1439       31745.00    138923.90
 1034.49        2966.50           1442       33264.00    145602.40
 1034.52        2966.75           1446       34653.00    151711.60
 1034.55        2967.00           1449       35182.00    154038.90
 1034.58        2967.25           1452       35341.00    154738.50
 1034.61        2967.50           1456       35379.00    154905.70
 1034.64        2967.75           1459       35319.00    154641.70
 1034.67        2968.00           1462       34981.00    153154.60
 1034.70        2968.25           1466       34410.00    150642.60
 1034.73        2968.50           1469       32909.00    144041.30
 1034.76        2968.75           1472       31456.00    137653.60
 1034.80        2969.00           1476       29425.00    128729.00
 1034.83        2969.25           1479       27815.00    121657.70
 1034.86        2969.50           1482       25900.00    113250.70
 1034.89        2969.75           1486       23787.00    103979.50
 1034.92        2970.00           1489       22196.00     97002.02
 1034.95        2970.25           1492       20664.00     90286.07
 1034.98        2970.50           1496       18494.00     80777.91
 1035.01        2970.75           1499       16974.00     74121.04
 1035.04        2971.00           1502       15382.00     67151.71
 1035.08        2971.25           1506       13355.00     58282.29
 1035.11        2971.50           1509       11673.00     50926.05
 1035.14        2971.75           1513        9360.00     40815.42
 1035.17        2972.00           1516        7772.00     33877.49
 1035.20        2972.25           1519        6127.00     26693.56
 1035.23        2972.50           1523        4049.00     17623.09
 1035.26        2972.75           1526        2632.00     11440.72
 1035.29        2973.00           1529        1367.00      5923.46
 1035.33        2973.25           1533         496.00      2125.68
 1035.36        2973.50           1536         327.00      1388.90
 1035.39        2973.75           1539         266.00      1122.97
 1035.42        2974.00           1543         236.00       992.18
 1035.45        2974.25           1546         166.00       687.02
 1035.48        2974.50           1549         132.00       538.81
 1035.51        2974.75           1553          77.00       299.04
 1035.54        2975.00           1556          63.00       238.01
 1035.57        2975.25           1559          56.00       207.50
 1035.61        2975.50           1563          48.00       172.63
 1035.64        2975.75           1566          46.00       163.91
 1035.67        2976.00           1569          48.00       172.63
 1035.70        2976.25           1573          49.00       176.98
 1035.73        2976.50           1576          46.00       163.91
 1035.76        2976.75           1579          48.00       172.63
 1035.79        2977.00           1583          42.00       146.47
 1035.82        2977.25           1586          42.00       146.47
 1035.85        2977.50           1590          43.00       150.83
 1035.88        2977.75           1593          43.00       150.83
 1035.91        2978.00           1596          44.00       155.19
 1035.94        2978.25           1600          44.00       155.19
 1035.97        2978.50           1603          44.00       155.19
 1036.00        2978.75           1606          45.00       159.55
 1036.04        2979.00           1610          38.00       129.03
 1036.07        2979.25           1613          47.00       168.27
 1036.10        2979.50           1616          43.00       150.83
 1036.13        2979.75           1620          43.00       150.83
 1036.17        2980.00           1623          43.00       150.83
 1036.20        2980.25           1626          44.00       155.19
 1036.23        2980.50           1630          39.00       133.39
 1036.26        2980.75           1633          46.00       163.91
 1036.29        2981.00           1637          51.00       185.70
 1036.33        2981.25           1640          50.00       181.34
 1036.36        2981.50           1643          41.00       142.11
 1036.39        2981.75           1647          43.00       150.83
 1036.42        2982.00           1650          46.00       163.91
 1036.45        2982.25           1653          50.00       181.34
 1036.48        2982.50           1657          40.00       137.75
 1036.51        2982.75           1660          45.00       159.55
 1036.54        2983.00           1663          39.00       133.39
 1036.57        2983.25           1667          44.00       155.19
 1036.60        2983.50           1670          35.00       115.96
 1036.63        2983.75           1673          45.00       159.55
 1036.67        2984.00           1677          41.00       142.11
HS scan finished at 17:16:53
end
