************************************************************
  HS Scan of (1) Internal mercury lamp
************************************************************
Integration time is 0.2294 seconds per sample
dh170117Manchester 53.47 2.23 2.804185pr1000
************************************************************
Dead Time -------------------------  3E-08 
Number of Cycles Used -------------  4 
Starting Wavelength (Angstroms) ---  2950 
Final Wavelength (Angstoms) -------  2984 
Wavelength Increment (Angstroms) --  .25 
Filter Wheel #1 Position ---------- (1) Ground quartz diffuser (ND=2.32)
Filter Wheel #2 Position ---------- (1) Neutral Density 0.494



************************************************************
HS scan start time = 05:21:06
Dark Count =  6.4 


Time (GMT)  Wavelength (Ang)  Step Number  Raw Counts  Counts/Second

  321.47        2950.00           1222          45.00       168.27
  321.53        2950.25           1226          46.00       172.63
  321.56        2950.50           1229          51.00       194.42
  321.60        2950.75           1232          46.00       172.63
  321.63        2951.00           1236          46.00       172.63
  321.66        2951.25           1239          41.00       150.83
  321.69        2951.50           1242          49.00       185.70
  321.72        2951.75           1246          44.00       163.91
  321.75        2952.00           1249          43.00       159.55
  321.78        2952.25           1252          46.00       172.63
  321.81        2952.50           1256          45.00       168.27
  321.84        2952.75           1259          46.00       172.63
  321.87        2953.00           1262          42.00       155.19
  321.91        2953.25           1266          49.00       185.70
  321.94        2953.50           1269          44.00       163.91
  321.97        2953.75           1272          42.00       155.19
  322.00        2954.00           1276          44.00       163.91
  322.03        2954.25           1279          45.00       168.27
  322.06        2954.50           1282          60.00       233.65
  322.09        2954.75           1286          48.00       181.34
  322.12        2955.00           1289          45.00       168.27
  322.15        2955.25           1292          44.00       163.91
  322.18        2955.50           1296          45.00       168.27
  322.21        2955.75           1299          44.00       163.91
  322.25        2956.00           1302          44.00       163.91
  322.28        2956.25           1306          46.00       172.63
  322.31        2956.50           1309          48.00       181.34
  322.34        2956.75           1312          41.00       150.83
  322.37        2957.00           1316          49.00       185.70
  322.40        2957.25           1319          46.00       172.63
  322.43        2957.50           1322          41.00       150.83
  322.46        2957.75           1326          44.00       163.91
  322.49        2958.00           1329          43.00       159.55
  322.52        2958.25           1332          51.00       194.42
  322.55        2958.50           1336          45.00       168.27
  322.59        2958.75           1339          43.00       159.55
  322.62        2959.00           1342          46.00       172.63
  322.65        2959.25           1346          53.00       203.14
  322.68        2959.50           1349          53.00       203.14
  322.71        2959.75           1352          66.00       259.81
  322.74        2960.00           1356          91.00       368.79
  322.77        2960.25           1359         138.00       573.68
  322.80        2960.50           1362         183.00       769.85
  322.83        2960.75           1366         226.00       957.31
  322.86        2961.00           1369         275.00      1170.92
  322.89        2961.25           1372         313.00      1336.58
  322.92        2961.50           1376         379.00      1624.32
  322.96        2961.75           1379         514.00      2212.88
  322.99        2962.00           1382         931.00      4031.00
  323.02        2962.25           1386        2465.00     10720.97
  323.05        2962.50           1389        4046.00     17618.73
  323.08        2962.75           1392        5645.00     24597.92
  323.11        2963.00           1396        7890.00     34401.66
  323.14        2963.25           1399        9482.00     41357.29
  323.17        2963.50           1402       11047.00     48197.80
  323.20        2963.75           1406       13361.00     58317.28
  323.23        2964.00           1409       15182.00     66285.13
  323.27        2964.25           1412       16851.00     73591.24
  323.30        2964.50           1416       19032.00     83143.49
  323.33        2964.75           1419       20729.00     90579.72
  323.36        2965.00           1422       22337.00     97629.03
  323.39        2965.25           1426       24507.00    107146.80
  323.42        2965.50           1429       26286.00    114953.70
  323.45        2965.75           1432       27772.00    121477.70
  323.48        2966.00           1436       29812.00    130437.90
  323.51        2966.25           1439       31601.00    138299.70
  323.54        2966.50           1442       33191.00    145290.10
  323.58        2966.75           1446       34954.00    153044.60
  323.61        2967.00           1449       35686.00    156265.30
  323.64        2967.25           1452       35798.00    156758.10
  323.67        2967.50           1456       35911.00    157255.40
  323.70        2967.75           1459       35758.00    156582.10
  323.73        2968.00           1462       35641.00    156067.30
  323.76        2968.25           1466       34990.00    153203.00
  323.79        2968.50           1469       33703.00    147541.80
  323.82        2968.75           1472       32142.00    140677.90
  323.85        2969.00           1476       30054.00    131501.20
  323.88        2969.25           1479       28354.00    124033.50
  323.91        2969.50           1482       26779.00    117117.90
  323.95        2969.75           1486       24555.00    107357.40
  323.98        2970.00           1489       22730.00     99352.36
  324.01        2970.25           1492       21226.00     92758.21
  324.04        2970.50           1496       19140.00     83616.63
  324.07        2970.75           1499       17687.00     77252.06
  324.10        2971.00           1502       15831.00     69125.77
  324.13        2971.25           1506       13719.00     59883.42
  324.16        2971.50           1509       12016.00     52434.64
  324.19        2971.75           1513        9816.00     42816.95
  324.23        2972.00           1516        8209.00     35795.18
  324.26        2972.25           1519        6508.00     28365.89
  324.29        2972.50           1523        4450.00     19381.80
  324.32        2972.75           1526        2805.00     12204.12
  324.35        2973.00           1529        1308.00      5674.90
  324.38        2973.25           1533         493.00      2121.32
  324.41        2973.50           1536         338.00      1445.57
  324.44        2973.75           1539         279.00      1188.36
  324.47        2974.00           1543         231.00       979.10
  324.51        2974.25           1546         152.00       634.71
  324.54        2974.50           1549         119.00       490.85
  324.57        2974.75           1553          84.00       338.28
  324.60        2975.00           1556          59.00       229.30
  324.63        2975.25           1559          49.00       185.70
  324.66        2975.50           1563          44.00       163.91
  324.69        2975.75           1566          51.00       194.42
  324.72        2976.00           1569          60.00       233.65
  324.75        2976.25           1573          47.00       176.98
  324.78        2976.50           1576          48.00       181.34
  324.82        2976.75           1579          43.00       159.55
  324.85        2977.00           1583          41.00       150.83
  324.88        2977.25           1586          41.00       150.83
  324.91        2977.50           1590          45.00       168.27
  324.94        2977.75           1593          52.00       198.78
  324.97        2978.00           1596          48.00       181.34
  325.00        2978.25           1600          47.00       176.98
  325.03        2978.50           1603          45.00       168.27
  325.06        2978.75           1606          48.00       181.34
  325.10        2979.00           1610          48.00       181.34
  325.13        2979.25           1613          45.00       168.27
  325.16        2979.50           1616          45.00       168.27
  325.19        2979.75           1620          44.00       163.91
  325.22        2980.00           1623          49.00       185.70
  325.25        2980.25           1626          53.00       203.14
  325.28        2980.50           1630          54.00       207.50
  325.31        2980.75           1633          52.00       198.78
  325.34        2981.00           1637          47.00       176.98
  325.37        2981.25           1640          38.00       137.75
  325.40        2981.50           1643          43.00       159.55
  325.43        2981.75           1647          45.00       168.27
  325.46        2982.00           1650          43.00       159.55
  325.50        2982.25           1653          40.00       146.47
  325.53        2982.50           1657          47.00       176.98
  325.56        2982.75           1660          46.00       172.63
  325.59        2983.00           1663          42.00       155.19
  325.62        2983.25           1667          46.00       172.63
  325.65        2983.50           1670          45.00       168.27
  325.68        2983.75           1673          34.00       120.31
  325.71        2984.00           1677          38.00       137.75
HS scan finished at 05:25:56
end
************************************************************
  HS Scan of (1) Internal mercury lamp
************************************************************
Integration time is 0.2294 seconds per sample
dh170117Manchester 53.47 2.23 2.804185pr1000
************************************************************
Dead Time -------------------------  3E-08 
Number of Cycles Used -------------  4 
Starting Wavelength (Angstroms) ---  2950 
Final Wavelength (Angstoms) -------  2984 
Wavelength Increment (Angstroms) --  .25 
Filter Wheel #1 Position ---------- (1) Ground quartz diffuser (ND=2.32)
Filter Wheel #2 Position ---------- (1) Neutral Density 0.494



************************************************************
HS scan start time = 17:12:01
Dark Count =  4.3 


Time (GMT)  Wavelength (Ang)  Step Number  Raw Counts  Counts/Second

 1032.38        2950.00           1222          43.00       168.70
 1032.44        2950.25           1226          44.00       173.06
 1032.48        2950.50           1229          40.00       155.62
 1032.51        2950.75           1232          47.00       186.14
 1032.54        2951.00           1236          48.00       190.50
 1032.57        2951.25           1239          43.00       168.70
 1032.60        2951.50           1242          42.00       164.34
 1032.63        2951.75           1246          36.00       138.19
 1032.66        2952.00           1249          46.00       181.78
 1032.69        2952.25           1252          54.00       216.65
 1032.72        2952.50           1256          41.00       159.98
 1032.75        2952.75           1259          50.00       199.22
 1032.78        2953.00           1262          49.00       194.86
 1032.81        2953.25           1266          41.00       159.98
 1032.85        2953.50           1269          46.00       181.78
 1032.88        2953.75           1272          49.00       194.86
 1032.91        2954.00           1276          45.00       177.42
 1032.94        2954.25           1279          49.00       194.86
 1032.97        2954.50           1282          42.00       164.34
 1033.00        2954.75           1286          47.00       186.14
 1033.03        2955.00           1289          45.00       177.42
 1033.06        2955.25           1292          48.00       190.50
 1033.09        2955.50           1296          42.00       164.34
 1033.12        2955.75           1299          42.00       164.34
 1033.15        2956.00           1302          46.00       181.78
 1033.18        2956.25           1306          41.00       159.98
 1033.21        2956.50           1309          52.00       207.94
 1033.24        2956.75           1312          50.00       199.22
 1033.28        2957.00           1316          38.00       146.91
 1033.31        2957.25           1319          46.00       181.78
 1033.34        2957.50           1322          49.00       194.86
 1033.37        2957.75           1326          43.00       168.70
 1033.40        2958.00           1329          50.00       199.22
 1033.43        2958.25           1332          50.00       199.22
 1033.46        2958.50           1336          44.00       173.06
 1033.49        2958.75           1339          44.00       173.06
 1033.52        2959.00           1342          45.00       177.42
 1033.55        2959.25           1346          42.00       164.34
 1033.58        2959.50           1349          50.00       199.22
 1033.61        2959.75           1352          64.00       260.25
 1033.65        2960.00           1356          99.00       412.82
 1033.68        2960.25           1359         123.00       517.44
 1033.71        2960.50           1362         158.00       670.02
 1033.74        2960.75           1366         220.00       940.31
 1033.77        2961.00           1369         276.00      1184.44
 1033.80        2961.25           1372         306.00      1315.22
 1033.83        2961.50           1376         378.00      1629.11
 1033.86        2961.75           1379         631.00      2732.13
 1033.89        2962.00           1382        1305.00      5670.97
 1033.92        2962.25           1386        3199.00     13932.15
 1033.95        2962.50           1389        4714.00     20543.17
 1033.98        2962.75           1392        6291.00     27427.53
 1034.02        2963.00           1396        8350.00     36420.33
 1034.05        2963.25           1399       10032.00     43770.17
 1034.08        2963.50           1402       11733.00     51206.33
 1034.11        2963.75           1406       14000.00     61122.00
 1034.14        2964.00           1409       15435.00     67401.63
 1034.17        2964.25           1412       17361.00     75833.62
 1034.20        2964.50           1416       19445.00     84962.14
 1034.23        2964.75           1419       21122.00     92311.52
 1034.26        2965.00           1422       22857.00     99918.50
 1034.29        2965.25           1426       24962.00    109152.40
 1034.32        2965.50           1429       26646.00    116543.20
 1034.36        2965.75           1432       28545.00    124881.60
 1034.39        2966.00           1436       30561.00    133738.20
 1034.42        2966.25           1439       32014.00    140124.40
 1034.45        2966.50           1442       33504.00    146675.80
 1034.48        2966.75           1446       34808.00    152411.50
 1034.51        2967.00           1449       35166.00    153986.50
 1034.54        2967.25           1452       35314.00    154637.70
 1034.57        2967.50           1456       35263.00    154413.30
 1034.60        2967.75           1459       35278.00    154479.30
 1034.64        2968.00           1462       35040.00    153432.20
 1034.67        2968.25           1466       33685.00    147471.90
 1034.70        2968.50           1469       32339.00    141553.20
 1034.73        2968.75           1472       30812.00    134841.20
 1034.76        2969.00           1476       28636.00    125281.20
 1034.79        2969.25           1479       27140.00    118711.90
 1034.82        2969.50           1482       25317.00    110710.20
 1034.85        2969.75           1486       23269.00    101725.40
 1034.88        2970.00           1489       21648.00     94617.36
 1034.92        2970.25           1492       20084.00     87762.14
 1034.95        2970.50           1496       18033.00     78776.63
 1034.98        2970.75           1499       16478.00     71967.33
 1035.01        2971.00           1502       14821.00     64714.45
 1035.04        2971.25           1506       12409.00     54162.48
 1035.07        2971.50           1509       10741.00     46869.26
 1035.10        2971.75           1513        8454.00     36874.69
 1035.13        2972.00           1516        6973.00     30405.67
 1035.16        2972.25           1519        5421.00     23629.22
 1035.20        2972.50           1523        3349.00     14586.59
 1035.23        2972.75           1526        2037.00      8863.30
 1035.26        2973.00           1529        1004.00      4358.46
 1035.29        2973.25           1533         443.00      1912.49
 1035.32        2973.50           1536         320.00      1376.26
 1035.35        2973.75           1539         272.00      1167.00
 1035.38        2974.00           1543         233.00       996.98
 1035.41        2974.25           1546         180.00       765.93
 1035.44        2974.50           1549         131.00       552.32
 1035.47        2974.75           1553          78.00       321.28
 1035.50        2975.00           1556          62.00       251.53
 1035.54        2975.25           1559          48.00       190.50
 1035.57        2975.50           1563          49.00       194.86
 1035.60        2975.75           1566          44.00       173.06
 1035.63        2976.00           1569          47.00       186.14
 1035.66        2976.25           1573          48.00       190.50
 1035.69        2976.50           1576          41.00       159.98
 1035.72        2976.75           1579          51.00       203.58
 1035.75        2977.00           1583          42.00       164.34
 1035.78        2977.25           1586          42.00       164.34
 1035.81        2977.50           1590          39.00       151.26
 1035.84        2977.75           1593          42.00       164.34
 1035.88        2978.00           1596          34.00       129.47
 1035.91        2978.25           1600          49.00       194.86
 1035.94        2978.50           1603          42.00       164.34
 1035.97        2978.75           1606          39.00       151.26
 1036.00        2979.00           1610          40.00       155.62
 1036.03        2979.25           1613          45.00       177.42
 1036.06        2979.50           1616          44.00       173.06
 1036.09        2979.75           1620          47.00       186.14
 1036.12        2980.00           1623          45.00       177.42
 1036.15        2980.25           1626          41.00       159.98
 1036.19        2980.50           1630          47.00       186.14
 1036.22        2980.75           1633          43.00       168.70
 1036.25        2981.00           1637          48.00       190.50
 1036.28        2981.25           1640          43.00       168.70
 1036.31        2981.50           1643          49.00       194.86
 1036.34        2981.75           1647          37.00       142.55
 1036.37        2982.00           1650          41.00       159.98
 1036.40        2982.25           1653          44.00       173.06
 1036.43        2982.50           1657          42.00       164.34
 1036.46        2982.75           1660          43.00       168.70
 1036.49        2983.00           1663          44.00       173.06
 1036.52        2983.25           1667          38.00       146.91
 1036.56        2983.50           1670          48.00       190.50
 1036.59        2983.75           1673          43.00       168.70
 1036.62        2984.00           1677          41.00       159.98
HS scan finished at 17:16:50
end
