************************************************************
  HS Scan of (1) Internal mercury lamp
************************************************************
Integration time is 0.2294 seconds per sample
dh160119Manchester 53.47 2.23 2.804185pr1000
************************************************************
Dead Time -------------------------  3E-08 
Number of Cycles Used -------------  4 
Starting Wavelength (Angstroms) ---  2950 
Final Wavelength (Angstoms) -------  2984 
Wavelength Increment (Angstroms) --  .25 
Filter Wheel #1 Position ---------- (1) Ground quartz diffuser (ND=2.32)
Filter Wheel #2 Position ---------- (1) Neutral Density 0.494



************************************************************
HS scan start time = 05:22:04
Dark Count =  5.8 


Time (GMT)  Wavelength (Ang)  Step Number  Raw Counts  Counts/Second

  322.44        2950.00           1222          53.00       205.76
  322.51        2950.25           1226          51.00       197.04
  322.54        2950.50           1229          56.00       218.83
  322.57        2950.75           1232          66.00       262.43
  322.60        2951.00           1236          53.00       205.76
  322.63        2951.25           1239          51.00       197.04
  322.66        2951.50           1242          61.00       240.63
  322.70        2951.75           1246          59.00       231.91
  322.73        2952.00           1249          54.00       210.11
  322.76        2952.25           1252          52.00       201.40
  322.79        2952.50           1256          55.00       214.47
  322.82        2952.75           1259          58.00       227.55
  322.85        2953.00           1262          54.00       210.11
  322.88        2953.25           1266          50.00       192.68
  322.91        2953.50           1269          51.00       197.04
  322.94        2953.75           1272          55.00       214.47
  322.97        2954.00           1276          59.00       231.91
  323.00        2954.25           1279          53.00       205.76
  323.03        2954.50           1282          49.00       188.32
  323.06        2954.75           1286          53.00       205.76
  323.09        2955.00           1289          56.00       218.83
  323.12        2955.25           1292          67.00       266.79
  323.15        2955.50           1296          50.00       192.68
  323.19        2955.75           1299          59.00       231.91
  323.22        2956.00           1302          48.00       183.96
  323.25        2956.25           1306          53.00       205.76
  323.28        2956.50           1309          54.00       210.11
  323.31        2956.75           1312          50.00       192.68
  323.34        2957.00           1316          51.00       197.04
  323.37        2957.25           1319          57.00       223.19
  323.40        2957.50           1322          56.00       218.83
  323.43        2957.75           1326          54.00       210.11
  323.46        2958.00           1329          55.00       214.47
  323.49        2958.25           1332          70.00       279.86
  323.52        2958.50           1336          55.00       214.47
  323.55        2958.75           1339          51.00       197.04
  323.59        2959.00           1342          57.00       223.19
  323.62        2959.25           1346          52.00       201.40
  323.65        2959.50           1349          57.00       223.19
  323.68        2959.75           1352          64.00       253.71
  323.71        2960.00           1356          86.00       349.61
  323.74        2960.25           1359         100.00       410.64
  323.77        2960.50           1362         119.00       493.47
  323.80        2960.75           1366         166.00       698.36
  323.83        2961.00           1369         189.00       798.62
  323.86        2961.25           1372         218.00       925.05
  323.90        2961.50           1376         278.00      1186.62
  323.93        2961.75           1379         380.00      1631.29
  323.96        2962.00           1382         818.00      3540.92
  323.99        2962.25           1386        2032.00      8834.95
  324.02        2962.50           1389        3201.00     13934.33
  324.05        2962.75           1392        4296.00     18712.33
  324.08        2963.00           1396        5803.00     25290.33
  324.11        2963.25           1399        6895.00     30058.48
  324.14        2963.50           1402        8143.00     35509.48
  324.17        2963.75           1406        9812.00     42802.09
  324.20        2964.00           1409       11015.00     48060.53
  324.24        2964.25           1412       12269.00     53543.66
  324.27        2964.50           1416       13932.00     60817.92
  324.30        2964.75           1419       15144.00     66121.45
  324.33        2965.00           1422       16240.00     70918.81
  324.36        2965.25           1426       17865.00     78034.26
  324.39        2965.50           1429       18944.00     82760.58
  324.42        2965.75           1432       20028.00     87510.18
  324.45        2966.00           1436       21862.00     95548.99
  324.48        2966.25           1439       22961.00    100368.00
  324.52        2966.50           1442       23964.00    104767.30
  324.55        2966.75           1446       25094.00    109725.00
  324.58        2967.00           1449       25490.00    111462.80
  324.61        2967.25           1452       25492.00    111471.60
  324.64        2967.50           1456       25378.00    110971.30
  324.67        2967.75           1459       25507.00    111537.40
  324.70        2968.00           1462       25291.00    110589.50
  324.73        2968.25           1466       24575.00    107447.80
  324.76        2968.50           1469       23662.00    103442.60
  324.80        2968.75           1472       22657.00     99034.86
  324.83        2969.00           1476       21230.00     92778.36
  324.86        2969.25           1479       19877.00     86848.49
  324.89        2969.50           1482       18923.00     82668.59
  324.92        2969.75           1486       17233.00     75266.53
  324.95        2970.00           1489       15974.00     69754.37
  324.98        2970.25           1492       14988.00     65438.72
  325.01        2970.50           1496       13402.00     58499.27
  325.04        2970.75           1499       12197.00     53228.79
  325.07        2971.00           1502       11075.00     48322.84
  325.10        2971.25           1506        9426.00     41115.20
  325.13        2971.50           1509        8295.00     36173.50
  325.16        2971.75           1513        6891.00     30041.01
  325.20        2972.00           1516        5717.00     24914.87
  325.23        2972.25           1519        4593.00     20008.52
  325.26        2972.50           1523        3060.00     13319.18
  325.29        2972.75           1526        1997.00      8682.30
  325.32        2973.00           1529         901.00      3902.81
  325.35        2973.25           1533         376.00      1613.85
  325.38        2973.50           1536         281.00      1199.69
  325.41        2973.75           1539         252.00      1073.27
  325.44        2974.00           1543         207.00       877.09
  325.47        2974.25           1546         163.00       685.28
  325.50        2974.50           1549         129.00       537.06
  325.53        2974.75           1553          93.00       380.13
  325.57        2975.00           1556          66.00       262.43
  325.60        2975.25           1559          61.00       240.63
  325.63        2975.50           1563          57.00       223.19
  325.66        2975.75           1566          57.00       223.19
  325.69        2976.00           1569          55.00       214.47
  325.72        2976.25           1573          55.00       214.47
  325.75        2976.50           1576          48.00       183.96
  325.78        2976.75           1579          53.00       205.76
  325.81        2977.00           1583          47.00       179.60
  325.84        2977.25           1586          52.00       201.40
  325.87        2977.50           1590          51.00       197.04
  325.90        2977.75           1593          48.00       183.96
  325.94        2978.00           1596          55.00       214.47
  325.97        2978.25           1600          56.00       218.83
  326.00        2978.50           1603          48.00       183.96
  326.03        2978.75           1606          43.00       162.16
  326.06        2979.00           1610          49.00       188.32
  326.09        2979.25           1613          53.00       205.76
  326.12        2979.50           1616          48.00       183.96
  326.15        2979.75           1620          44.00       166.52
  326.18        2980.00           1623          56.00       218.83
  326.21        2980.25           1626          54.00       210.11
  326.24        2980.50           1630          45.00       170.88
  326.27        2980.75           1633          49.00       188.32
  326.30        2981.00           1637          43.00       162.16
  326.34        2981.25           1640          44.00       166.52
  326.37        2981.50           1643          50.00       192.68
  326.40        2981.75           1647          53.00       205.76
  326.43        2982.00           1650          47.00       179.60
  326.46        2982.25           1653          51.00       197.04
  326.49        2982.50           1657          52.00       201.40
  326.52        2982.75           1660          47.00       179.60
  326.55        2983.00           1663          47.00       179.60
  326.58        2983.25           1667          50.00       192.68
  326.61        2983.50           1670          49.00       188.32
  326.64        2983.75           1673          50.00       192.68
  326.68        2984.00           1677          52.00       201.40
HS scan finished at 05:26:53
end
************************************************************
  HS Scan of (1) Internal mercury lamp
************************************************************
Integration time is 0.2294 seconds per sample
dh160119Manchester 53.47 2.23 2.804185pr1000
************************************************************
Dead Time -------------------------  3E-08 
Number of Cycles Used -------------  4 
Starting Wavelength (Angstroms) ---  2950 
Final Wavelength (Angstoms) -------  2984 
Wavelength Increment (Angstroms) --  .25 
Filter Wheel #1 Position ---------- (1) Ground quartz diffuser (ND=2.32)
Filter Wheel #2 Position ---------- (1) Neutral Density 0.494



************************************************************
HS scan start time = 17:12:00
Dark Count =  6 


Time (GMT)  Wavelength (Ang)  Step Number  Raw Counts  Counts/Second

 1032.37        2950.00           1222          53.00       204.88
 1032.44        2950.25           1226          52.00       200.52
 1032.47        2950.50           1229          50.00       191.81
 1032.50        2950.75           1232          52.00       200.52
 1032.53        2951.00           1236          57.00       222.32
 1032.56        2951.25           1239          56.00       217.96
 1032.59        2951.50           1242          54.00       209.24
 1032.62        2951.75           1246          59.00       231.04
 1032.66        2952.00           1249          49.00       187.45
 1032.69        2952.25           1252          59.00       231.04
 1032.72        2952.50           1256          57.00       222.32
 1032.75        2952.75           1259          52.00       200.52
 1032.78        2953.00           1262          52.00       200.52
 1032.81        2953.25           1266          57.00       222.32
 1032.84        2953.50           1269          53.00       204.88
 1032.87        2953.75           1272          52.00       200.52
 1032.90        2954.00           1276          60.00       235.40
 1032.93        2954.25           1279          64.00       252.84
 1032.96        2954.50           1282          49.00       187.45
 1032.99        2954.75           1286          56.00       217.96
 1033.02        2955.00           1289          46.00       174.37
 1033.05        2955.25           1292          53.00       204.88
 1033.08        2955.50           1296          52.00       200.52
 1033.12        2955.75           1299          44.00       165.65
 1033.15        2956.00           1302          53.00       204.88
 1033.18        2956.25           1306          55.00       213.60
 1033.21        2956.50           1309          56.00       217.96
 1033.24        2956.75           1312          51.00       196.17
 1033.27        2957.00           1316          61.00       239.76
 1033.30        2957.25           1319          43.00       161.29
 1033.33        2957.50           1322          60.00       235.40
 1033.36        2957.75           1326          57.00       222.32
 1033.40        2958.00           1329          58.00       226.68
 1033.43        2958.25           1332          59.00       231.04
 1033.46        2958.50           1336          56.00       217.96
 1033.49        2958.75           1339          51.00       196.17
 1033.52        2959.00           1342          54.00       209.24
 1033.55        2959.25           1346          57.00       222.32
 1033.58        2959.50           1349          57.00       222.32
 1033.61        2959.75           1352          60.00       235.40
 1033.64        2960.00           1356          83.00       335.66
 1033.68        2960.25           1359         109.00       449.00
 1033.71        2960.50           1362         138.00       575.42
 1033.74        2960.75           1366         152.00       636.46
 1033.77        2961.00           1369         193.00       815.19
 1033.80        2961.25           1372         230.00       976.49
 1033.83        2961.50           1376         278.00      1185.74
 1033.86        2961.75           1379         405.00      1739.41
 1033.89        2962.00           1382         902.00      3906.30
 1033.92        2962.25           1386        2231.00      9702.04
 1033.95        2962.50           1389        3333.00     14509.37
 1033.98        2962.75           1392        4422.00     19261.35
 1034.02        2963.00           1396        5959.00     25970.53
 1034.05        2963.25           1399        7072.00     30830.60
 1034.08        2963.50           1402        8272.00     36072.15
 1034.11        2963.75           1406        9766.00     42600.19
 1034.14        2964.00           1409       10996.00     47976.59
 1034.17        2964.25           1412       12299.00     53673.98
 1034.20        2964.50           1416       13984.00     61044.56
 1034.23        2964.75           1419       14906.00     65078.99
 1034.26        2965.00           1422       16037.00     70029.28
 1034.30        2965.25           1426       17718.00     77389.58
 1034.33        2965.50           1429       18855.00     82369.82
 1034.36        2965.75           1432       20085.00     87759.08
 1034.39        2966.00           1436       21502.00     93969.86
 1034.42        2966.25           1439       22747.00     99428.66
 1034.45        2966.50           1442       23906.00    104512.00
 1034.48        2966.75           1446       25095.00    109728.60
 1034.51        2967.00           1449       25258.00    110443.80
 1034.54        2967.25           1452       25174.00    110075.20
 1034.57        2967.50           1456       25178.00    110092.80
 1034.61        2967.75           1459       25135.00    109904.10
 1034.64        2968.00           1462       25172.00    110066.40
 1034.67        2968.25           1466       24254.00    106038.60
 1034.70        2968.50           1469       23322.00    101950.40
 1034.73        2968.75           1472       22132.00     96731.92
 1034.76        2969.00           1476       20626.00     90130.04
 1034.79        2969.25           1479       19209.00     83920.69
 1034.82        2969.50           1482       18194.00     79474.35
 1034.85        2969.75           1486       16733.00     73076.33
 1034.89        2970.00           1489       15528.00     67801.24
 1034.92        2970.25           1492       14388.00     62812.24
 1034.95        2970.50           1496       13026.00     56853.65
 1034.98        2970.75           1499       11859.00     51749.85
 1035.01        2971.00           1502       10713.00     46739.43
 1035.04        2971.25           1506        8998.00     39244.09
 1035.07        2971.50           1509        7927.00     34565.03
 1035.10        2971.75           1513        6311.00     27507.43
 1035.14        2972.00           1516        5189.00     22609.05
 1035.17        2972.25           1519        4048.00     17629.20
 1035.20        2972.50           1523        2520.00     10962.63
 1035.23        2972.75           1526        1491.00      6474.67
 1035.26        2973.00           1529         664.00      2868.60
 1035.29        2973.25           1533         343.00      1469.11
 1035.32        2973.50           1536         280.00      1194.46
 1035.35        2973.75           1539         229.00       972.13
 1035.38        2974.00           1543         189.00       797.75
 1035.41        2974.25           1546         158.00       662.61
 1035.44        2974.50           1549         114.00       470.80
 1035.48        2974.75           1553          99.00       405.41
 1035.51        2975.00           1556          64.00       252.84
 1035.54        2975.25           1559          61.00       239.76
 1035.57        2975.50           1563          49.00       187.45
 1035.60        2975.75           1566          50.00       191.81
 1035.63        2976.00           1569          55.00       213.60
 1035.66        2976.25           1573          57.00       222.32
 1035.69        2976.50           1576          83.00       335.66
 1035.72        2976.75           1579          56.00       217.96
 1035.76        2977.00           1583          50.00       191.81
 1035.79        2977.25           1586          58.00       226.68
 1035.82        2977.50           1590          49.00       187.45
 1035.85        2977.75           1593          56.00       217.96
 1035.88        2978.00           1596          48.00       183.09
 1035.91        2978.25           1600          43.00       161.29
 1035.94        2978.50           1603          54.00       209.24
 1035.97        2978.75           1606          51.00       196.17
 1036.01        2979.00           1610          47.00       178.73
 1036.04        2979.25           1613          54.00       209.24
 1036.07        2979.50           1616          56.00       217.96
 1036.10        2979.75           1620          59.00       231.04
 1036.13        2980.00           1623          55.00       213.60
 1036.16        2980.25           1626          55.00       213.60
 1036.19        2980.50           1630          46.00       174.37
 1036.22        2980.75           1633          57.00       222.32
 1036.25        2981.00           1637          47.00       178.73
 1036.28        2981.25           1640          48.00       183.09
 1036.31        2981.50           1643          51.00       196.17
 1036.34        2981.75           1647          50.00       191.81
 1036.37        2982.00           1650          47.00       178.73
 1036.41        2982.25           1653          52.00       200.52
 1036.44        2982.50           1657          43.00       161.29
 1036.47        2982.75           1660          51.00       196.17
 1036.50        2983.00           1663          45.00       170.01
 1036.53        2983.25           1667          46.00       174.37
 1036.56        2983.50           1670          45.00       170.01
 1036.59        2983.75           1673          47.00       178.73
 1036.62        2984.00           1677          50.00       191.81
HS scan finished at 17:16:50
end
