************************************************************
  HS Scan of (1) Internal mercury lamp
************************************************************
Integration time is 0.2294 seconds per sample
dh120119Manchester 53.47 2.23 2.804185pr1000
************************************************************
Dead Time -------------------------  3E-08 
Number of Cycles Used -------------  4 
Starting Wavelength (Angstroms) ---  2950 
Final Wavelength (Angstoms) -------  2984 
Wavelength Increment (Angstroms) --  .25 
Filter Wheel #1 Position ---------- (1) Ground quartz diffuser (ND=2.32)
Filter Wheel #2 Position ---------- (1) Neutral Density 0.494



************************************************************
HS scan start time = 05:24:13
Dark Count =  6.1 


Time (GMT)  Wavelength (Ang)  Step Number  Raw Counts  Counts/Second

  324.59        2950.00           1222          64.00       252.40
  324.66        2950.25           1226          55.00       213.17
  324.69        2950.50           1229          50.00       191.37
  324.72        2950.75           1232          59.00       230.60
  324.75        2951.00           1236          55.00       213.17
  324.78        2951.25           1239          52.00       200.09
  324.81        2951.50           1242          57.00       221.88
  324.84        2951.75           1246          55.00       213.17
  324.87        2952.00           1249          55.00       213.17
  324.90        2952.25           1252          61.00       239.32
  324.93        2952.50           1256          50.00       191.37
  324.96        2952.75           1259          52.00       200.09
  324.99        2953.00           1262          57.00       221.88
  325.02        2953.25           1266          44.00       165.21
  325.05        2953.50           1269          61.00       239.32
  325.08        2953.75           1272          47.00       178.29
  325.11        2954.00           1276          50.00       191.37
  325.15        2954.25           1279          54.00       208.81
  325.18        2954.50           1282          63.00       248.04
  325.21        2954.75           1286          58.00       226.24
  325.24        2955.00           1289          50.00       191.37
  325.27        2955.25           1292          54.00       208.81
  325.30        2955.50           1296          57.00       221.88
  325.33        2955.75           1299          57.00       221.88
  325.36        2956.00           1302          52.00       200.09
  325.39        2956.25           1306          50.00       191.37
  325.42        2956.50           1309          49.00       187.01
  325.45        2956.75           1312          56.00       217.53
  325.49        2957.00           1316          55.00       213.17
  325.52        2957.25           1319          57.00       221.88
  325.55        2957.50           1322          51.00       195.73
  325.58        2957.75           1326          56.00       217.53
  325.61        2958.00           1329          44.00       165.21
  325.64        2958.25           1332          56.00       217.53
  325.67        2958.50           1336          52.00       200.09
  325.70        2958.75           1339          47.00       178.29
  325.73        2959.00           1342          50.00       191.37
  325.76        2959.25           1346          64.00       252.40
  325.79        2959.50           1349          52.00       200.09
  325.82        2959.75           1352          65.00       256.76
  325.85        2960.00           1356          79.00       317.79
  325.88        2960.25           1359         103.00       422.41
  325.91        2960.50           1362         140.00       583.71
  325.95        2960.75           1366         160.00       670.89
  325.98        2961.00           1369         205.00       867.07
  326.01        2961.25           1372         234.00       993.49
  326.04        2961.50           1376         270.00      1150.43
  326.07        2961.75           1379         338.00      1446.88
  326.10        2962.00           1382         568.00      2449.61
  326.13        2962.25           1386        1668.00      7246.13
  326.16        2962.50           1389        2632.00     11450.75
  326.19        2962.75           1392        3815.00     16612.03
  326.22        2963.00           1396        5363.00     23368.17
  326.25        2963.25           1399        6584.00     28699.07
  326.28        2963.50           1402        7650.00     33354.63
  326.32        2963.75           1406        9227.00     40244.29
  326.35        2964.00           1409       10501.00     45812.27
  326.38        2964.25           1412       11765.00     51338.39
  326.41        2964.50           1416       13281.00     57968.64
  326.44        2964.75           1419       14439.00     63034.96
  326.47        2965.00           1422       15465.00     67525.06
  326.50        2965.25           1426       17027.00     74363.19
  326.53        2965.50           1429       18264.00     79780.52
  326.56        2965.75           1432       19450.00     84976.16
  326.59        2966.00           1436       21178.00     92549.11
  326.62        2966.25           1439       22251.00     97253.25
  326.66        2966.50           1442       23361.00    102121.00
  326.69        2966.75           1446       24546.00    107319.30
  326.72        2967.00           1449       25125.00    109859.70
  326.75        2967.25           1452       25090.00    109706.20
  326.78        2967.50           1456       25195.00    110166.90
  326.81        2967.75           1459       25188.00    110136.20
  326.84        2968.00           1462       25021.00    109403.40
  326.87        2968.25           1466       24602.00    107564.90
  326.91        2968.50           1469       23759.00    103866.70
  326.94        2968.75           1472       22712.00     99274.74
  326.97        2969.00           1476       21161.00     92474.59
  327.00        2969.25           1479       19975.00     87276.61
  327.03        2969.50           1482       18840.00     82303.68
  327.06        2969.75           1486       17273.00     75440.38
  327.09        2970.00           1489       16092.00     70269.61
  327.12        2970.25           1492       14959.00     65310.49
  327.15        2970.50           1496       13454.00     58725.44
  327.19        2970.75           1499       12315.00     53743.52
  327.22        2971.00           1502       11187.00     48811.19
  327.25        2971.25           1506        9810.00     42792.05
  327.28        2971.50           1509        8585.00     37439.15
  327.31        2971.75           1513        7067.00     30808.33
  327.34        2972.00           1516        5838.00     25441.82
  327.37        2972.25           1519        4602.00     20046.49
  327.40        2972.50           1523        3163.00     13767.24
  327.43        2972.75           1526        2093.00      9099.69
  327.46        2973.00           1529        1089.00      4721.24
  327.50        2973.25           1533         429.00      1843.61
  327.53        2973.50           1536         293.00      1250.70
  327.56        2973.75           1539         257.00      1093.76
  327.59        2974.00           1543         201.00       849.63
  327.62        2974.25           1546         157.00       657.82
  327.65        2974.50           1549         143.00       596.78
  327.68        2974.75           1553          98.00       400.62
  327.71        2975.00           1556          73.00       291.63
  327.74        2975.25           1559          68.00       269.84
  327.77        2975.50           1563          60.00       234.96
  327.81        2975.75           1566          53.00       204.45
  327.84        2976.00           1569          57.00       221.88
  327.87        2976.25           1573          57.00       221.88
  327.90        2976.50           1576          50.00       191.37
  327.93        2976.75           1579          54.00       208.81
  327.96        2977.00           1583          49.00       187.01
  327.99        2977.25           1586          48.00       182.65
  328.02        2977.50           1590          51.00       195.73
  328.05        2977.75           1593          53.00       204.45
  328.09        2978.00           1596          48.00       182.65
  328.12        2978.25           1600          52.00       200.09
  328.15        2978.50           1603          49.00       187.01
  328.18        2978.75           1606          49.00       187.01
  328.21        2979.00           1610          47.00       178.29
  328.24        2979.25           1613          52.00       200.09
  328.27        2979.50           1616          55.00       213.17
  328.30        2979.75           1620          51.00       195.73
  328.33        2980.00           1623          55.00       213.17
  328.36        2980.25           1626          48.00       182.65
  328.40        2980.50           1630          47.00       178.29
  328.43        2980.75           1633          54.00       208.81
  328.46        2981.00           1637          49.00       187.01
  328.49        2981.25           1640          48.00       182.65
  328.52        2981.50           1643          46.00       173.93
  328.55        2981.75           1647          50.00       191.37
  328.58        2982.00           1650          54.00       208.81
  328.61        2982.25           1653          56.00       217.53
  328.64        2982.50           1657          45.00       169.57
  328.67        2982.75           1660          53.00       204.45
  328.71        2983.00           1663          51.00       195.73
  328.74        2983.25           1667          50.00       191.37
  328.77        2983.50           1670          49.00       187.01
  328.80        2983.75           1673          49.00       187.01
  328.83        2984.00           1677          50.00       191.37
HS scan finished at 05:29:03
end
************************************************************
  HS Scan of (1) Internal mercury lamp
************************************************************
Integration time is 0.2294 seconds per sample
dh120119Manchester 53.47 2.23 2.804185pr1000
************************************************************
Dead Time -------------------------  3E-08 
Number of Cycles Used -------------  4 
Starting Wavelength (Angstroms) ---  2950 
Final Wavelength (Angstoms) -------  2984 
Wavelength Increment (Angstroms) --  .25 
Filter Wheel #1 Position ---------- (1) Ground quartz diffuser (ND=2.32)
Filter Wheel #2 Position ---------- (1) Neutral Density 0.494



************************************************************
HS scan start time = 17:12:01
Dark Count =  7.4 


Time (GMT)  Wavelength (Ang)  Step Number  Raw Counts  Counts/Second

 1032.38        2950.00           1222          49.00       181.34
 1032.45        2950.25           1226          57.00       216.22
 1032.48        2950.50           1229          48.00       176.98
 1032.51        2950.75           1232          58.00       220.58
 1032.54        2951.00           1236          55.00       207.50
 1032.57        2951.25           1239          54.00       203.14
 1032.60        2951.50           1242          54.00       203.14
 1032.63        2951.75           1246          54.00       203.14
 1032.67        2952.00           1249          57.00       216.22
 1032.70        2952.25           1252          51.00       190.06
 1032.73        2952.50           1256          58.00       220.58
 1032.76        2952.75           1259          54.00       203.14
 1032.79        2953.00           1262          62.00       238.01
 1032.82        2953.25           1266          59.00       224.94
 1032.85        2953.50           1269          58.00       220.58
 1032.88        2953.75           1272          57.00       216.22
 1032.91        2954.00           1276          51.00       190.06
 1032.94        2954.25           1279          52.00       194.42
 1032.97        2954.50           1282          51.00       190.06
 1033.00        2954.75           1286          57.00       216.22
 1033.03        2955.00           1289          48.00       176.98
 1033.06        2955.25           1292          53.00       198.78
 1033.09        2955.50           1296          60.00       229.30
 1033.12        2955.75           1299          61.00       233.65
 1033.15        2956.00           1302          51.00       190.06
 1033.19        2956.25           1306          56.00       211.86
 1033.22        2956.50           1309          53.00       198.78
 1033.25        2956.75           1312          66.00       255.45
 1033.28        2957.00           1316          56.00       211.86
 1033.31        2957.25           1319          53.00       198.78
 1033.34        2957.50           1322          57.00       216.22
 1033.37        2957.75           1326          49.00       181.34
 1033.40        2958.00           1329          52.00       194.42
 1033.43        2958.25           1332          49.00       181.34
 1033.46        2958.50           1336          59.00       224.94
 1033.49        2958.75           1339          50.00       185.70
 1033.53        2959.00           1342          60.00       229.30
 1033.56        2959.25           1346          62.00       238.01
 1033.59        2959.50           1349          55.00       207.50
 1033.62        2959.75           1352          78.00       307.76
 1033.65        2960.00           1356          96.00       386.23
 1033.68        2960.25           1359         116.00       473.42
 1033.71        2960.50           1362         146.00       604.20
 1033.74        2960.75           1366         191.00       800.37
 1033.77        2961.00           1369         206.00       865.76
 1033.80        2961.25           1372         239.00      1009.62
 1033.83        2961.50           1376         310.00      1319.15
 1033.86        2961.75           1379         444.00      1903.33
 1033.89        2962.00           1382         989.00      4279.54
 1033.92        2962.25           1386        2254.00      9796.25
 1033.95        2962.50           1389        3417.00     14869.75
 1033.99        2962.75           1392        4532.00     19735.31
 1034.02        2963.00           1396        5996.00     26125.96
 1034.05        2963.25           1399        7049.00     30724.04
 1034.08        2963.50           1402        8288.00     36135.93
 1034.11        2963.75           1406        9797.00     42729.55
 1034.14        2964.00           1409       11011.00     48036.05
 1034.17        2964.25           1412       12197.00     53221.79
 1034.20        2964.50           1416       13800.00     60233.42
 1034.23        2964.75           1419       14941.00     65226.03
 1034.26        2965.00           1422       16091.00     70259.53
 1034.30        2965.25           1426       17569.00     76730.91
 1034.33        2965.50           1429       18762.00     81956.27
 1034.36        2965.75           1432       19916.00     87012.37
 1034.39        2966.00           1436       21476.00     93849.74
 1034.42        2966.25           1439       22355.00     97703.57
 1034.45        2966.50           1442       23582.00    103084.70
 1034.48        2966.75           1446       24655.00    107791.80
 1034.51        2967.00           1449       24925.00    108976.50
 1034.54        2967.25           1452       25037.00    109467.90
 1034.57        2967.50           1456       25016.00    109375.80
 1034.61        2967.75           1459       24872.00    108743.90
 1034.64        2968.00           1462       24758.00    108243.70
 1034.67        2968.25           1466       24114.00    105418.30
 1034.70        2968.50           1469       23093.00    100939.90
 1034.73        2968.75           1472       22001.00     96151.41
 1034.76        2969.00           1476       20425.00     89242.97
 1034.79        2969.25           1479       19185.00     83809.41
 1034.82        2969.50           1482       18280.00     79844.91
 1034.85        2969.75           1486       16739.00     73096.49
 1034.88        2970.00           1489       15421.00     67326.78
 1034.92        2970.25           1492       14366.00     62709.85
 1034.95        2970.50           1496       12911.00     56344.51
 1034.98        2970.75           1499       11784.00     51415.78
 1035.01        2971.00           1502       10643.00     46427.31
 1035.04        2971.25           1506        9077.00     39583.16
 1035.07        2971.50           1509        7990.00     34834.12
 1035.10        2971.75           1513        6393.00     27859.37
 1035.13        2972.00           1516        5233.00     22795.01
 1035.16        2972.25           1519        4037.00     17575.09
 1035.19        2972.50           1523        2587.00     11248.78
 1035.22        2972.75           1526        1545.00      6704.05
 1035.26        2973.00           1529         662.00      2853.78
 1035.29        2973.25           1533         318.00      1354.02
 1035.32        2973.50           1536         250.00      1057.58
 1035.35        2973.75           1539         205.00       861.40
 1035.38        2974.00           1543         186.00       778.57
 1035.41        2974.25           1546         144.00       595.48
 1035.44        2974.50           1549         104.00       421.10
 1035.47        2974.75           1553          84.00       333.92
 1035.50        2975.00           1556          58.00       220.58
 1035.53        2975.25           1559          58.00       220.58
 1035.56        2975.50           1563          51.00       190.06
 1035.60        2975.75           1566          56.00       211.86
 1035.63        2976.00           1569          46.00       168.27
 1035.66        2976.25           1573          45.00       163.91
 1035.69        2976.50           1576          48.00       176.98
 1035.72        2976.75           1579          49.00       181.34
 1035.75        2977.00           1583          54.00       203.14
 1035.78        2977.25           1586          48.00       176.98
 1035.81        2977.50           1590          52.00       194.42
 1035.84        2977.75           1593          47.00       172.63
 1035.88        2978.00           1596          54.00       203.14
 1035.91        2978.25           1600          44.00       159.55
 1035.94        2978.50           1603          47.00       172.63
 1035.97        2978.75           1606          54.00       203.14
 1036.00        2979.00           1610          55.00       207.50
 1036.03        2979.25           1613          62.00       238.01
 1036.06        2979.50           1616          59.00       224.94
 1036.09        2979.75           1620          47.00       172.63
 1036.12        2980.00           1623          53.00       198.78
 1036.15        2980.25           1626          53.00       198.78
 1036.18        2980.50           1630          51.00       190.06
 1036.22        2980.75           1633          52.00       194.42
 1036.25        2981.00           1637          46.00       168.27
 1036.28        2981.25           1640          52.00       194.42
 1036.31        2981.50           1643          52.00       194.42
 1036.34        2981.75           1647          51.00       190.06
 1036.37        2982.00           1650          56.00       211.86
 1036.40        2982.25           1653          56.00       211.86
 1036.43        2982.50           1657          51.00       190.06
 1036.48        2982.75           1660          47.00       172.63
 1036.51        2983.00           1663          38.00       133.39
 1036.54        2983.25           1667          48.00       176.98
 1036.57        2983.50           1670          44.00       159.55
 1036.60        2983.75           1673          51.00       190.06
 1036.63        2984.00           1677          46.00       168.27
HS scan finished at 17:16:51
end
