************************************************************
  HS Scan of (1) Internal mercury lamp
************************************************************
Integration time is 0.2294 seconds per sample
dh160118Manchester 53.47 2.23 2.750537pr1000
************************************************************
Dead Time -------------------------  3E-08 
Number of Cycles Used -------------  4 
Starting Wavelength (Angstroms) ---  2950 
Final Wavelength (Angstoms) -------  2984 
Wavelength Increment (Angstroms) --  .25 
Filter Wheel #1 Position ---------- (1) Ground quartz diffuser (ND=2.32)
Filter Wheel #2 Position ---------- (1) Neutral Density 0.494



************************************************************
HS scan start time = 05:21:55
Dark Count =  5.7 


Time (GMT)  Wavelength (Ang)  Step Number  Raw Counts  Counts/Second

  322.29        2950.00           1222          54.00       210.55
  322.35        2950.25           1226          66.00       262.86
  322.38        2950.50           1229          49.00       188.75
  322.41        2950.75           1232          67.00       267.22
  322.45        2951.00           1236          59.00       232.35
  322.48        2951.25           1239          61.00       241.07
  322.51        2951.50           1242          62.00       245.42
  322.54        2951.75           1246          66.00       262.86
  322.57        2952.00           1249          57.00       223.63
  322.60        2952.25           1252          60.00       236.71
  322.63        2952.50           1256          61.00       241.07
  322.66        2952.75           1259          50.00       193.11
  322.69        2953.00           1262          60.00       236.71
  322.73        2953.25           1266          59.00       232.35
  322.76        2953.50           1269          61.00       241.07
  322.79        2953.75           1272          55.00       214.91
  322.82        2954.00           1276          61.00       241.07
  322.85        2954.25           1279          62.00       245.42
  322.88        2954.50           1282          69.00       275.94
  322.91        2954.75           1286          64.00       254.14
  322.94        2955.00           1289          59.00       232.35
  322.97        2955.25           1292          61.00       241.07
  323.00        2955.50           1296          60.00       236.71
  323.03        2955.75           1299          68.00       271.58
  323.06        2956.00           1302          54.00       210.55
  323.09        2956.25           1306          66.00       262.86
  323.12        2956.50           1309          61.00       241.07
  323.15        2956.75           1312          74.00       297.74
  323.18        2957.00           1316          59.00       232.35
  323.21        2957.25           1319          64.00       254.14
  323.25        2957.50           1322          64.00       254.14
  323.28        2957.75           1326          58.00       227.99
  323.31        2958.00           1329          61.00       241.07
  323.34        2958.25           1332          62.00       245.42
  323.37        2958.50           1336          61.00       241.07
  323.40        2958.75           1339          59.00       232.35
  323.43        2959.00           1342          59.00       232.35
  323.46        2959.25           1346          60.00       236.71
  323.49        2959.50           1349          72.00       289.02
  323.52        2959.75           1352          91.00       371.84
  323.55        2960.00           1356         119.00       493.90
  323.58        2960.25           1359         150.00       629.04
  323.62        2960.50           1362         179.00       755.47
  323.65        2960.75           1366         231.00       982.16
  323.68        2961.00           1369         272.00      1160.89
  323.71        2961.25           1372         309.00      1322.20
  323.74        2961.50           1376         424.00      1823.55
  323.77        2961.75           1379         704.00      3044.31
  323.80        2962.00           1382        1612.00      7003.65
  323.83        2962.25           1386        3426.00     14916.44
  323.86        2962.50           1389        4875.00     21239.77
  323.89        2962.75           1392        6173.00     26906.19
  323.92        2963.00           1396        8342.00     36379.26
  323.96        2963.25           1399        9851.00     42972.98
  323.99        2963.50           1402       11328.00     49429.40
  324.02        2963.75           1406       13545.00     59125.28
  324.05        2964.00           1409       15288.00     66752.12
  324.08        2964.25           1412       16693.00     72902.53
  324.11        2964.50           1416       18649.00     81468.71
  324.14        2964.75           1419       20380.00     89053.21
  324.17        2965.00           1422       21681.00     94755.91
  324.20        2965.25           1426       23638.00    103337.70
  324.23        2965.50           1429       25341.00    110809.30
  324.26        2965.75           1432       26903.00    117665.30
  324.30        2966.00           1436       28754.00    125793.40
  324.33        2966.25           1439       30070.00    131574.60
  324.36        2966.50           1442       31676.00    138632.50
  324.39        2966.75           1446       32724.00    143239.80
  324.42        2967.00           1449       33021.00    144545.70
  324.45        2967.25           1452       32833.00    143719.00
  324.48        2967.50           1456       32865.00    143859.70
  324.51        2967.75           1459       32822.00    143670.70
  324.54        2968.00           1462       32672.00    143011.10
  324.57        2968.25           1466       31059.00    135920.60
  324.61        2968.50           1469       29731.00    130085.10
  324.64        2968.75           1472       28337.00    123961.90
  324.67        2969.00           1476       26240.00    114754.90
  324.70        2969.25           1479       24715.00    108062.50
  324.73        2969.50           1482       23309.00    101894.70
  324.76        2969.75           1486       21104.00     92226.49
  324.79        2970.00           1489       19714.00     86134.68
  324.82        2970.25           1492       18248.00     79712.20
  324.85        2970.50           1496       16406.00     71645.99
  324.89        2970.75           1499       14853.00     64848.36
  324.92        2971.00           1502       13156.00     57423.60
  324.95        2971.25           1506       11109.00     48471.92
  324.98        2971.50           1509        9783.00     42675.79
  325.01        2971.75           1513        7736.00     33732.02
  325.04        2972.00           1516        6256.00     27268.59
  325.07        2972.25           1519        4780.00     20825.13
  325.10        2972.50           1523        2787.00     12128.65
  325.13        2972.75           1526        1458.00      6332.07
  325.17        2973.00           1529         626.00      2704.23
  325.20        2973.25           1533         393.00      1688.40
  325.23        2973.50           1536         320.00      1370.15
  325.26        2973.75           1539         279.00      1191.41
  325.29        2974.00           1543         229.00       973.44
  325.32        2974.25           1546         168.00       707.51
  325.35        2974.50           1549         118.00       489.55
  325.38        2974.75           1553          89.00       363.13
  325.41        2975.00           1556          72.00       289.02
  325.44        2975.25           1559          66.00       262.86
  325.47        2975.50           1563          57.00       223.63
  325.50        2975.75           1566          53.00       206.19
  325.53        2976.00           1569          66.00       262.86
  325.56        2976.25           1573          68.00       271.58
  325.59        2976.50           1576          58.00       227.99
  325.62        2976.75           1579          63.00       249.78
  325.66        2977.00           1583          68.00       271.58
  325.69        2977.25           1586          61.00       241.07
  325.72        2977.50           1590          56.00       219.27
  325.75        2977.75           1593          59.00       232.35
  325.78        2978.00           1596          66.00       262.86
  325.81        2978.25           1600          57.00       223.63
  325.84        2978.50           1603          54.00       210.55
  325.87        2978.75           1606          62.00       245.42
  325.90        2979.00           1610          49.00       188.75
  325.93        2979.25           1613          63.00       249.78
  325.96        2979.50           1616          54.00       210.55
  326.00        2979.75           1620          58.00       227.99
  326.03        2980.00           1623          59.00       232.35
  326.06        2980.25           1626          54.00       210.55
  326.09        2980.50           1630          53.00       206.19
  326.12        2980.75           1633          55.00       214.91
  326.15        2981.00           1637          55.00       214.91
  326.18        2981.25           1640          52.00       201.83
  326.21        2981.50           1643          58.00       227.99
  326.24        2981.75           1647          59.00       232.35
  326.27        2982.00           1650          59.00       232.35
  326.30        2982.25           1653          54.00       210.55
  326.33        2982.50           1657          51.00       197.47
  326.36        2982.75           1660          52.00       201.83
  326.39        2983.00           1663          61.00       241.07
  326.42        2983.25           1667          59.00       232.35
  326.46        2983.50           1670          52.00       201.83
  326.49        2983.75           1673          53.00       206.19
  326.52        2984.00           1677          54.00       210.55
HS scan finished at 05:26:44
end
************************************************************
  HS Scan of (1) Internal mercury lamp
************************************************************
Integration time is 0.2294 seconds per sample
dh160118Manchester 53.47 2.23 2.750537pr1000
************************************************************
Dead Time -------------------------  3E-08 
Number of Cycles Used -------------  4 
Starting Wavelength (Angstroms) ---  2950 
Final Wavelength (Angstoms) -------  2984 
Wavelength Increment (Angstroms) --  .25 
Filter Wheel #1 Position ---------- (1) Ground quartz diffuser (ND=2.32)
Filter Wheel #2 Position ---------- (1) Neutral Density 0.494



************************************************************
HS scan start time = 17:12:01
Dark Count =  7.5 


Time (GMT)  Wavelength (Ang)  Step Number  Raw Counts  Counts/Second

 1032.38        2950.00           1222          58.00       220.14
 1032.45        2950.25           1226          64.00       246.30
 1032.48        2950.50           1229          69.00       268.09
 1032.51        2950.75           1232          61.00       233.22
 1032.54        2951.00           1236          59.00       224.50
 1032.57        2951.25           1239          69.00       268.09
 1032.60        2951.50           1242          63.00       241.94
 1032.63        2951.75           1246          65.00       250.66
 1032.66        2952.00           1249          60.00       228.86
 1032.69        2952.25           1252          63.00       241.94
 1032.72        2952.50           1256          65.00       250.66
 1032.75        2952.75           1259          56.00       211.42
 1032.78        2953.00           1262          61.00       233.22
 1032.82        2953.25           1266          69.00       268.09
 1032.85        2953.50           1269          59.00       224.50
 1032.88        2953.75           1272          57.00       215.78
 1032.91        2954.00           1276          66.00       255.02
 1032.94        2954.25           1279          62.00       237.58
 1032.97        2954.50           1282          64.00       246.30
 1033.00        2954.75           1286          60.00       228.86
 1033.03        2955.00           1289          58.00       220.14
 1033.06        2955.25           1292          61.00       233.22
 1033.09        2955.50           1296          66.00       255.02
 1033.12        2955.75           1299          64.00       246.30
 1033.15        2956.00           1302          58.00       220.14
 1033.19        2956.25           1306          58.00       220.14
 1033.22        2956.50           1309          62.00       237.58
 1033.25        2956.75           1312          56.00       211.42
 1033.28        2957.00           1316          63.00       241.94
 1033.31        2957.25           1319          75.00       294.25
 1033.34        2957.50           1322          57.00       215.78
 1033.37        2957.75           1326          63.00       241.94
 1033.40        2958.00           1329          58.00       220.14
 1033.43        2958.25           1332          66.00       255.02
 1033.46        2958.50           1336          67.00       259.37
 1033.49        2958.75           1339          67.00       259.37
 1033.53        2959.00           1342          70.00       272.45
 1033.56        2959.25           1346          78.00       307.33
 1033.59        2959.50           1349          77.00       302.97
 1033.62        2959.75           1352          84.00       333.48
 1033.65        2960.00           1356         123.00       503.50
 1033.68        2960.25           1359         165.00       686.59
 1033.71        2960.50           1362         178.00       743.26
 1033.74        2960.75           1366         261.00      1105.09
 1033.77        2961.00           1369         288.00      1222.80
 1033.80        2961.25           1372         315.00      1340.51
 1033.83        2961.50           1376         416.00      1780.83
 1033.86        2961.75           1379         672.00      2896.94
 1033.90        2962.00           1382        1415.00      6136.70
 1033.93        2962.25           1386        3221.00     14014.18
 1033.96        2962.50           1389        4577.00     19931.27
 1033.99        2962.75           1392        5971.00     26016.38
 1034.02        2963.00           1396        7911.00     34488.59
 1034.05        2963.25           1399        9385.00     40928.60
 1034.08        2963.50           1402       11040.00     48162.39
 1034.11        2963.75           1406       12890.00     56252.22
 1034.14        2964.00           1409       14584.00     63663.33
 1034.18        2964.25           1412       16245.00     70933.27
 1034.21        2964.50           1416       18324.00     80037.20
 1034.24        2964.75           1419       19880.00     86854.18
 1034.27        2965.00           1422       21364.00     93358.31
 1034.30        2965.25           1426       23417.00    102360.50
 1034.33        2965.50           1429       25212.00    110235.40
 1034.36        2965.75           1432       26779.00    117113.00
 1034.39        2966.00           1436       28705.00    125570.20
 1034.42        2966.25           1439       30073.00    131579.90
 1034.45        2966.50           1442       31220.00    136620.30
 1034.49        2966.75           1446       32464.00    142088.70
 1034.52        2967.00           1449       32763.00    143403.30
 1034.55        2967.25           1452       32671.00    142998.80
 1034.58        2967.50           1456       32629.00    142814.10
 1034.61        2967.75           1459       32803.00    143579.20
 1034.64        2968.00           1462       32450.00    142027.20
 1034.67        2968.25           1466       31249.00    136747.70
 1034.70        2968.50           1469       30093.00    131667.70
 1034.73        2968.75           1472       28532.00    124810.40
 1034.77        2969.00           1476       26605.00    116349.20
 1034.80        2969.25           1479       25237.00    110345.10
 1034.83        2969.50           1482       23692.00    103566.70
 1034.86        2969.75           1486       21747.00     95037.37
 1034.89        2970.00           1489       20284.00     88624.60
 1034.92        2970.25           1492       18862.00     82393.91
 1034.95        2970.50           1496       16792.00     73328.10
 1034.98        2970.75           1499       15366.00     67085.63
 1035.01        2971.00           1502       13822.00     60329.23
 1035.04        2971.25           1506       11616.00     50680.75
 1035.07        2971.50           1509       10112.00     44105.84
 1035.11        2971.75           1513        8225.00     35860.27
 1035.14        2972.00           1516        6792.00     29601.26
 1035.17        2972.25           1519        5394.00     23497.38
 1035.20        2972.50           1523        3502.00     15240.18
 1035.23        2972.75           1526        2157.00      9372.73
 1035.26        2973.00           1529         985.00      4261.66
 1035.29        2973.25           1533         416.00      1780.83
 1035.32        2973.50           1536         309.00      1314.35
 1035.35        2973.75           1539         269.00      1139.97
 1035.38        2974.00           1543         223.00       939.43
 1035.41        2974.25           1546         166.00       690.95
 1035.44        2974.50           1549         132.00       542.73
 1035.48        2974.75           1553          99.00       398.87
 1035.51        2975.00           1556          71.00       276.81
 1035.54        2975.25           1559          61.00       233.22
 1035.57        2975.50           1563          53.00       198.34
 1035.60        2975.75           1566          60.00       228.86
 1035.63        2976.00           1569          63.00       241.94
 1035.66        2976.25           1573          59.00       224.50
 1035.69        2976.50           1576          57.00       215.78
 1035.72        2976.75           1579          55.00       207.06
 1035.75        2977.00           1583          57.00       215.78
 1035.78        2977.25           1586          60.00       228.86
 1035.81        2977.50           1590          57.00       215.78
 1035.84        2977.75           1593          62.00       237.58
 1035.87        2978.00           1596          57.00       215.78
 1035.91        2978.25           1600          59.00       224.50
 1035.94        2978.50           1603          50.00       185.27
 1035.97        2978.75           1606          60.00       228.86
 1036.00        2979.00           1610          56.00       211.42
 1036.03        2979.25           1613          59.00       224.50
 1036.06        2979.50           1616          58.00       220.14
 1036.09        2979.75           1620          53.00       198.34
 1036.12        2980.00           1623          57.00       215.78
 1036.15        2980.25           1626          57.00       215.78
 1036.18        2980.50           1630          59.00       224.50
 1036.21        2980.75           1633          61.00       233.22
 1036.24        2981.00           1637          59.00       224.50
 1036.27        2981.25           1640          53.00       198.34
 1036.30        2981.50           1643          62.00       237.58
 1036.34        2981.75           1647          49.00       180.91
 1036.37        2982.00           1650          58.00       220.14
 1036.40        2982.25           1653          54.00       202.70
 1036.43        2982.50           1657          53.00       198.34
 1036.46        2982.75           1660          52.00       193.99
 1036.49        2983.00           1663          61.00       233.22
 1036.52        2983.25           1667          56.00       211.42
 1036.55        2983.50           1670          57.00       215.78
 1036.58        2983.75           1673          58.00       220.14
 1036.61        2984.00           1677          56.00       211.42
HS scan finished at 17:16:50
end
