************************************************************
  HS Scan of (1) Internal mercury lamp
************************************************************
Integration time is 0.2294 seconds per sample
dh110119Manchester 53.47 2.23 2.804185pr1000
************************************************************
Dead Time -------------------------  3E-08 
Number of Cycles Used -------------  4 
Starting Wavelength (Angstroms) ---  2950 
Final Wavelength (Angstoms) -------  2984 
Wavelength Increment (Angstroms) --  .25 
Filter Wheel #1 Position ---------- (1) Ground quartz diffuser (ND=2.32)
Filter Wheel #2 Position ---------- (1) Neutral Density 0.494



************************************************************
HS scan start time = 05:24:38
Dark Count =  6 


Time (GMT)  Wavelength (Ang)  Step Number  Raw Counts  Counts/Second

  325.01        2950.00           1222          54.00       209.24
  325.07        2950.25           1226          50.00       191.81
  325.10        2950.50           1229          55.00       213.60
  325.13        2950.75           1232          55.00       213.60
  325.16        2951.00           1236          52.00       200.52
  325.20        2951.25           1239          50.00       191.81
  325.23        2951.50           1242          56.00       217.96
  325.26        2951.75           1246          47.00       178.73
  325.29        2952.00           1249          53.00       204.88
  325.32        2952.25           1252          55.00       213.60
  325.35        2952.50           1256          57.00       222.32
  325.38        2952.75           1259          55.00       213.60
  325.41        2953.00           1262          61.00       239.76
  325.44        2953.25           1266          56.00       217.96
  325.47        2953.50           1269          57.00       222.32
  325.50        2953.75           1272          54.00       209.24
  325.53        2954.00           1276          55.00       213.60
  325.56        2954.25           1279          63.00       248.48
  325.60        2954.50           1282          52.00       200.52
  325.63        2954.75           1286          47.00       178.73
  325.66        2955.00           1289          52.00       200.52
  325.69        2955.25           1292          47.00       178.73
  325.72        2955.50           1296          45.00       170.01
  325.75        2955.75           1299          59.00       231.04
  325.78        2956.00           1302          54.00       209.24
  325.81        2956.25           1306          55.00       213.60
  325.84        2956.50           1309          62.00       244.12
  325.87        2956.75           1312          56.00       217.96
  325.90        2957.00           1316          53.00       204.88
  325.93        2957.25           1319          57.00       222.32
  325.96        2957.50           1322          55.00       213.60
  326.00        2957.75           1326          54.00       209.24
  326.03        2958.00           1329          54.00       209.24
  326.06        2958.25           1332          54.00       209.24
  326.09        2958.50           1336          55.00       213.60
  326.12        2958.75           1339          53.00       204.88
  326.15        2959.00           1342          54.00       209.24
  326.18        2959.25           1346          54.00       209.24
  326.21        2959.50           1349          51.00       196.17
  326.24        2959.75           1352          66.00       261.55
  326.27        2960.00           1356          87.00       353.10
  326.31        2960.25           1359         112.00       462.08
  326.34        2960.50           1362         130.00       540.55
  326.37        2960.75           1366         161.00       675.69
  326.40        2961.00           1369         203.00       858.78
  326.43        2961.25           1372         227.00       963.41
  326.46        2961.50           1376         287.00      1224.98
  326.49        2961.75           1379         350.00      1499.63
  326.52        2962.00           1382         694.00      2999.40
  326.55        2962.25           1386        1815.00      7887.66
  326.58        2962.50           1389        2908.00     12655.20
  326.62        2962.75           1392        4006.00     17445.92
  326.65        2963.00           1396        5548.00     24176.20
  326.68        2963.25           1399        6620.00     28856.71
  326.71        2963.50           1402        7719.00     33656.46
  326.74        2963.75           1406        9448.00     41210.46
  326.77        2964.00           1409       10564.00     46088.09
  326.80        2964.25           1412       11905.00     51951.00
  326.83        2964.50           1416       13402.00     58498.39
  326.86        2964.75           1419       14507.00     63332.95
  326.89        2965.00           1422       15832.00     69131.90
  326.92        2965.25           1426       17367.00     75852.46
  326.95        2965.50           1429       18629.00     81379.78
  326.99        2965.75           1432       19761.00     86339.30
  327.02        2966.00           1436       21295.00     93062.43
  327.05        2966.25           1439       22385.00     97841.26
  327.08        2966.50           1442       23417.00    102367.10
  327.11        2966.75           1446       24744.00    108188.40
  327.14        2967.00           1449       24941.00    109052.80
  327.17        2967.25           1452       25113.00    109807.50
  327.20        2967.50           1456       25003.00    109324.90
  327.23        2967.75           1459       25103.00    109763.60
  327.27        2968.00           1462       24958.00    109127.40
  327.30        2968.25           1466       24449.00    106894.10
  327.33        2968.50           1469       23491.00    102691.60
  327.36        2968.75           1472       22380.00     97819.33
  327.39        2969.00           1476       21078.00     92111.21
  327.42        2969.25           1479       19989.00     87338.39
  327.45        2969.50           1482       18708.00     81725.85
  327.48        2969.75           1486       17129.00     74810.26
  327.51        2970.00           1489       15938.00     69595.90
  327.54        2970.25           1492       14834.00     64763.90
  327.58        2970.50           1496       13354.00     58288.42
  327.61        2970.75           1499       12058.00     52620.06
  327.64        2971.00           1502       11042.00     48177.69
  327.67        2971.25           1506        9483.00     41363.42
  327.70        2971.50           1509        8418.00     36709.98
  327.73        2971.75           1513        6954.00     30315.27
  327.76        2972.00           1516        5772.00     25154.11
  327.79        2972.25           1519        4758.00     20727.79
  327.82        2972.50           1523        3176.00     13824.39
  327.86        2972.75           1526        2046.00      8895.14
  327.89        2973.00           1529        1004.00      4351.05
  327.92        2973.25           1533         374.00      1604.26
  327.95        2973.50           1536         271.00      1155.23
  327.98        2973.75           1539         231.00       980.85
  328.01        2974.00           1543         194.00       819.55
  328.04        2974.25           1546         146.00       610.30
  328.07        2974.50           1549         113.00       466.44
  328.10        2974.75           1553          80.00       322.58
  328.13        2975.00           1556          63.00       248.48
  328.16        2975.25           1559          61.00       239.76
  328.19        2975.50           1563          55.00       213.60
  328.23        2975.75           1566          49.00       187.45
  328.26        2976.00           1569          66.00       261.55
  328.29        2976.25           1573          48.00       183.09
  328.32        2976.50           1576          53.00       204.88
  328.35        2976.75           1579          53.00       204.88
  328.38        2977.00           1583          47.00       178.73
  328.41        2977.25           1586          46.00       174.37
  328.44        2977.50           1590          56.00       217.96
  328.47        2977.75           1593          56.00       217.96
  328.50        2978.00           1596          48.00       183.09
  328.53        2978.25           1600          49.00       187.45
  328.57        2978.50           1603          58.00       226.68
  328.60        2978.75           1606          50.00       191.81
  328.63        2979.00           1610          51.00       196.17
  328.66        2979.25           1613          44.00       165.65
  328.69        2979.50           1616          59.00       231.04
  328.72        2979.75           1620          49.00       187.45
  328.75        2980.00           1623          55.00       213.60
  328.78        2980.25           1626          51.00       196.17
  328.81        2980.50           1630          42.00       156.93
  328.84        2980.75           1633          46.00       174.37
  328.88        2981.00           1637          45.00       170.01
  328.91        2981.25           1640          49.00       187.45
  328.94        2981.50           1643          38.00       139.49
  328.97        2981.75           1647          56.00       217.96
  329.00        2982.00           1650          48.00       183.09
  329.03        2982.25           1653          46.00       174.37
  329.06        2982.50           1657          51.00       196.17
  329.09        2982.75           1660          41.00       152.57
  329.12        2983.00           1663          49.00       187.45
  329.15        2983.25           1667          48.00       183.09
  329.18        2983.50           1670          51.00       196.17
  329.22        2983.75           1673          53.00       204.88
  329.25        2984.00           1677          54.00       209.24
HS scan finished at 05:29:28
end
************************************************************
  HS Scan of (1) Internal mercury lamp
************************************************************
Integration time is 0.2294 seconds per sample
dh110119Manchester 53.47 2.23 2.804185pr1000
************************************************************
Dead Time -------------------------  3E-08 
Number of Cycles Used -------------  4 
Starting Wavelength (Angstroms) ---  2950 
Final Wavelength (Angstoms) -------  2984 
Wavelength Increment (Angstroms) --  .25 
Filter Wheel #1 Position ---------- (1) Ground quartz diffuser (ND=2.32)
Filter Wheel #2 Position ---------- (1) Neutral Density 0.494



************************************************************
HS scan start time = 17:12:03
Dark Count =  3.8 


Time (GMT)  Wavelength (Ang)  Step Number  Raw Counts  Counts/Second

 1032.42        2950.00           1222          56.00       227.55
 1032.48        2950.25           1226          54.00       218.83
 1032.52        2950.50           1229          56.00       227.55
 1032.55        2950.75           1232          52.00       210.11
 1032.58        2951.00           1236          60.00       244.99
 1032.61        2951.25           1239          61.00       249.35
 1032.64        2951.50           1242          49.00       197.04
 1032.67        2951.75           1246          55.00       223.19
 1032.70        2952.00           1249          58.00       236.27
 1032.73        2952.25           1252          55.00       223.19
 1032.76        2952.50           1256          57.00       231.91
 1032.79        2952.75           1259          51.00       205.76
 1032.82        2953.00           1262          53.00       214.47
 1032.85        2953.25           1266          54.00       218.83
 1032.89        2953.50           1269          47.00       188.32
 1032.92        2953.75           1272          58.00       236.27
 1032.95        2954.00           1276          60.00       244.99
 1032.98        2954.25           1279          49.00       197.04
 1033.01        2954.50           1282          51.00       205.76
 1033.04        2954.75           1286          48.00       192.68
 1033.07        2955.00           1289          53.00       214.47
 1033.10        2955.25           1292          50.00       201.40
 1033.13        2955.50           1296          58.00       236.27
 1033.17        2955.75           1299          47.00       188.32
 1033.20        2956.00           1302          47.00       188.32
 1033.23        2956.25           1306          50.00       201.40
 1033.26        2956.50           1309          51.00       205.76
 1033.29        2956.75           1312          57.00       231.91
 1033.32        2957.00           1316          51.00       205.76
 1033.35        2957.25           1319          56.00       227.55
 1033.38        2957.50           1322          55.00       223.19
 1033.41        2957.75           1326          52.00       210.11
 1033.44        2958.00           1329          55.00       223.19
 1033.47        2958.25           1332          58.00       236.27
 1033.51        2958.50           1336          62.00       253.71
 1033.54        2958.75           1339          54.00       218.83
 1033.57        2959.00           1342          57.00       231.91
 1033.60        2959.25           1346          53.00       214.47
 1033.63        2959.50           1349          64.00       262.43
 1033.66        2959.75           1352          72.00       297.30
 1033.69        2960.00           1356          90.00       375.77
 1033.72        2960.25           1359         121.00       510.91
 1033.75        2960.50           1362         147.00       624.25
 1033.78        2960.75           1366         175.00       746.31
 1033.81        2961.00           1369         209.00       894.53
 1033.84        2961.25           1372         237.00      1016.60
 1033.87        2961.50           1376         303.00      1304.32
 1033.91        2961.75           1379         456.00      1971.35
 1033.94        2962.00           1382         971.00      4216.75
 1033.97        2962.25           1386        2188.00      9524.08
 1034.00        2962.50           1389        3350.00     14593.14
 1034.03        2962.75           1392        4408.00     19209.85
 1034.06        2963.00           1396        5909.00     25761.84
 1034.09        2963.25           1399        6968.00     30386.01
 1034.12        2963.50           1402        8168.00     35627.43
 1034.15        2963.75           1406        9649.00     42098.47
 1034.18        2964.00           1409       10796.00     47111.87
 1034.21        2964.25           1412       11965.00     52222.99
 1034.25        2964.50           1416       13440.00     58674.25
 1034.28        2964.75           1419       14557.00     63561.37
 1034.31        2965.00           1422       15610.00     68169.79
 1034.34        2965.25           1426       17124.00     74798.00
 1034.37        2965.50           1429       18143.00     79260.60
 1034.40        2965.75           1432       19330.00     84460.46
 1034.43        2966.00           1436       20837.00     91064.48
 1034.46        2966.25           1439       21914.00     95785.75
 1034.49        2966.50           1442       22963.00    100385.60
 1034.53        2966.75           1446       24048.00    105144.60
 1034.56        2967.00           1449       24153.00    105605.20
 1034.59        2967.25           1452       24256.00    106057.10
 1034.62        2967.50           1456       24185.00    105745.60
 1034.65        2967.75           1459       24243.00    106000.00
 1034.68        2968.00           1462       23962.00    104767.30
 1034.71        2968.25           1466       23216.00    101495.10
 1034.74        2968.50           1469       22363.00     97754.44
 1034.77        2968.75           1472       21335.00     93247.41
 1034.80        2969.00           1476       19721.00     86173.66
 1034.84        2969.25           1479       18514.00     80885.66
 1034.87        2969.50           1482       17527.00     76562.75
 1034.90        2969.75           1486       16051.00     70100.19
 1034.93        2970.00           1489       14880.00     64974.83
 1034.96        2970.25           1492       13892.00     60651.67
 1034.99        2970.50           1496       12579.00     54908.16
 1035.02        2970.75           1499       11299.00     49310.91
 1035.05        2971.00           1502       10230.00     44637.77
 1035.08        2971.25           1506        8711.00     37999.70
 1035.12        2971.50           1509        7565.00     32993.41
 1035.15        2971.75           1513        6041.00     26338.16
 1035.18        2972.00           1516        4928.00     21479.40
 1035.21        2972.25           1519        3945.00     17189.33
 1035.24        2972.50           1523        2489.00     10837.00
 1035.27        2972.75           1526        1336.00      5808.34
 1035.30        2973.00           1529         553.00      2394.24
 1035.33        2973.25           1533         288.00      1238.93
 1035.36        2973.50           1536         233.00       999.16
 1035.39        2973.75           1539         210.00       898.89
 1035.43        2974.00           1543         176.00       750.67
 1035.46        2974.25           1546         136.00       576.30
 1035.49        2974.50           1549          97.00       406.28
 1035.52        2974.75           1553          72.00       297.30
 1035.55        2975.00           1556          54.00       218.83
 1035.58        2975.25           1559          53.00       214.47
 1035.61        2975.50           1563          54.00       218.83
 1035.64        2975.75           1566          51.00       205.76
 1035.67        2976.00           1569          55.00       223.19
 1035.70        2976.25           1573          54.00       218.83
 1035.74        2976.50           1576          46.00       183.96
 1035.77        2976.75           1579          45.00       179.60
 1035.80        2977.00           1583          51.00       205.76
 1035.83        2977.25           1586          49.00       197.04
 1035.86        2977.50           1590          50.00       201.40
 1035.89        2977.75           1593          52.00       210.11
 1035.92        2978.00           1596          54.00       218.83
 1035.95        2978.25           1600          47.00       188.32
 1035.98        2978.50           1603          47.00       188.32
 1036.01        2978.75           1606          48.00       192.68
 1036.04        2979.00           1610          51.00       205.76
 1036.07        2979.25           1613          48.00       192.68
 1036.10        2979.50           1616          55.00       223.19
 1036.13        2979.75           1620          56.00       227.55
 1036.16        2980.00           1623          46.00       183.96
 1036.19        2980.25           1626          46.00       183.96
 1036.23        2980.50           1630          59.00       240.63
 1036.26        2980.75           1633          50.00       201.40
 1036.29        2981.00           1637          44.00       175.24
 1036.32        2981.25           1640          40.00       157.80
 1036.35        2981.50           1643          52.00       210.11
 1036.38        2981.75           1647          51.00       205.76
 1036.41        2982.00           1650          51.00       205.76
 1036.44        2982.25           1653          49.00       197.04
 1036.47        2982.50           1657          41.00       162.16
 1036.50        2982.75           1660          46.00       183.96
 1036.53        2983.00           1663          39.00       153.44
 1036.57        2983.25           1667          53.00       214.47
 1036.60        2983.50           1670          42.00       166.52
 1036.63        2983.75           1673          50.00       201.40
 1036.66        2984.00           1677          51.00       205.76
HS scan finished at 17:16:53
end
