************************************************************
  HS Scan of (1) Internal mercury lamp
************************************************************
Integration time is 0.2294 seconds per sample
dh150118Manchester 53.47 2.23 2.750537pr1000
************************************************************
Dead Time -------------------------  3E-08 
Number of Cycles Used -------------  4 
Starting Wavelength (Angstroms) ---  2950 
Final Wavelength (Angstoms) -------  2984 
Wavelength Increment (Angstroms) --  .25 
Filter Wheel #1 Position ---------- (1) Ground quartz diffuser (ND=2.32)
Filter Wheel #2 Position ---------- (1) Neutral Density 0.494



************************************************************
HS scan start time = 05:22:32
Dark Count =  6.8 


Time (GMT)  Wavelength (Ang)  Step Number  Raw Counts  Counts/Second

  322.91        2950.00           1222          66.00       258.07
  322.98        2950.25           1226          65.00       253.71
  323.01        2950.50           1229          60.00       231.91
  323.04        2950.75           1232          60.00       231.91
  323.07        2951.00           1236          59.00       227.55
  323.10        2951.25           1239          64.00       249.35
  323.13        2951.50           1242          60.00       231.91
  323.16        2951.75           1246          56.00       214.47
  323.19        2952.00           1249          56.00       214.47
  323.22        2952.25           1252          66.00       258.07
  323.25        2952.50           1256          59.00       227.55
  323.28        2952.75           1259          67.00       262.43
  323.31        2953.00           1262          63.00       244.99
  323.34        2953.25           1266          59.00       227.55
  323.37        2953.50           1269          62.00       240.63
  323.40        2953.75           1272          62.00       240.63
  323.44        2954.00           1276          59.00       227.55
  323.47        2954.25           1279          66.00       258.07
  323.50        2954.50           1282          62.00       240.63
  323.53        2954.75           1286          59.00       227.55
  323.56        2955.00           1289          56.00       214.47
  323.59        2955.25           1292          60.00       231.91
  323.62        2955.50           1296          62.00       240.63
  323.65        2955.75           1299          59.00       227.55
  323.68        2956.00           1302          60.00       231.91
  323.71        2956.25           1306          60.00       231.91
  323.75        2956.50           1309          58.00       223.19
  323.78        2956.75           1312          65.00       253.71
  323.81        2957.00           1316          64.00       249.35
  323.84        2957.25           1319          63.00       244.99
  323.87        2957.50           1322          61.00       236.27
  323.90        2957.75           1326          61.00       236.27
  323.93        2958.00           1329          58.00       223.19
  323.96        2958.25           1332          61.00       236.27
  323.99        2958.50           1336          73.00       288.58
  324.02        2958.75           1339          49.00       183.96
  324.06        2959.00           1342          58.00       223.19
  324.09        2959.25           1346          72.00       284.22
  324.12        2959.50           1349          77.00       306.02
  324.15        2959.75           1352          85.00       340.89
  324.18        2960.00           1356         124.00       510.91
  324.21        2960.25           1359         143.00       593.73
  324.24        2960.50           1362         183.00       768.11
  324.27        2960.75           1366         250.00      1060.19
  324.30        2961.00           1369         294.00      1252.01
  324.33        2961.25           1372         312.00      1330.48
  324.36        2961.50           1376         404.00      1731.56
  324.40        2961.75           1379         604.00      2603.52
  324.43        2962.00           1382        1268.00      5498.73
  324.46        2962.25           1386        3023.00     13153.40
  324.49        2962.50           1389        4422.00     19257.86
  324.52        2962.75           1392        5848.00     25482.42
  324.55        2963.00           1396        7912.00     34496.02
  324.58        2963.25           1399        9460.00     41259.41
  324.61        2963.50           1402       11128.00     48550.18
  324.64        2963.75           1406       13210.00     57655.00
  324.67        2964.00           1409       14961.00     65316.18
  324.71        2964.25           1412       16547.00     72258.47
  324.74        2964.50           1416       18489.00     80763.00
  324.77        2964.75           1419       19953.00     87177.13
  324.80        2965.00           1422       21598.00     94387.21
  324.83        2965.25           1426       23557.00    102977.60
  324.86        2965.50           1429       25073.00    109628.50
  324.89        2965.75           1432       26507.00    115922.10
  324.92        2966.00           1436       28611.00    125160.40
  324.95        2966.25           1439       30003.00    131275.40
  324.99        2966.50           1442       31491.00    137814.50
  325.02        2966.75           1446       32691.00    143089.80
  325.05        2967.00           1449       32979.00    144356.20
  325.08        2967.25           1452       33078.00    144791.50
  325.11        2967.50           1456       32975.00    144338.60
  325.14        2967.75           1459       32990.00    144404.50
  325.17        2968.00           1462       32652.00    142918.40
  325.20        2968.25           1466       31672.00    138610.10
  325.23        2968.50           1469       30213.00    132198.10
  325.26        2968.75           1472       28919.00    126513.30
  325.30        2969.00           1476       27033.00    118231.20
  325.33        2969.25           1479       25154.00    109983.90
  325.36        2969.50           1482       23863.00    104319.90
  325.39        2969.75           1486       21893.00     95680.52
  325.42        2970.00           1489       20266.00     88548.78
  325.45        2970.25           1492       18754.00     81923.85
  325.48        2970.50           1496       16840.00     73541.32
  325.51        2970.75           1499       15238.00     66528.47
  325.54        2971.00           1502       13867.00     60529.17
  325.58        2971.25           1506       11838.00     51654.53
  325.61        2971.50           1509       10396.00     45350.24
  325.64        2971.75           1513        8363.00     36466.20
  325.67        2972.00           1516        6935.00     30228.80
  325.70        2972.25           1519        5401.00     23530.99
  325.73        2972.50           1523        3436.00     14955.27
  325.76        2972.75           1526        2075.00      9018.13
  325.79        2973.00           1529         914.00      3955.13
  325.82        2973.25           1533         433.00      1857.99
  325.86        2973.50           1536         325.00      1387.15
  325.89        2973.75           1539         287.00      1221.49
  325.92        2974.00           1543         224.00       946.84
  325.95        2974.25           1546         179.00       750.67
  325.98        2974.50           1549         137.00       567.58
  326.01        2974.75           1553          98.00       397.56
  326.04        2975.00           1556          74.00       292.94
  326.07        2975.25           1559          65.00       253.71
  326.10        2975.50           1563          58.00       223.19
  326.13        2975.75           1566          57.00       218.83
  326.16        2976.00           1569          62.00       240.63
  326.19        2976.25           1573          45.00       166.52
  326.22        2976.50           1576          64.00       249.35
  326.26        2976.75           1579          68.00       266.79
  326.29        2977.00           1583          58.00       223.19
  326.32        2977.25           1586          55.00       210.11
  326.35        2977.50           1590          54.00       205.76
  326.38        2977.75           1593          54.00       205.76
  326.41        2978.00           1596          55.00       210.11
  326.44        2978.25           1600          58.00       223.19
  326.47        2978.50           1603          57.00       218.83
  326.50        2978.75           1606          56.00       214.47
  326.53        2979.00           1610          59.00       227.55
  326.56        2979.25           1613          62.00       240.63
  326.59        2979.50           1616          60.00       231.91
  326.62        2979.75           1620          51.00       192.68
  326.66        2980.00           1623          56.00       214.47
  326.69        2980.25           1626          62.00       240.63
  326.72        2980.50           1630          63.00       244.99
  326.75        2980.75           1633          59.00       227.55
  326.78        2981.00           1637          53.00       201.40
  326.81        2981.25           1640          57.00       218.83
  326.84        2981.50           1643          53.00       201.40
  326.87        2981.75           1647          55.00       210.11
  326.90        2982.00           1650          60.00       231.91
  326.93        2982.25           1653          59.00       227.55
  326.96        2982.50           1657          58.00       223.19
  327.00        2982.75           1660          54.00       205.76
  327.03        2983.00           1663          57.00       218.83
  327.06        2983.25           1667          52.00       197.04
  327.09        2983.50           1670          59.00       227.55
  327.12        2983.75           1673          56.00       214.47
  327.15        2984.00           1677          52.00       197.04
HS scan finished at 05:27:22
end
************************************************************
  HS Scan of (1) Internal mercury lamp
************************************************************
Integration time is 0.2294 seconds per sample
dh150118Manchester 53.47 2.23 2.750537pr1000
************************************************************
Dead Time -------------------------  3E-08 
Number of Cycles Used -------------  4 
Starting Wavelength (Angstroms) ---  2950 
Final Wavelength (Angstoms) -------  2984 
Wavelength Increment (Angstroms) --  .25 
Filter Wheel #1 Position ---------- (1) Ground quartz diffuser (ND=2.32)
Filter Wheel #2 Position ---------- (1) Neutral Density 0.494



************************************************************
HS scan start time = 17:12:02
Dark Count =  5.4 


Time (GMT)  Wavelength (Ang)  Step Number  Raw Counts  Counts/Second

 1032.40        2950.00           1222          57.00       224.94
 1032.47        2950.25           1226          68.00       272.89
 1032.50        2950.50           1229          62.00       246.73
 1032.53        2950.75           1232          62.00       246.73
 1032.56        2951.00           1236          59.00       233.65
 1032.59        2951.25           1239          69.00       277.25
 1032.62        2951.50           1242          60.00       238.01
 1032.65        2951.75           1246          64.00       255.45
 1032.68        2952.00           1249          55.00       216.22
 1032.72        2952.25           1252          55.00       216.22
 1032.75        2952.50           1256          64.00       255.45
 1032.78        2952.75           1259          58.00       229.30
 1032.81        2953.00           1262          68.00       272.89
 1032.84        2953.25           1266          58.00       229.30
 1032.87        2953.50           1269          60.00       238.01
 1032.90        2953.75           1272          58.00       229.30
 1032.93        2954.00           1276          61.00       242.37
 1032.96        2954.25           1279          62.00       246.73
 1032.99        2954.50           1282          60.00       238.01
 1033.02        2954.75           1286          62.00       246.73
 1033.05        2955.00           1289          58.00       229.30
 1033.08        2955.25           1292          63.00       251.09
 1033.12        2955.50           1296          55.00       216.22
 1033.15        2955.75           1299          66.00       264.17
 1033.18        2956.00           1302          66.00       264.17
 1033.21        2956.25           1306          60.00       238.01
 1033.24        2956.50           1309          61.00       242.37
 1033.27        2956.75           1312          59.00       233.65
 1033.30        2957.00           1316          58.00       229.30
 1033.33        2957.25           1319          57.00       224.94
 1033.36        2957.50           1322          61.00       242.37
 1033.39        2957.75           1326          67.00       268.53
 1033.42        2958.00           1329          57.00       224.94
 1033.45        2958.25           1332          64.00       255.45
 1033.48        2958.50           1336          57.00       224.94
 1033.51        2958.75           1339          58.00       229.30
 1033.54        2959.00           1342          67.00       268.53
 1033.58        2959.25           1346          77.00       312.12
 1033.61        2959.50           1349          71.00       285.97
 1033.64        2959.75           1352          94.00       386.23
 1033.67        2960.00           1356         124.00       517.01
 1033.70        2960.25           1359         161.00       678.31
 1033.73        2960.50           1362         202.00       857.04
 1033.76        2960.75           1366         240.00      1022.70
 1033.79        2961.00           1369         283.00      1210.16
 1033.82        2961.25           1372         314.00      1345.30
 1033.85        2961.50           1376         405.00      1742.03
 1033.89        2961.75           1379         579.00      2500.62
 1033.92        2962.00           1382        1278.00      5548.44
 1033.95        2962.25           1386        2956.00     12867.22
 1033.98        2962.50           1389        4279.00     18639.89
 1034.01        2962.75           1392        5797.00     25265.88
 1034.04        2963.00           1396        7781.00     33929.90
 1034.07        2963.25           1399        9136.00     39849.70
 1034.10        2963.50           1402       10803.00     47135.48
 1034.13        2963.75           1406       13057.00     56991.87
 1034.16        2964.00           1409       14574.00     63628.76
 1034.20        2964.25           1412       16255.00     70986.23
 1034.23        2964.50           1416       18150.00     79284.26
 1034.26        2964.75           1419       19452.00     84987.99
 1034.29        2965.00           1422       21293.00     93056.28
 1034.32        2965.25           1426       23454.00    102532.00
 1034.35        2965.50           1429       24907.00    108906.20
 1034.38        2965.75           1432       26336.00    115177.60
 1034.41        2966.00           1436       28384.00    124169.60
 1034.44        2966.25           1439       29794.00    130363.20
 1034.48        2966.50           1442       31167.00    136396.60
 1034.51        2966.75           1446       32405.00    141838.50
 1034.54        2967.00           1449       32724.00    143241.10
 1034.57        2967.25           1452       32674.00    143021.20
 1034.60        2967.50           1456       32593.00    142665.10
 1034.63        2967.75           1459       32759.00    143395.00
 1034.66        2968.00           1462       32406.00    141842.90
 1034.69        2968.25           1466       31433.00    137565.70
 1034.72        2968.50           1469       30349.00    132801.80
 1034.75        2968.75           1472       28872.00    126313.00
 1034.78        2969.00           1476       26740.00    116951.00
 1034.81        2969.25           1479       25153.00    109985.70
 1034.84        2969.50           1482       23588.00    103119.70
 1034.87        2969.75           1486       21765.00     95125.49
 1034.91        2970.00           1489       20321.00     88795.94
 1034.94        2970.25           1492       18615.00     81321.08
 1034.97        2970.50           1496       16807.00     73402.96
 1035.00        2970.75           1499       15256.00     66613.38
 1035.03        2971.00           1502       13752.00     60032.17
 1035.06        2971.25           1506       11651.00     50842.97
 1035.09        2971.50           1509       10333.00     45080.98
 1035.12        2971.75           1513        8300.00     36197.09
 1035.15        2972.00           1516        6814.00     29706.50
 1035.18        2972.25           1519        5384.00     23462.89
 1035.22        2972.50           1523        3387.00     14747.59
 1035.25        2972.75           1526        1886.00      8199.92
 1035.28        2973.00           1529         802.00      3472.90
 1035.31        2973.25           1533         412.00      1772.54
 1035.34        2973.50           1536         311.00      1332.22
 1035.37        2973.75           1539         251.00      1070.65
 1035.40        2974.00           1543         210.00       891.92
 1035.43        2974.25           1546         163.00       687.02
 1035.46        2974.50           1549         125.00       521.37
 1035.49        2974.75           1553          82.00       333.92
 1035.52        2975.00           1556          66.00       264.17
 1035.56        2975.25           1559          55.00       216.22
 1035.59        2975.50           1563          61.00       242.37
 1035.62        2975.75           1566          54.00       211.86
 1035.65        2976.00           1569          63.00       251.09
 1035.68        2976.25           1573          62.00       246.73
 1035.71        2976.50           1576          60.00       238.01
 1035.74        2976.75           1579          61.00       242.37
 1035.77        2977.00           1583          50.00       194.42
 1035.80        2977.25           1586          55.00       216.22
 1035.83        2977.50           1590          56.00       220.58
 1035.86        2977.75           1593          60.00       238.01
 1035.89        2978.00           1596          62.00       246.73
 1035.92        2978.25           1600          63.00       251.09
 1035.95        2978.50           1603          60.00       238.01
 1035.99        2978.75           1606          52.00       203.14
 1036.02        2979.00           1610          62.00       246.73
 1036.05        2979.25           1613          52.00       203.14
 1036.08        2979.50           1616          58.00       229.30
 1036.11        2979.75           1620          55.00       216.22
 1036.14        2980.00           1623          59.00       233.65
 1036.17        2980.25           1626          54.00       211.86
 1036.20        2980.50           1630          55.00       216.22
 1036.23        2980.75           1633          59.00       233.65
 1036.26        2981.00           1637          55.00       216.22
 1036.29        2981.25           1640          49.00       190.06
 1036.32        2981.50           1643          51.00       198.78
 1036.35        2981.75           1647          62.00       246.73
 1036.38        2982.00           1650          53.00       207.50
 1036.41        2982.25           1653          59.00       233.65
 1036.44        2982.50           1657          60.00       238.01
 1036.47        2982.75           1660          54.00       211.86
 1036.50        2983.00           1663          56.00       220.58
 1036.53        2983.25           1667          65.00       259.81
 1036.57        2983.50           1670          61.00       242.37
 1036.60        2983.75           1673          55.00       216.22
 1036.63        2984.00           1677          55.00       216.22
HS scan finished at 17:16:51
end
