************************************************************
  HS Scan of (1) Internal mercury lamp
************************************************************
Integration time is 0.2294 seconds per sample
dh190118Manchester 53.47 2.23 2.750537pr1000
************************************************************
Dead Time -------------------------  3E-08 
Number of Cycles Used -------------  4 
Starting Wavelength (Angstroms) ---  2950 
Final Wavelength (Angstoms) -------  2984 
Wavelength Increment (Angstroms) --  .25 
Filter Wheel #1 Position ---------- (1) Ground quartz diffuser (ND=2.32)
Filter Wheel #2 Position ---------- (1) Neutral Density 0.494



************************************************************
HS scan start time = 05:19:46
Dark Count =  4.7 


Time (GMT)  Wavelength (Ang)  Step Number  Raw Counts  Counts/Second

  320.13        2950.00           1222          64.00       258.50
  320.20        2950.25           1226          64.00       258.50
  320.23        2950.50           1229          61.00       245.42
  320.26        2950.75           1232          60.00       241.07
  320.29        2951.00           1236          59.00       236.71
  320.32        2951.25           1239          66.00       267.22
  320.36        2951.50           1242          68.00       275.94
  320.39        2951.75           1246          62.00       249.78
  320.42        2952.00           1249          64.00       258.50
  320.45        2952.25           1252          65.00       262.86
  320.48        2952.50           1256          52.00       206.19
  320.51        2952.75           1259          61.00       245.42
  320.54        2953.00           1262          53.00       210.55
  320.57        2953.25           1266          54.00       214.91
  320.60        2953.50           1269          62.00       249.78
  320.63        2953.75           1272          60.00       241.07
  320.66        2954.00           1276          62.00       249.78
  320.70        2954.25           1279          57.00       227.99
  320.73        2954.50           1282          60.00       241.07
  320.76        2954.75           1286          62.00       249.78
  320.79        2955.00           1289          57.00       227.99
  320.82        2955.25           1292          53.00       210.55
  320.85        2955.50           1296          67.00       271.58
  320.88        2955.75           1299          65.00       262.86
  320.91        2956.00           1302          59.00       236.71
  320.94        2956.25           1306          66.00       267.22
  320.97        2956.50           1309          59.00       236.71
  321.00        2956.75           1312          63.00       254.14
  321.03        2957.00           1316          61.00       245.42
  321.07        2957.25           1319          60.00       241.07
  321.10        2957.50           1322          63.00       254.14
  321.13        2957.75           1326          62.00       249.78
  321.16        2958.00           1329          60.00       241.07
  321.19        2958.25           1332          55.00       219.27
  321.22        2958.50           1336          61.00       245.42
  321.25        2958.75           1339          57.00       227.99
  321.28        2959.00           1342          65.00       262.86
  321.31        2959.25           1346          60.00       241.07
  321.34        2959.50           1349          66.00       267.22
  321.37        2959.75           1352          70.00       284.66
  321.40        2960.00           1356         104.00       432.87
  321.43        2960.25           1359         125.00       524.42
  321.46        2960.50           1362         164.00       694.43
  321.50        2960.75           1366         218.00       929.84
  321.53        2961.00           1369         240.00      1025.75
  321.56        2961.25           1372         275.00      1178.33
  321.59        2961.50           1376         344.00      1479.14
  321.62        2961.75           1379         485.00      2093.85
  321.65        2962.00           1382         952.00      4129.98
  321.68        2962.25           1386        2538.00     11046.82
  321.71        2962.50           1389        3968.00     17285.77
  321.74        2962.75           1392        5469.00     23837.01
  321.77        2963.00           1396        7301.00     31836.41
  321.80        2963.25           1399        8818.00     38463.27
  321.84        2963.50           1402       10206.00     44528.93
  321.87        2963.75           1406       12302.00     53692.78
  321.90        2964.00           1409       14026.00     61234.01
  321.93        2964.25           1412       15618.00     68200.87
  321.96        2964.50           1416       17698.00     77307.69
  321.99        2964.75           1419       19093.00     83418.18
  322.02        2965.00           1422       20608.00     90056.84
  322.05        2965.25           1426       22759.00     99486.99
  322.08        2965.50           1429       24460.00    106948.10
  322.11        2965.75           1432       25716.00    112459.40
  322.14        2966.00           1436       27754.00    121406.10
  322.18        2966.25           1439       29224.00    127862.20
  322.21        2966.50           1442       30609.00    133947.40
  322.24        2966.75           1446       32153.00    140733.80
  322.27        2967.00           1449       32464.00    142101.00
  322.30        2967.25           1452       32660.00    142962.80
  322.33        2967.50           1456       32924.00    144123.60
  322.36        2967.75           1459       32750.00    143358.50
  322.39        2968.00           1462       32563.00    142536.30
  322.42        2968.25           1466       31680.00    138654.50
  322.45        2968.50           1469       30104.00    131728.40
  322.48        2968.75           1472       28941.00    126619.10
  322.52        2969.00           1476       26942.00    117840.90
  322.55        2969.25           1479       25458.00    111327.20
  322.58        2969.50           1482       24033.00    105074.80
  322.61        2969.75           1486       22022.00     96255.32
  322.64        2970.00           1489       20469.00     89447.64
  322.67        2970.25           1492       18981.00     82927.50
  322.70        2970.50           1496       16991.00     74211.69
  322.73        2970.75           1499       15391.00     67207.30
  322.76        2971.00           1502       13777.00     60144.61
  322.80        2971.25           1506       11692.00     51025.31
  322.83        2971.50           1509       10152.00     44292.91
  322.86        2971.75           1513        8298.00     36191.41
  322.89        2972.00           1516        6855.00     29888.60
  322.92        2972.25           1519        5338.00     23265.14
  322.95        2972.50           1523        3487.00     15186.95
  322.98        2972.75           1526        2068.00      8996.76
  323.01        2973.00           1529         901.00      3907.61
  323.04        2973.25           1533         453.00      1954.34
  323.07        2973.50           1536         332.00      1426.83
  323.11        2973.75           1539         274.00      1173.97
  323.14        2974.00           1543         236.00      1008.31
  323.17        2974.25           1546         182.00       772.90
  323.20        2974.50           1549         133.00       559.29
  323.23        2974.75           1553         101.00       419.80
  323.26        2975.00           1556          78.00       319.53
  323.29        2975.25           1559          64.00       258.50
  323.32        2975.50           1563          63.00       254.14
  323.35        2975.75           1566          66.00       267.22
  323.39        2976.00           1569          59.00       236.71
  323.42        2976.25           1573          63.00       254.14
  323.45        2976.50           1576          60.00       241.07
  323.48        2976.75           1579          72.00       293.38
  323.51        2977.00           1583          56.00       223.63
  323.54        2977.25           1586          59.00       236.71
  323.57        2977.50           1590          56.00       223.63
  323.60        2977.75           1593          56.00       223.63
  323.63        2978.00           1596          59.00       236.71
  323.66        2978.25           1600          59.00       236.71
  323.70        2978.50           1603          54.00       214.91
  323.73        2978.75           1606          56.00       223.63
  323.76        2979.00           1610          57.00       227.99
  323.79        2979.25           1613          58.00       232.35
  323.82        2979.50           1616          50.00       197.47
  323.85        2979.75           1620          60.00       241.07
  323.88        2980.00           1623          60.00       241.07
  323.91        2980.25           1626          59.00       236.71
  323.94        2980.50           1630          49.00       193.11
  323.97        2980.75           1633          56.00       223.63
  324.00        2981.00           1637          50.00       197.47
  324.03        2981.25           1640          59.00       236.71
  324.06        2981.50           1643          57.00       227.99
  324.09        2981.75           1647          58.00       232.35
  324.13        2982.00           1650          55.00       219.27
  324.16        2982.25           1653          53.00       210.55
  324.19        2982.50           1657          54.00       214.91
  324.22        2982.75           1660          59.00       236.71
  324.25        2983.00           1663          55.00       219.27
  324.28        2983.25           1667          55.00       219.27
  324.31        2983.50           1670          47.00       184.40
  324.34        2983.75           1673          48.00       188.75
  324.37        2984.00           1677          56.00       223.63
HS scan finished at 05:24:35
end
************************************************************
  HS Scan of (1) Internal mercury lamp
************************************************************
Integration time is 0.2294 seconds per sample
dh190118Manchester 53.47 2.23 2.750537pr1000
************************************************************
Dead Time -------------------------  3E-08 
Number of Cycles Used -------------  4 
Starting Wavelength (Angstroms) ---  2950 
Final Wavelength (Angstoms) -------  2984 
Wavelength Increment (Angstroms) --  .25 
Filter Wheel #1 Position ---------- (1) Ground quartz diffuser (ND=2.32)
Filter Wheel #2 Position ---------- (1) Neutral Density 0.494



************************************************************
HS scan start time = 17:12:04
Dark Count =  7.5 


Time (GMT)  Wavelength (Ang)  Step Number  Raw Counts  Counts/Second

 1032.43        2950.00           1222          59.00       224.50
 1032.50        2950.25           1226          66.00       255.02
 1032.53        2950.50           1229          66.00       255.02
 1032.56        2950.75           1232          60.00       228.86
 1032.59        2951.00           1236          54.00       202.70
 1032.62        2951.25           1239          71.00       276.81
 1032.65        2951.50           1242          71.00       276.81
 1032.68        2951.75           1246          63.00       241.94
 1032.71        2952.00           1249          56.00       211.42
 1032.75        2952.25           1252          62.00       237.58
 1032.78        2952.50           1256          61.00       233.22
 1032.81        2952.75           1259          56.00       211.42
 1032.84        2953.00           1262          65.00       250.66
 1032.87        2953.25           1266          52.00       193.99
 1032.90        2953.50           1269          61.00       233.22
 1032.93        2953.75           1272          58.00       220.14
 1032.96        2954.00           1276          52.00       193.99
 1032.99        2954.25           1279          64.00       246.30
 1033.02        2954.50           1282          64.00       246.30
 1033.05        2954.75           1286          59.00       224.50
 1033.08        2955.00           1289          64.00       246.30
 1033.12        2955.25           1292          64.00       246.30
 1033.15        2955.50           1296          61.00       233.22
 1033.18        2955.75           1299          63.00       241.94
 1033.21        2956.00           1302          57.00       215.78
 1033.24        2956.25           1306          64.00       246.30
 1033.27        2956.50           1309          56.00       211.42
 1033.30        2956.75           1312          57.00       215.78
 1033.33        2957.00           1316          60.00       228.86
 1033.36        2957.25           1319          63.00       241.94
 1033.39        2957.50           1322          63.00       241.94
 1033.42        2957.75           1326          69.00       268.09
 1033.45        2958.00           1329          66.00       255.02
 1033.48        2958.25           1332          60.00       228.86
 1033.51        2958.50           1336          60.00       228.86
 1033.55        2958.75           1339          67.00       259.37
 1033.58        2959.00           1342          58.00       220.14
 1033.61        2959.25           1346          78.00       307.33
 1033.64        2959.50           1349          74.00       289.89
 1033.67        2959.75           1352          84.00       333.48
 1033.70        2960.00           1356         118.00       481.70
 1033.73        2960.25           1359         169.00       704.03
 1033.76        2960.50           1362         192.00       804.29
 1033.79        2960.75           1366         239.00      1009.18
 1033.82        2961.00           1369         294.00      1248.96
 1033.85        2961.25           1372         323.00      1375.38
 1033.88        2961.50           1376         419.00      1793.91
 1033.91        2961.75           1379         680.00      2931.82
 1033.94        2962.00           1382        1591.00      6904.22
 1033.98        2962.25           1386        3437.00     14956.58
 1034.01        2962.50           1389        4837.00     21066.06
 1034.04        2962.75           1392        6229.00     27142.85
 1034.07        2963.00           1396        8137.00     35475.84
 1034.10        2963.25           1399        9607.00     41898.76
 1034.13        2963.50           1402       11191.00     48822.55
 1034.16        2963.75           1406       13074.00     57057.04
 1034.19        2964.00           1409       14509.00     63335.14
 1034.22        2964.25           1412       16248.00     70946.40
 1034.25        2964.50           1416       18157.00     79305.73
 1034.29        2964.75           1419       19762.00     86337.11
 1034.32        2965.00           1422       21308.00     93112.83
 1034.35        2965.25           1426       23259.00    101667.50
 1034.38        2965.50           1429       24997.00    109291.90
 1034.41        2965.75           1432       26541.00    116068.20
 1034.44        2966.00           1436       28313.00    123848.60
 1034.47        2966.25           1439       29803.00    130393.60
 1034.50        2966.50           1442       31056.00    135899.50
 1034.53        2966.75           1446       32339.00    141539.10
 1034.57        2967.00           1449       32406.00    141833.70
 1034.60        2967.25           1452       32403.00    141820.50
 1034.63        2967.50           1456       32424.00    141912.90
 1034.66        2967.75           1459       32468.00    142106.30
 1034.69        2968.00           1462       32337.00    141530.40
 1034.72        2968.25           1466       30894.00    135187.50
 1034.75        2968.50           1469       29606.00    129528.10
 1034.78        2968.75           1472       28227.00    123470.90
 1034.81        2969.00           1476       26364.00    115291.30
 1034.84        2969.25           1479       25034.00    109454.30
 1034.88        2969.50           1482       23453.00    102518.40
 1034.91        2969.75           1486       21323.00     93178.59
 1034.94        2970.00           1489       19921.00     87033.84
 1034.97        2970.25           1492       18508.00     80843.18
 1035.00        2970.50           1496       16405.00     71633.74
 1035.03        2970.75           1499       14991.00     65444.41
 1035.06        2971.00           1502       13320.00     58133.12
 1035.09        2971.25           1506       11456.00     49981.17
 1035.12        2971.50           1509        9856.00     42986.96
 1035.15        2971.75           1513        7932.00     34580.32
 1035.18        2972.00           1516        6311.00     27500.89
 1035.22        2972.25           1519        4958.00     21594.19
 1035.25        2972.50           1523        3083.00     13412.11
 1035.28        2972.75           1526        1669.00      7244.38
 1035.31        2973.00           1529         764.00      3298.06
 1035.34        2973.25           1533         361.00      1541.05
 1035.37        2973.50           1536         294.00      1248.96
 1035.40        2973.75           1539         245.00      1035.34
 1035.43        2974.00           1543         196.00       821.73
 1035.46        2974.25           1546         136.00       560.17
 1035.49        2974.50           1549         113.00       459.90
 1035.52        2974.75           1553          90.00       359.64
 1035.55        2975.00           1556          66.00       255.02
 1035.59        2975.25           1559          59.00       224.50
 1035.62        2975.50           1563          56.00       211.42
 1035.65        2975.75           1566          57.00       215.78
 1035.68        2976.00           1569          59.00       224.50
 1035.71        2976.25           1573          51.00       189.63
 1035.74        2976.50           1576          62.00       237.58
 1035.77        2976.75           1579          57.00       215.78
 1035.80        2977.00           1583          59.00       224.50
 1035.83        2977.25           1586          68.00       263.73
 1035.86        2977.50           1590          56.00       211.42
 1035.89        2977.75           1593          57.00       215.78
 1035.92        2978.00           1596          54.00       202.70
 1035.95        2978.25           1600          57.00       215.78
 1035.98        2978.50           1603          59.00       224.50
 1036.02        2978.75           1606          50.00       185.27
 1036.05        2979.00           1610          52.00       193.99
 1036.08        2979.25           1613          59.00       224.50
 1036.11        2979.50           1616          53.00       198.34
 1036.14        2979.75           1620          56.00       211.42
 1036.17        2980.00           1623          60.00       228.86
 1036.20        2980.25           1626          56.00       211.42
 1036.23        2980.50           1630          54.00       202.70
 1036.26        2980.75           1633          63.00       241.94
 1036.29        2981.00           1637          63.00       241.94
 1036.33        2981.25           1640          55.00       207.06
 1036.36        2981.50           1643          55.00       207.06
 1036.39        2981.75           1647          58.00       220.14
 1036.42        2982.00           1650          53.00       198.34
 1036.45        2982.25           1653          58.00       220.14
 1036.48        2982.50           1657          55.00       207.06
 1036.51        2982.75           1660          54.00       202.70
 1036.54        2983.00           1663          59.00       224.50
 1036.57        2983.25           1667          52.00       193.99
 1036.60        2983.50           1670          63.00       241.94
 1036.63        2983.75           1673          51.00       189.63
 1036.66        2984.00           1677          58.00       220.14
HS scan finished at 17:16:53
end
