************************************************************
  HS Scan of (1) Internal mercury lamp
************************************************************
Integration time is 0.2294 seconds per sample
dh180119Manchester 53.47 2.23 2.750537pr1000
************************************************************
Dead Time -------------------------  3E-08 
Number of Cycles Used -------------  4 
Starting Wavelength (Angstroms) ---  2950 
Final Wavelength (Angstoms) -------  2984 
Wavelength Increment (Angstroms) --  .25 
Filter Wheel #1 Position ---------- (1) Ground quartz diffuser (ND=2.32)
Filter Wheel #2 Position ---------- (1) Neutral Density 0.494



************************************************************
HS scan start time = 05:20:42
Dark Count =  6.5 


Time (GMT)  Wavelength (Ang)  Step Number  Raw Counts  Counts/Second

  321.07        2950.00           1222          56.00       215.78
  321.13        2950.25           1226          57.00       220.14
  321.17        2950.50           1229          58.00       224.50
  321.20        2950.75           1232          55.00       211.42
  321.23        2951.00           1236          50.00       189.63
  321.26        2951.25           1239          54.00       207.06
  321.29        2951.50           1242          48.00       180.91
  321.32        2951.75           1246          47.00       176.55
  321.35        2952.00           1249          61.00       237.58
  321.38        2952.25           1252          50.00       189.63
  321.41        2952.50           1256          55.00       211.42
  321.44        2952.75           1259          56.00       215.78
  321.47        2953.00           1262          50.00       189.63
  321.50        2953.25           1266          58.00       224.50
  321.53        2953.50           1269          56.00       215.78
  321.56        2953.75           1272          56.00       215.78
  321.60        2954.00           1276          54.00       207.06
  321.63        2954.25           1279          58.00       224.50
  321.66        2954.50           1282          56.00       215.78
  321.69        2954.75           1286          57.00       220.14
  321.72        2955.00           1289          55.00       211.42
  321.75        2955.25           1292          58.00       224.50
  321.78        2955.50           1296          57.00       220.14
  321.81        2955.75           1299          66.00       259.37
  321.84        2956.00           1302          59.00       228.86
  321.87        2956.25           1306          55.00       211.42
  321.90        2956.50           1309          55.00       211.42
  321.93        2956.75           1312          58.00       224.50
  321.96        2957.00           1316          57.00       220.14
  321.99        2957.25           1319          50.00       189.63
  322.02        2957.50           1322          56.00       215.78
  322.06        2957.75           1326          54.00       207.06
  322.09        2958.00           1329          68.00       268.09
  322.12        2958.25           1332          51.00       193.99
  322.15        2958.50           1336          50.00       189.63
  322.18        2958.75           1339          62.00       241.94
  322.21        2959.00           1342          54.00       207.06
  322.24        2959.25           1346          51.00       193.99
  322.27        2959.50           1349          53.00       202.70
  322.30        2959.75           1352          77.00       307.33
  322.33        2960.00           1356          93.00       377.07
  322.36        2960.25           1359         113.00       464.26
  322.39        2960.50           1362         142.00       590.68
  322.42        2960.75           1366         176.00       738.90
  322.46        2961.00           1369         205.00       865.32
  322.49        2961.25           1372         239.00      1013.54
  322.52        2961.50           1376         312.00      1331.79
  322.55        2961.75           1379         521.00      2242.96
  322.58        2962.00           1382        1157.00      5016.01
  322.61        2962.25           1386        2568.00     11169.83
  322.64        2962.50           1389        3685.00     16043.03
  322.67        2962.75           1392        4892.00     21310.48
  322.70        2963.00           1396        6303.00     27470.32
  322.73        2963.25           1399        7387.00     32204.16
  322.77        2963.50           1402        8580.00     37415.56
  322.80        2963.75           1406       10075.00     43948.49
  322.83        2964.00           1409       11297.00     49290.35
  322.86        2964.25           1412       12579.00     54896.35
  322.89        2964.50           1416       14432.00     63002.58
  322.92        2964.75           1419       15486.00     67615.22
  322.95        2965.00           1422       16747.00     73135.44
  322.98        2965.25           1426       18337.00     80098.53
  323.01        2965.50           1429       19479.00     85101.48
  323.04        2965.75           1432       20631.00     90149.77
  323.07        2966.00           1436       22186.00     96966.50
  323.11        2966.25           1439       23197.00    101400.00
  323.14        2966.50           1442       24088.00    105308.20
  323.17        2966.75           1446       25118.00    109827.30
  323.20        2967.00           1449       25447.00    111271.00
  323.23        2967.25           1452       25294.00    110599.60
  323.26        2967.50           1456       25348.00    110836.50
  323.29        2967.75           1459       25212.00    110239.80
  323.32        2968.00           1462       25046.00    109511.30
  323.36        2968.25           1466       24073.00    105242.40
  323.39        2968.50           1469       23105.00    100996.50
  323.42        2968.75           1472       22022.00     96247.42
  323.45        2969.00           1476       20597.00     90000.75
  323.48        2969.25           1479       19387.00     84698.38
  323.51        2969.50           1482       18256.00     79743.73
  323.54        2969.75           1486       16736.00     73087.28
  323.57        2970.00           1489       15529.00     67803.43
  323.60        2970.25           1492       14410.00     62906.32
  323.64        2970.50           1496       12887.00     56243.47
  323.67        2970.75           1499       11609.00     50654.51
  323.70        2971.00           1502       10403.00     45382.15
  323.73        2971.25           1506        8904.00     38831.18
  323.76        2971.50           1509        7647.00     33339.78
  323.79        2971.75           1513        6177.00     26920.16
  323.82        2972.00           1516        4995.00     21760.06
  323.85        2972.25           1519        3807.00     16575.37
  323.88        2972.50           1523        2392.00     10402.11
  323.91        2972.75           1526        1393.00      6045.12
  323.95        2973.00           1529         585.00      2521.99
  323.98        2973.25           1533         309.00      1318.71
  324.01        2973.50           1536         239.00      1013.54
  324.04        2973.75           1539         242.00      1026.62
  324.07        2974.00           1543         188.00       791.21
  324.10        2974.25           1546         142.00       590.68
  324.13        2974.50           1549         112.00       459.90
  324.16        2974.75           1553          76.00       302.97
  324.19        2975.00           1556          72.00       285.53
  324.22        2975.25           1559          58.00       224.50
  324.25        2975.50           1563          52.00       198.34
  324.28        2975.75           1566          53.00       202.70
  324.31        2976.00           1569          53.00       202.70
  324.34        2976.25           1573          48.00       180.91
  324.37        2976.50           1576          54.00       207.06
  324.41        2976.75           1579          50.00       189.63
  324.44        2977.00           1583          53.00       202.70
  324.47        2977.25           1586          50.00       189.63
  324.50        2977.50           1590          56.00       215.78
  324.53        2977.75           1593          52.00       198.34
  324.56        2978.00           1596          52.00       198.34
  324.59        2978.25           1600          52.00       198.34
  324.62        2978.50           1603          50.00       189.63
  324.65        2978.75           1606          44.00       163.47
  324.69        2979.00           1610          51.00       193.99
  324.72        2979.25           1613          50.00       189.63
  324.75        2979.50           1616          47.00       176.55
  324.78        2979.75           1620          50.00       189.63
  324.81        2980.00           1623          46.00       172.19
  324.84        2980.25           1626          64.00       250.66
  324.87        2980.50           1630          40.00       146.03
  324.90        2980.75           1633          52.00       198.34
  324.93        2981.00           1637          42.00       154.75
  324.96        2981.25           1640          40.00       146.03
  325.00        2981.50           1643          48.00       180.91
  325.03        2981.75           1647          47.00       176.55
  325.06        2982.00           1650          60.00       233.22
  325.09        2982.25           1653          42.00       154.75
  325.12        2982.50           1657          48.00       180.91
  325.15        2982.75           1660          50.00       189.63
  325.18        2983.00           1663          44.00       163.47
  325.21        2983.25           1667          48.00       180.91
  325.24        2983.50           1670          41.00       150.39
  325.27        2983.75           1673          46.00       172.19
  325.30        2984.00           1677          46.00       172.19
HS scan finished at 05:25:31
end
************************************************************
  HS Scan of (1) Internal mercury lamp
************************************************************
Integration time is 0.2294 seconds per sample
dh180119Manchester 53.47 2.23 2.750537pr1000
************************************************************
Dead Time -------------------------  3E-08 
Number of Cycles Used -------------  4 
Starting Wavelength (Angstroms) ---  2950 
Final Wavelength (Angstoms) -------  2984 
Wavelength Increment (Angstroms) --  .25 
Filter Wheel #1 Position ---------- (1) Ground quartz diffuser (ND=2.32)
Filter Wheel #2 Position ---------- (1) Neutral Density 0.494



************************************************************
HS scan start time = 17:12:00
Dark Count =  7 


Time (GMT)  Wavelength (Ang)  Step Number  Raw Counts  Counts/Second

 1032.38        2950.00           1222          54.00       204.88
 1032.44        2950.25           1226          64.00       248.48
 1032.47        2950.50           1229          56.00       213.60
 1032.50        2950.75           1232          53.00       200.52
 1032.54        2951.00           1236          56.00       213.60
 1032.57        2951.25           1239          58.00       222.32
 1032.60        2951.50           1242          50.00       187.45
 1032.63        2951.75           1246          52.00       196.17
 1032.66        2952.00           1249          47.00       174.37
 1032.69        2952.25           1252          55.00       209.24
 1032.72        2952.50           1256          53.00       200.52
 1032.75        2952.75           1259          55.00       209.24
 1032.78        2953.00           1262          51.00       191.81
 1032.81        2953.25           1266          61.00       235.40
 1032.84        2953.50           1269          49.00       183.09
 1032.87        2953.75           1272          51.00       191.81
 1032.90        2954.00           1276          53.00       200.52
 1032.93        2954.25           1279          56.00       213.60
 1032.97        2954.50           1282          48.00       178.73
 1033.00        2954.75           1286          50.00       187.45
 1033.03        2955.00           1289          56.00       213.60
 1033.06        2955.25           1292          54.00       204.88
 1033.09        2955.50           1296          51.00       191.81
 1033.12        2955.75           1299          52.00       196.17
 1033.15        2956.00           1302          55.00       209.24
 1033.18        2956.25           1306          50.00       187.45
 1033.21        2956.50           1309          60.00       231.04
 1033.24        2956.75           1312          49.00       183.09
 1033.28        2957.00           1316          50.00       187.45
 1033.31        2957.25           1319          52.00       196.17
 1033.34        2957.50           1322          62.00       239.76
 1033.37        2957.75           1326          49.00       183.09
 1033.40        2958.00           1329          55.00       209.24
 1033.43        2958.25           1332          54.00       204.88
 1033.46        2958.50           1336          55.00       209.24
 1033.49        2958.75           1339          52.00       196.17
 1033.52        2959.00           1342          66.00       257.19
 1033.55        2959.25           1346          65.00       252.84
 1033.58        2959.50           1349          65.00       252.84
 1033.61        2959.75           1352          60.00       231.04
 1033.64        2960.00           1356          84.00       335.66
 1033.67        2960.25           1359          94.00       379.25
 1033.71        2960.50           1362         131.00       540.55
 1033.74        2960.75           1366         177.00       741.08
 1033.77        2961.00           1369         200.00       841.35
 1033.80        2961.25           1372         238.00      1007.01
 1033.83        2961.50           1376         286.00      1216.26
 1033.86        2961.75           1379         380.00      1626.06
 1033.89        2962.00           1382         729.00      3147.64
 1033.92        2962.25           1386        1837.00      7979.24
 1033.95        2962.50           1389        2926.00     12729.36
 1033.98        2962.75           1392        4086.00     17790.66
 1034.01        2963.00           1396        5448.00     23735.29
 1034.04        2963.25           1399        6629.00     28891.64
 1034.07        2963.50           1402        7801.00     34010.27
 1034.10        2963.75           1406        9290.00     40515.65
 1034.13        2964.00           1409       10568.00     46101.21
 1034.17        2964.25           1412       11779.00     51395.67
 1034.20        2964.50           1416       13352.00     58275.29
 1034.23        2964.75           1419       14394.00     62834.12
 1034.26        2965.00           1422       15658.00     68365.88
 1034.29        2965.25           1426       17107.00     74709.55
 1034.32        2965.50           1429       18213.00     79553.20
 1034.35        2965.75           1432       19400.00     84753.15
 1034.38        2966.00           1436       20947.00     91532.62
 1034.41        2966.25           1439       21901.00     95714.72
 1034.45        2966.50           1442       22795.00     99634.77
 1034.48        2966.75           1446       24126.00    105472.70
 1034.51        2967.00           1449       24519.00    107196.90
 1034.54        2967.25           1452       24656.00    107797.90
 1034.57        2967.50           1456       24572.00    107429.40
 1034.60        2967.75           1459       24456.00    106920.50
 1034.63        2968.00           1462       24509.00    107153.00
 1034.66        2968.25           1466       23935.00    104634.80
 1034.69        2968.50           1469       22999.00    100529.40
 1034.73        2968.75           1472       21941.00     95890.09
 1034.76        2969.00           1476       20590.00     89967.88
 1034.79        2969.25           1479       19246.00     84078.42
 1034.82        2969.50           1482       18199.00     79491.88
 1034.85        2969.75           1486       16723.00     73028.16
 1034.88        2970.00           1489       15689.00     68501.58
 1034.91        2970.25           1492       14401.00     62864.74
 1034.94        2970.50           1496       12958.00     56551.84
 1034.97        2970.75           1499       11849.00     51701.75
 1035.01        2971.00           1502       10708.00     46713.20
 1035.04        2971.25           1506        9434.00     41144.92
 1035.07        2971.50           1509        8140.00     35491.13
 1035.10        2971.75           1513        6740.00     29376.36
 1035.13        2972.00           1516        5585.00     24333.37
 1035.16        2972.25           1519        4533.00     19741.42
 1035.19        2972.50           1523        3028.00     13174.34
 1035.22        2972.75           1526        1956.00      8498.24
 1035.25        2973.00           1529        1023.00      4429.53
 1035.29        2973.25           1533         373.00      1595.54
 1035.32        2973.50           1536         263.00      1115.99
 1035.35        2973.75           1539         212.00       893.66
 1035.38        2974.00           1543         209.00       880.58
 1035.41        2974.25           1546         147.00       610.30
 1035.44        2974.50           1549         116.00       475.16
 1035.47        2974.75           1553          95.00       383.61
 1035.50        2975.00           1556          66.00       257.19
 1035.53        2975.25           1559          55.00       209.24
 1035.56        2975.50           1563          58.00       222.32
 1035.59        2975.75           1566          64.00       248.48
 1035.62        2976.00           1569          56.00       213.60
 1035.65        2976.25           1573          55.00       209.24
 1035.69        2976.50           1576          51.00       191.81
 1035.72        2976.75           1579          48.00       178.73
 1035.75        2977.00           1583          50.00       187.45
 1035.78        2977.25           1586          50.00       187.45
 1035.81        2977.50           1590          43.00       156.93
 1035.84        2977.75           1593          54.00       204.88
 1035.87        2978.00           1596          58.00       222.32
 1035.90        2978.25           1600          53.00       200.52
 1035.93        2978.50           1603          51.00       191.81
 1035.96        2978.75           1606          61.00       235.40
 1035.99        2979.00           1610          47.00       174.37
 1036.02        2979.25           1613          46.00       170.01
 1036.06        2979.50           1616          48.00       178.73
 1036.09        2979.75           1620          51.00       191.81
 1036.12        2980.00           1623          49.00       183.09
 1036.15        2980.25           1626          53.00       200.52
 1036.18        2980.50           1630          41.00       148.21
 1036.21        2980.75           1633          52.00       196.17
 1036.24        2981.00           1637          46.00       170.01
 1036.27        2981.25           1640          52.00       196.17
 1036.30        2981.50           1643          48.00       178.73
 1036.33        2981.75           1647          50.00       187.45
 1036.36        2982.00           1650          52.00       196.17
 1036.39        2982.25           1653          42.00       152.57
 1036.43        2982.50           1657          54.00       204.88
 1036.46        2982.75           1660          53.00       200.52
 1036.49        2983.00           1663          45.00       165.65
 1036.52        2983.25           1667          59.00       226.68
 1036.55        2983.50           1670          47.00       174.37
 1036.58        2983.75           1673          55.00       209.24
 1036.61        2984.00           1677          53.00       200.52
HS scan finished at 17:16:50
end
