************************************************************
  HS Scan of (1) Internal mercury lamp
************************************************************
Integration time is 0.2294 seconds per sample
dh160117Manchester 53.47 2.23 2.804185pr1000
************************************************************
Dead Time -------------------------  3E-08 
Number of Cycles Used -------------  4 
Starting Wavelength (Angstroms) ---  2950 
Final Wavelength (Angstoms) -------  2984 
Wavelength Increment (Angstroms) --  .25 
Filter Wheel #1 Position ---------- (1) Ground quartz diffuser (ND=2.32)
Filter Wheel #2 Position ---------- (1) Neutral Density 0.494



************************************************************
HS scan start time = 05:21:45
Dark Count =  6.4 


Time (GMT)  Wavelength (Ang)  Step Number  Raw Counts  Counts/Second

  322.11        2950.00           1222          43.00       159.55
  322.18        2950.25           1226          43.00       159.55
  322.21        2950.50           1229          47.00       176.98
  322.24        2950.75           1232          44.00       163.91
  322.27        2951.00           1236          46.00       172.63
  322.31        2951.25           1239          42.00       155.19
  322.34        2951.50           1242          51.00       194.42
  322.37        2951.75           1246          43.00       159.55
  322.40        2952.00           1249          47.00       176.98
  322.43        2952.25           1252          50.00       190.06
  322.46        2952.50           1256          44.00       163.91
  322.49        2952.75           1259          48.00       181.34
  322.52        2953.00           1262          45.00       168.27
  322.55        2953.25           1266          45.00       168.27
  322.58        2953.50           1269          42.00       155.19
  322.61        2953.75           1272          44.00       163.91
  322.64        2954.00           1276          53.00       203.14
  322.67        2954.25           1279          45.00       168.27
  322.70        2954.50           1282          43.00       159.55
  322.74        2954.75           1286          35.00       124.67
  322.77        2955.00           1289          45.00       168.27
  322.80        2955.25           1292          42.00       155.19
  322.83        2955.50           1296          45.00       168.27
  322.86        2955.75           1299          41.00       150.83
  322.89        2956.00           1302          41.00       150.83
  322.92        2956.25           1306          51.00       194.42
  322.95        2956.50           1309          40.00       146.47
  322.98        2956.75           1312          45.00       168.27
  323.01        2957.00           1316          44.00       163.91
  323.05        2957.25           1319          44.00       163.91
  323.08        2957.50           1322          48.00       181.34
  323.11        2957.75           1326          41.00       150.83
  323.14        2958.00           1329          44.00       163.91
  323.17        2958.25           1332          44.00       163.91
  323.20        2958.50           1336          43.00       159.55
  323.23        2958.75           1339          45.00       168.27
  323.26        2959.00           1342          52.00       198.78
  323.29        2959.25           1346          42.00       155.19
  323.32        2959.50           1349          50.00       190.06
  323.35        2959.75           1352          61.00       238.01
  323.39        2960.00           1356          84.00       338.28
  323.42        2960.25           1359         110.00       451.62
  323.45        2960.50           1362         128.00       530.09
  323.48        2960.75           1366         204.00       861.40
  323.51        2961.00           1369         236.00      1000.90
  323.54        2961.25           1372         268.00      1140.41
  323.57        2961.50           1376         408.00      1750.75
  323.60        2961.75           1379         647.00      2792.74
  323.63        2962.00           1382        1343.00      5827.52
  323.66        2962.25           1386        3341.00     14542.53
  323.69        2962.50           1389        5012.00     21834.70
  323.73        2962.75           1392        6721.00     29296.01
  323.76        2963.00           1396        8690.00     37896.59
  323.79        2963.25           1399       10455.00     45609.89
  323.82        2963.50           1402       12271.00     53549.78
  323.85        2963.75           1406       14390.00     62819.24
  323.88        2964.00           1409       16194.00     70714.81
  323.91        2964.25           1412       17849.00     77961.56
  323.94        2964.50           1416       20106.00     87849.35
  323.97        2964.75           1419       21719.00     94919.42
  324.01        2965.00           1422       23377.00    102189.90
  324.04        2965.25           1426       25795.00    112798.70
  324.07        2965.50           1429       27380.00    119756.40
  324.10        2965.75           1432       28995.00    126848.90
  324.13        2966.00           1436       31205.00    136559.20
  324.16        2966.25           1439       32764.00    143412.60
  324.19        2966.50           1442       34143.00    149477.00
  324.22        2966.75           1446       35695.00    156304.90
  324.25        2967.00           1449       35937.00    157369.80
  324.29        2967.25           1452       36108.00    158122.30
  324.32        2967.50           1456       36098.00    158078.30
  324.35        2967.75           1459       35947.00    157413.80
  324.38        2968.00           1462       35651.00    156111.30
  324.41        2968.25           1466       34518.00    151126.50
  324.44        2968.50           1469       33109.00    144929.60
  324.47        2968.75           1472       31344.00    137170.10
  324.50        2969.00           1476       29470.00    128935.40
  324.53        2969.25           1479       27661.00    120990.20
  324.57        2969.50           1482       26064.00    113979.30
  324.60        2969.75           1486       24128.00    105484.10
  324.63        2970.00           1489       22397.00     97892.12
  324.66        2970.25           1492       20738.00     90619.16
  324.69        2970.50           1496       18668.00     81548.88
  324.72        2970.75           1499       16803.00     73381.06
  324.75        2971.00           1502       15295.00     66779.69
  324.78        2971.25           1506       12914.00     56362.00
  324.81        2971.50           1509       11119.00     48512.58
  324.84        2971.75           1513        8913.00     38870.93
  324.87        2972.00           1516        7379.00     32169.66
  324.91        2972.25           1519        5760.00     25099.98
  324.94        2972.50           1523        3826.00     16658.72
  324.97        2972.75           1526        2386.00     10376.38
  325.00        2973.00           1529        1139.00      4937.96
  325.03        2973.25           1533         529.00      2278.27
  325.06        2973.50           1536         373.00      1598.16
  325.09        2973.75           1539         340.00      1454.29
  325.12        2974.00           1543         278.00      1184.00
  325.15        2974.25           1546         221.00       935.51
  325.18        2974.50           1549         182.00       765.49
  325.21        2974.75           1553         109.00       447.26
  325.24        2975.00           1556          76.00       303.40
  325.27        2975.25           1559          61.00       238.01
  325.30        2975.50           1563          53.00       203.14
  325.33        2975.75           1566          51.00       194.42
  325.36        2976.00           1569          55.00       211.86
  325.40        2976.25           1573          43.00       159.55
  325.43        2976.50           1576          48.00       181.34
  325.46        2976.75           1579          45.00       168.27
  325.49        2977.00           1583          45.00       168.27
  325.52        2977.25           1586          42.00       155.19
  325.55        2977.50           1590          46.00       172.63
  325.58        2977.75           1593          55.00       211.86
  325.61        2978.00           1596          42.00       155.19
  325.64        2978.25           1600          49.00       185.70
  325.67        2978.50           1603          42.00       155.19
  325.70        2978.75           1606          40.00       146.47
  325.73        2979.00           1610          45.00       168.27
  325.76        2979.25           1613          46.00       172.63
  325.80        2979.50           1616          47.00       176.98
  325.83        2979.75           1620          43.00       159.55
  325.86        2980.00           1623          40.00       146.47
  325.89        2980.25           1626          43.00       159.55
  325.92        2980.50           1630          41.00       150.83
  325.95        2980.75           1633          50.00       190.06
  325.98        2981.00           1637          46.00       172.63
  326.01        2981.25           1640          47.00       176.98
  326.04        2981.50           1643          48.00       181.34
  326.07        2981.75           1647          49.00       185.70
  326.10        2982.00           1650          45.00       168.27
  326.13        2982.25           1653          38.00       137.75
  326.16        2982.50           1657          52.00       198.78
  326.19        2982.75           1660          52.00       198.78
  326.22        2983.00           1663          44.00       163.91
  326.26        2983.25           1667          45.00       168.27
  326.29        2983.50           1670          39.00       142.11
  326.32        2983.75           1673          43.00       159.55
  326.35        2984.00           1677          46.00       172.63
HS scan finished at 05:26:34
end
************************************************************
  HS Scan of (1) Internal mercury lamp
************************************************************
Integration time is 0.2294 seconds per sample
dh160117Manchester 53.47 2.23 2.804185pr1000
************************************************************
Dead Time -------------------------  3E-08 
Number of Cycles Used -------------  4 
Starting Wavelength (Angstroms) ---  2950 
Final Wavelength (Angstoms) -------  2984 
Wavelength Increment (Angstroms) --  .25 
Filter Wheel #1 Position ---------- (1) Ground quartz diffuser (ND=2.32)
Filter Wheel #2 Position ---------- (1) Neutral Density 0.494



************************************************************
HS scan start time = 17:12:03
Dark Count =  8.5 


Time (GMT)  Wavelength (Ang)  Step Number  Raw Counts  Counts/Second

 1032.42        2950.00           1222          43.00       150.39
 1032.49        2950.25           1226          46.00       163.47
 1032.52        2950.50           1229          47.00       167.83
 1032.55        2950.75           1232          49.00       176.55
 1032.58        2951.00           1236          43.00       150.39
 1032.61        2951.25           1239          38.00       128.60
 1032.64        2951.50           1242          64.00       241.94
 1032.67        2951.75           1246          52.00       189.63
 1032.71        2952.00           1249          43.00       150.39
 1032.74        2952.25           1252          46.00       163.47
 1032.77        2952.50           1256          41.00       141.67
 1032.80        2952.75           1259          46.00       163.47
 1032.83        2953.00           1262          40.00       137.32
 1032.86        2953.25           1266          46.00       163.47
 1032.89        2953.50           1269          46.00       163.47
 1032.92        2953.75           1272          49.00       176.55
 1032.95        2954.00           1276          39.00       132.96
 1032.99        2954.25           1279          42.00       146.03
 1033.02        2954.50           1282          43.00       150.39
 1033.05        2954.75           1286          49.00       176.55
 1033.08        2955.00           1289          38.00       128.60
 1033.11        2955.25           1292          47.00       167.83
 1033.14        2955.50           1296          45.00       159.11
 1033.17        2955.75           1299          46.00       163.47
 1033.20        2956.00           1302          54.00       198.34
 1033.23        2956.25           1306          40.00       137.32
 1033.26        2956.50           1309          45.00       159.11
 1033.29        2956.75           1312          42.00       146.03
 1033.33        2957.00           1316          40.00       137.32
 1033.36        2957.25           1319          45.00       159.11
 1033.39        2957.50           1322          49.00       176.55
 1033.42        2957.75           1326          43.00       150.39
 1033.45        2958.00           1329          46.00       163.47
 1033.48        2958.25           1332          38.00       128.60
 1033.51        2958.50           1336          46.00       163.47
 1033.54        2958.75           1339          43.00       150.39
 1033.57        2959.00           1342          48.00       172.19
 1033.60        2959.25           1346          47.00       167.83
 1033.63        2959.50           1349          67.00       255.02
 1033.67        2959.75           1352          67.00       255.02
 1033.70        2960.00           1356         101.00       403.23
 1033.73        2960.25           1359         128.00       520.93
 1033.76        2960.50           1362         161.00       664.79
 1033.79        2960.75           1366         236.00       991.75
 1033.82        2961.00           1369         272.00      1148.69
 1033.85        2961.25           1372         333.00      1414.62
 1033.88        2961.50           1376         401.00      1711.07
 1033.91        2961.75           1379         673.00      2896.94
 1033.94        2962.00           1382        1289.00      5582.89
 1033.97        2962.25           1386        3001.00     13050.01
 1034.00        2962.50           1389        4482.00     19512.29
 1034.03        2962.75           1392        6053.00     26370.03
 1034.06        2963.00           1396        8153.00     35541.36
 1034.10        2963.25           1399        9702.00     42309.56
 1034.13        2963.50           1402       11307.00     49325.33
 1034.16        2963.75           1406       13654.00     59589.88
 1034.19        2964.00           1409       15406.00     67256.32
 1034.22        2964.25           1412       17253.00     75342.29
 1034.25        2964.50           1416       19312.00     84361.02
 1034.28        2964.75           1419       20886.00     91258.66
 1034.31        2965.00           1422       22730.00     99343.15
 1034.34        2965.25           1426       24937.00    109024.30
 1034.37        2965.50           1429       26542.00    116068.20
 1034.40        2965.75           1432       28132.00    123049.30
 1034.44        2966.00           1436       30349.00    132788.20
 1034.47        2966.25           1439       31801.00    139169.60
 1034.50        2966.50           1442       33242.00    145505.20
 1034.53        2966.75           1446       34893.00    152767.00
 1034.56        2967.00           1449       35315.00    154623.60
 1034.59        2967.25           1452       35459.00    155257.20
 1034.62        2967.50           1456       35396.00    154980.00
 1034.65        2967.75           1459       35543.00    155626.80
 1034.68        2968.00           1462       35018.00    153316.90
 1034.72        2968.25           1466       34189.00    149670.10
 1034.75        2968.50           1469       33066.00    144731.20
 1034.78        2968.75           1472       31526.00    137960.90
 1034.81        2969.00           1476       29394.00    128592.30
 1034.84        2969.25           1479       27895.00    122008.60
 1034.87        2969.50           1482       25938.00    113417.10
 1034.90        2969.75           1486       23865.00    104321.20
 1034.93        2970.00           1489       22192.00     96984.03
 1034.96        2970.25           1492       20697.00     90430.26
 1034.99        2970.50           1496       18478.00     80707.38
 1035.02        2970.75           1499       16752.00     73148.58
 1035.06        2971.00           1502       15215.00     66420.37
 1035.09        2971.25           1506       13125.00     57275.75
 1035.12        2971.50           1509       11491.00     50129.83
 1035.15        2971.75           1513        9388.00     40937.35
 1035.18        2972.00           1516        7741.00     33741.64
 1035.21        2972.25           1519        6222.00     27107.92
 1035.24        2972.50           1523        4122.00     17941.22
 1035.27        2972.75           1526        2532.00     11004.07
 1035.30        2973.00           1529        1219.00      5277.64
 1035.33        2973.25           1533         422.00      1802.63
 1035.37        2973.50           1536         313.00      1327.43
 1035.40        2973.75           1539         253.00      1065.86
 1035.43        2974.00           1543         214.00       895.84
 1035.46        2974.25           1546         157.00       647.35
 1035.49        2974.50           1549         126.00       512.21
 1035.52        2974.75           1553          70.00       268.09
 1035.55        2975.00           1556          66.00       250.66
 1035.58        2975.25           1559          50.00       180.91
 1035.61        2975.50           1563          49.00       176.55
 1035.64        2975.75           1566          48.00       172.19
 1035.67        2976.00           1569          49.00       176.55
 1035.70        2976.25           1573          48.00       172.19
 1035.73        2976.50           1576          39.00       132.96
 1035.76        2976.75           1579          43.00       150.39
 1035.80        2977.00           1583          50.00       180.91
 1035.83        2977.25           1586          43.00       150.39
 1035.86        2977.50           1590          51.00       185.27
 1035.89        2977.75           1593          43.00       150.39
 1035.92        2978.00           1596          44.00       154.75
 1035.95        2978.25           1600          48.00       172.19
 1035.98        2978.50           1603          47.00       167.83
 1036.01        2978.75           1606          40.00       137.32
 1036.04        2979.00           1610          53.00       193.99
 1036.07        2979.25           1613          44.00       154.75
 1036.10        2979.50           1616          48.00       172.19
 1036.13        2979.75           1620          39.00       132.96
 1036.17        2980.00           1623          43.00       150.39
 1036.20        2980.25           1626          37.00       124.24
 1036.23        2980.50           1630          47.00       167.83
 1036.26        2980.75           1633          44.00       154.75
 1036.29        2981.00           1637          39.00       132.96
 1036.32        2981.25           1640          42.00       146.03
 1036.35        2981.50           1643          49.00       176.55
 1036.38        2981.75           1647          46.00       163.47
 1036.41        2982.00           1650          41.00       141.67
 1036.45        2982.25           1653          46.00       163.47
 1036.48        2982.50           1657          37.00       124.24
 1036.51        2982.75           1660          45.00       159.11
 1036.54        2983.00           1663          37.00       124.24
 1036.57        2983.25           1667          44.00       154.75
 1036.60        2983.50           1670          38.00       128.60
 1036.63        2983.75           1673          40.00       137.32
 1036.66        2984.00           1677          44.00       154.75
HS scan finished at 17:16:53
end
