************************************************************
  HS Scan of (1) Internal mercury lamp
************************************************************
Integration time is 0.2294 seconds per sample
dh100118Manchester 53.47 2.23 2.804185pr1000
************************************************************
Dead Time -------------------------  3E-08 
Number of Cycles Used -------------  4 
Starting Wavelength (Angstroms) ---  2950 
Final Wavelength (Angstoms) -------  2984 
Wavelength Increment (Angstroms) --  .25 
Filter Wheel #1 Position ---------- (1) Ground quartz diffuser (ND=2.32)
Filter Wheel #2 Position ---------- (1) Neutral Density 0.494



************************************************************
HS scan start time = 05:24:56
Dark Count =  5.3 


Time (GMT)  Wavelength (Ang)  Step Number  Raw Counts  Counts/Second

  325.31        2950.00           1222          57.00       225.37
  325.38        2950.25           1226          55.00       216.65
  325.41        2950.50           1229          57.00       225.37
  325.44        2950.75           1232          56.00       221.01
  325.47        2951.00           1236          64.00       255.89
  325.50        2951.25           1239          56.00       221.01
  325.53        2951.50           1242          58.00       229.73
  325.56        2951.75           1246          61.00       242.81
  325.59        2952.00           1249          62.00       247.17
  325.62        2952.25           1252          60.00       238.45
  325.65        2952.50           1256          56.00       221.01
  325.68        2952.75           1259          66.00       264.61
  325.71        2953.00           1262          61.00       242.81
  325.75        2953.25           1266          69.00       277.68
  325.78        2953.50           1269          53.00       207.94
  325.81        2953.75           1272          57.00       225.37
  325.84        2954.00           1276          57.00       225.37
  325.87        2954.25           1279          65.00       260.25
  325.90        2954.50           1282          66.00       264.61
  325.93        2954.75           1286          59.00       234.09
  325.96        2955.00           1289          64.00       255.89
  325.99        2955.25           1292          60.00       238.45
  326.02        2955.50           1296          57.00       225.37
  326.05        2955.75           1299          58.00       229.73
  326.08        2956.00           1302          68.00       273.32
  326.12        2956.25           1306          60.00       238.45
  326.15        2956.50           1309          60.00       238.45
  326.18        2956.75           1312          54.00       212.29
  326.21        2957.00           1316          62.00       247.17
  326.24        2957.25           1319          65.00       260.25
  326.27        2957.50           1322          65.00       260.25
  326.30        2957.75           1326          57.00       225.37
  326.33        2958.00           1329          58.00       229.73
  326.36        2958.25           1332          65.00       260.25
  326.39        2958.50           1336          62.00       247.17
  326.42        2958.75           1339          61.00       242.81
  326.45        2959.00           1342          52.00       203.58
  326.48        2959.25           1346          63.00       251.53
  326.52        2959.50           1349          72.00       290.76
  326.55        2959.75           1352          94.00       386.67
  326.58        2960.00           1356         139.00       582.83
  326.61        2960.25           1359         151.00       635.15
  326.64        2960.50           1362         194.00       822.60
  326.67        2960.75           1366         244.00      1040.57
  326.70        2961.00           1369         288.00      1232.39
  326.73        2961.25           1372         318.00      1363.18
  326.76        2961.50           1376         401.00      1725.02
  326.79        2961.75           1379         680.00      2941.41
  326.82        2962.00           1382        1566.00      6804.79
  326.86        2962.25           1386        3370.00     14673.85
  326.89        2962.50           1389        4869.00     21215.33
  326.92        2962.75           1392        6407.00     27929.67
  326.95        2963.00           1396        8314.00     36258.69
  326.98        2963.25           1399        9698.00     42306.06
  327.01        2963.50           1402       11271.00     49181.93
  327.04        2963.75           1406       13347.00     58260.86
  327.07        2964.00           1409       14632.00     63883.00
  327.10        2964.25           1412       16269.00     71047.96
  327.13        2964.50           1416       18459.00     80638.18
  327.17        2964.75           1419       19862.00     86784.94
  327.20        2965.00           1422       21596.00     94385.01
  327.23        2965.25           1426       23475.00    102624.50
  327.26        2965.50           1429       25074.00    109639.50
  327.29        2965.75           1432       26658.00    116591.50
  327.32        2966.00           1436       28490.00    124635.60
  327.35        2966.25           1439       29754.00    130188.00
  327.38        2966.50           1442       31315.00    137047.50
  327.41        2966.75           1446       32784.00    143505.30
  327.45        2967.00           1449       33041.00    144635.40
  327.48        2967.25           1452       33072.00    144771.70
  327.51        2967.50           1456       33063.00    144732.10
  327.54        2967.75           1459       32904.00    144033.00
  327.57        2968.00           1462       32798.00    143566.90
  327.60        2968.25           1466       31440.00    137596.90
  327.63        2968.50           1469       30019.00    131352.20
  327.66        2968.75           1472       28649.00    125333.90
  327.69        2969.00           1476       26808.00    117250.00
  327.72        2969.25           1479       25301.00    110635.60
  327.76        2969.50           1482       23902.00    104497.50
  327.79        2969.75           1486       21803.00     95292.51
  327.82        2970.00           1489       20342.00     88888.41
  327.85        2970.25           1492       18704.00     81711.40
  327.88        2970.50           1496       16818.00     73451.56
  327.91        2970.75           1499       15334.00     66955.20
  327.94        2971.00           1502       13604.00     59385.13
  327.97        2971.25           1506       11663.00     50895.88
  328.00        2971.50           1509       10131.00     44198.50
  328.03        2971.75           1513        8110.00     35367.50
  328.06        2972.00           1516        6406.00     27925.31
  328.10        2972.25           1519        5109.00     22262.91
  328.13        2972.50           1523        3203.00     13945.24
  328.16        2972.75           1526        1730.00      7520.01
  328.19        2973.00           1529         787.00      3407.93
  328.22        2973.25           1533         418.00      1799.14
  328.25        2973.50           1536         331.00      1419.85
  328.28        2973.75           1539         255.00      1088.53
  328.31        2974.00           1543         222.00       944.67
  328.34        2974.25           1546         176.00       744.13
  328.37        2974.50           1549         127.00       530.52
  328.40        2974.75           1553          99.00       408.46
  328.43        2975.00           1556          75.00       303.84
  328.46        2975.25           1559          66.00       264.61
  328.50        2975.50           1563          66.00       264.61
  328.53        2975.75           1566          57.00       225.37
  328.56        2976.00           1569          53.00       207.94
  328.59        2976.25           1573          60.00       238.45
  328.62        2976.50           1576          51.00       199.22
  328.65        2976.75           1579          57.00       225.37
  328.68        2977.00           1583          56.00       221.01
  328.71        2977.25           1586          57.00       225.37
  328.74        2977.50           1590          59.00       234.09
  328.77        2977.75           1593          61.00       242.81
  328.80        2978.00           1596          62.00       247.17
  328.84        2978.25           1600          57.00       225.37
  328.87        2978.50           1603          63.00       251.53
  328.90        2978.75           1606          60.00       238.45
  328.93        2979.00           1610          64.00       255.89
  328.96        2979.25           1613          53.00       207.94
  328.99        2979.50           1616          56.00       221.01
  329.02        2979.75           1620          55.00       216.65
  329.05        2980.00           1623          62.00       247.17
  329.08        2980.25           1626          51.00       199.22
  329.11        2980.50           1630          54.00       212.29
  329.14        2980.75           1633          58.00       229.73
  329.17        2981.00           1637          53.00       207.94
  329.21        2981.25           1640          59.00       234.09
  329.24        2981.50           1643          52.00       203.58
  329.27        2981.75           1647          60.00       238.45
  329.30        2982.00           1650          56.00       221.01
  329.33        2982.25           1653          57.00       225.37
  329.36        2982.50           1657          57.00       225.37
  329.39        2982.75           1660          52.00       203.58
  329.42        2983.00           1663          55.00       216.65
  329.45        2983.25           1667          59.00       234.09
  329.48        2983.50           1670          60.00       238.45
  329.51        2983.75           1673          58.00       229.73
  329.54        2984.00           1677          55.00       216.65
HS scan finished at 05:29:46
end
************************************************************
  HS Scan of (1) Internal mercury lamp
************************************************************
Integration time is 0.2294 seconds per sample
dh100118Manchester 53.47 2.23 2.804185pr1000
************************************************************
Dead Time -------------------------  3E-08 
Number of Cycles Used -------------  4 
Starting Wavelength (Angstroms) ---  2950 
Final Wavelength (Angstoms) -------  2984 
Wavelength Increment (Angstroms) --  .25 
Filter Wheel #1 Position ---------- (1) Ground quartz diffuser (ND=2.32)
Filter Wheel #2 Position ---------- (1) Neutral Density 0.494



************************************************************
HS scan start time = 17:11:59
Dark Count =  6 


Time (GMT)  Wavelength (Ang)  Step Number  Raw Counts  Counts/Second

 1032.36        2950.00           1222          66.00       261.55
 1032.42        2950.25           1226          64.00       252.84
 1032.46        2950.50           1229          59.00       231.04
 1032.49        2950.75           1232          64.00       252.84
 1032.52        2951.00           1236          60.00       235.40
 1032.55        2951.25           1239          57.00       222.32
 1032.58        2951.50           1242          54.00       209.24
 1032.61        2951.75           1246          60.00       235.40
 1032.64        2952.00           1249          57.00       222.32
 1032.67        2952.25           1252          63.00       248.48
 1032.70        2952.50           1256          59.00       231.04
 1032.73        2952.75           1259          66.00       261.55
 1032.76        2953.00           1262          58.00       226.68
 1032.79        2953.25           1266          55.00       213.60
 1032.83        2953.50           1269          59.00       231.04
 1032.86        2953.75           1272          59.00       231.04
 1032.89        2954.00           1276          73.00       292.07
 1032.92        2954.25           1279          64.00       252.84
 1032.95        2954.50           1282          71.00       283.35
 1032.98        2954.75           1286          68.00       270.27
 1033.01        2955.00           1289          69.00       274.63
 1033.04        2955.25           1292          60.00       235.40
 1033.07        2955.50           1296          52.00       200.52
 1033.10        2955.75           1299          63.00       248.48
 1033.14        2956.00           1302          63.00       248.48
 1033.17        2956.25           1306          62.00       244.12
 1033.20        2956.50           1309          58.00       226.68
 1033.23        2956.75           1312          67.00       265.91
 1033.26        2957.00           1316          69.00       274.63
 1033.29        2957.25           1319          59.00       231.04
 1033.32        2957.50           1322          52.00       200.52
 1033.35        2957.75           1326          60.00       235.40
 1033.38        2958.00           1329          64.00       252.84
 1033.41        2958.25           1332          65.00       257.19
 1033.44        2958.50           1336          57.00       222.32
 1033.48        2958.75           1339          67.00       265.91
 1033.51        2959.00           1342          63.00       248.48
 1033.54        2959.25           1346          63.00       248.48
 1033.57        2959.50           1349          65.00       257.19
 1033.60        2959.75           1352          81.00       326.94
 1033.63        2960.00           1356          97.00       396.69
 1033.66        2960.25           1359         143.00       597.22
 1033.69        2960.50           1362         180.00       758.52
 1033.72        2960.75           1366         251.00      1068.04
 1033.75        2961.00           1369         274.00      1168.31
 1033.78        2961.25           1372         296.00      1264.22
 1033.82        2961.50           1376         358.00      1534.51
 1033.85        2961.75           1379         573.00      2471.85
 1033.88        2962.00           1382        1282.00      5563.27
 1033.91        2962.25           1386        3017.00     13130.72
 1033.94        2962.50           1389        4451.00     19387.91
 1033.97        2962.75           1392        5917.00     25787.16
 1034.00        2963.00           1396        7773.00     33892.34
 1034.03        2963.25           1399        9351.00     40786.59
 1034.06        2963.50           1402       10776.00     47014.83
 1034.09        2963.75           1406       12924.00     56407.49
 1034.13        2964.00           1409       14506.00     63328.57
 1034.16        2964.25           1412       16177.00     70642.15
 1034.19        2964.50           1416       18402.00     80385.43
 1034.22        2964.75           1419       19762.00     86343.68
 1034.25        2965.00           1422       21246.00     92847.62
 1034.28        2965.25           1426       23307.00    101884.60
 1034.31        2965.50           1429       24673.00    107876.90
 1034.34        2965.75           1432       26287.00    114959.90
 1034.37        2966.00           1436       28091.00    122880.20
 1034.41        2966.25           1439       29495.00    129047.00
 1034.44        2966.50           1442       30932.00    135361.10
 1034.47        2966.75           1446       32525.00    142363.50
 1034.50        2967.00           1449       32757.00    143383.50
 1034.53        2967.25           1452       32857.00    143823.20
 1034.56        2967.50           1456       32791.00    143533.00
 1034.59        2967.75           1459       32780.00    143484.70
 1034.62        2968.00           1462       32587.00    142636.10
 1034.65        2968.25           1466       31237.00    136701.60
 1034.68        2968.50           1469       30040.00    131441.40
 1034.72        2968.75           1472       28601.00    125120.00
 1034.75        2969.00           1476       26672.00    116649.90
 1034.78        2969.25           1479       25259.00    110448.20
 1034.81        2969.50           1482       23786.00    103985.60
 1034.84        2969.75           1486       21607.00     94430.18
 1034.87        2970.00           1489       20099.00     87820.44
 1034.90        2970.25           1492       18606.00     81279.03
 1034.93        2970.50           1496       16666.00     72782.99
 1034.96        2970.75           1499       15006.00     65516.62
 1034.99        2971.00           1502       13621.00     59456.44
 1035.02        2971.25           1506       11472.00     50057.69
 1035.05        2971.50           1509        9969.00     43487.39
 1035.08        2971.75           1513        8201.00     35761.98
 1035.12        2972.00           1516        6578.00     28673.30
 1035.15        2972.25           1519        5052.00     22011.04
 1035.18        2972.50           1523        3134.00     13641.15
 1035.21        2972.75           1526        1743.00      7573.65
 1035.24        2973.00           1529         838.00      3627.25
 1035.27        2973.25           1533         428.00      1839.68
 1035.30        2973.50           1536         325.00      1390.64
 1035.33        2973.75           1539         285.00      1216.26
 1035.36        2974.00           1543         233.00       989.57
 1035.39        2974.25           1546         186.00       784.67
 1035.43        2974.50           1549         136.00       566.71
 1035.46        2974.75           1553         102.00       418.49
 1035.49        2975.00           1556          83.00       335.66
 1035.52        2975.25           1559          71.00       283.35
 1035.55        2975.50           1563          59.00       231.04
 1035.58        2975.75           1566          60.00       235.40
 1035.61        2976.00           1569          60.00       235.40
 1035.64        2976.25           1573          61.00       239.76
 1035.67        2976.50           1576          68.00       270.27
 1035.70        2976.75           1579          63.00       248.48
 1035.74        2977.00           1583          56.00       217.96
 1035.77        2977.25           1586          61.00       239.76
 1035.80        2977.50           1590          59.00       231.04
 1035.83        2977.75           1593          64.00       252.84
 1035.86        2978.00           1596          65.00       257.19
 1035.89        2978.25           1600          62.00       244.12
 1035.92        2978.50           1603          63.00       248.48
 1035.95        2978.75           1606          52.00       200.52
 1035.98        2979.00           1610          68.00       270.27
 1036.01        2979.25           1613          53.00       204.88
 1036.04        2979.50           1616          63.00       248.48
 1036.07        2979.75           1620          63.00       248.48
 1036.11        2980.00           1623          58.00       226.68
 1036.14        2980.25           1626          59.00       231.04
 1036.17        2980.50           1630          57.00       222.32
 1036.20        2980.75           1633          60.00       235.40
 1036.23        2981.00           1637          56.00       217.96
 1036.26        2981.25           1640          61.00       239.76
 1036.29        2981.50           1643          57.00       222.32
 1036.32        2981.75           1647          67.00       265.91
 1036.35        2982.00           1650          57.00       222.32
 1036.38        2982.25           1653          60.00       235.40
 1036.41        2982.50           1657          63.00       248.48
 1036.44        2982.75           1660          53.00       204.88
 1036.48        2983.00           1663          58.00       226.68
 1036.51        2983.25           1667          57.00       222.32
 1036.54        2983.50           1670          52.00       200.52
 1036.57        2983.75           1673          60.00       235.40
 1036.60        2984.00           1677          58.00       226.68
HS scan finished at 17:16:49
end
