************************************************************
  HS Scan of (1) Internal mercury lamp
************************************************************
Integration time is 0.2294 seconds per sample
dh150117Manchester 53.47 2.23 2.750537pr1000
************************************************************
Dead Time -------------------------  3E-08 
Number of Cycles Used -------------  4 
Starting Wavelength (Angstroms) ---  2950 
Final Wavelength (Angstoms) -------  2984 
Wavelength Increment (Angstroms) --  .25 
Filter Wheel #1 Position ---------- (1) Ground quartz diffuser (ND=2.32)
Filter Wheel #2 Position ---------- (1) Neutral Density 0.494



************************************************************
HS scan start time = 05:22:24
Dark Count =  4.3 


Time (GMT)  Wavelength (Ang)  Step Number  Raw Counts  Counts/Second

  322.76        2950.00           1222          48.00       190.50
  322.83        2950.25           1226          46.00       181.78
  322.86        2950.50           1229          48.00       190.50
  322.89        2950.75           1232          46.00       181.78
  322.92        2951.00           1236          42.00       164.34
  322.96        2951.25           1239          43.00       168.70
  322.99        2951.50           1242          43.00       168.70
  323.02        2951.75           1246          43.00       168.70
  323.05        2952.00           1249          48.00       190.50
  323.08        2952.25           1252          49.00       194.86
  323.11        2952.50           1256          43.00       168.70
  323.14        2952.75           1259          39.00       151.26
  323.17        2953.00           1262          48.00       190.50
  323.20        2953.25           1266          50.00       199.22
  323.23        2953.50           1269          51.00       203.58
  323.26        2953.75           1272          47.00       186.14
  323.29        2954.00           1276          49.00       194.86
  323.32        2954.25           1279          46.00       181.78
  323.35        2954.50           1282          44.00       173.06
  323.38        2954.75           1286          46.00       181.78
  323.41        2955.00           1289          44.00       173.06
  323.45        2955.25           1292          41.00       159.98
  323.48        2955.50           1296          41.00       159.98
  323.51        2955.75           1299          43.00       168.70
  323.54        2956.00           1302          43.00       168.70
  323.57        2956.25           1306          53.00       212.29
  323.60        2956.50           1309          48.00       190.50
  323.63        2956.75           1312          38.00       146.91
  323.66        2957.00           1316          46.00       181.78
  323.69        2957.25           1319          47.00       186.14
  323.72        2957.50           1322          41.00       159.98
  323.76        2957.75           1326          46.00       181.78
  323.79        2958.00           1329          45.00       177.42
  323.82        2958.25           1332          40.00       155.62
  323.85        2958.50           1336          47.00       186.14
  323.88        2958.75           1339          44.00       173.06
  323.91        2959.00           1342          48.00       190.50
  323.94        2959.25           1346          56.00       225.37
  323.97        2959.50           1349          49.00       194.86
  324.00        2959.75           1352          63.00       255.89
  324.03        2960.00           1356          85.00       351.79
  324.06        2960.25           1359         123.00       517.44
  324.10        2960.50           1362         175.00       744.13
  324.13        2960.75           1366         218.00       931.59
  324.16        2961.00           1369         253.00      1084.17
  324.19        2961.25           1372         287.00      1232.39
  324.22        2961.50           1376         386.00      1663.99
  324.25        2961.75           1379         596.00      2579.54
  324.28        2962.00           1382        1214.00      5274.16
  324.31        2962.25           1386        2916.00     12697.51
  324.34        2962.50           1389        4372.00     19050.56
  324.37        2962.75           1392        5961.00     25986.69
  324.41        2963.00           1396        8203.00     35778.14
  324.44        2963.25           1399        9840.00     42931.03
  324.47        2963.50           1402       11390.00     49706.59
  324.50        2963.75           1406       13760.00     60071.98
  324.53        2964.00           1409       15227.00     66491.27
  324.56        2964.25           1412       16998.00     74244.08
  324.59        2964.50           1416       19154.00     83687.18
  324.62        2964.75           1419       20748.00     90672.19
  324.65        2965.00           1422       22560.00     98616.08
  324.68        2965.25           1426       24595.00    107542.10
  324.72        2965.50           1429       26230.00    114717.10
  324.75        2965.75           1432       27892.00    122013.80
  324.78        2966.00           1436       29989.00    131224.80
  324.81        2966.25           1439       31856.00    139429.90
  324.84        2966.50           1442       33445.00    146416.40
  324.87        2966.75           1446       35081.00    153612.60
  324.90        2967.00           1449       35556.00    155702.50
  324.93        2967.25           1452       35660.00    156160.10
  324.96        2967.50           1456       35586.00    155834.50
  324.99        2967.75           1459       35815.00    156842.20
  325.03        2968.00           1462       35432.00    155156.90
  325.06        2968.25           1466       34626.00    151610.90
  325.09        2968.50           1469       33245.00    145536.90
  325.12        2968.75           1472       31869.00    139487.00
  325.15        2969.00           1476       29740.00    130130.80
  325.18        2969.25           1479       28042.00    122672.50
  325.21        2969.50           1482       26344.00    115217.50
  325.24        2969.75           1486       24245.00    106006.60
  325.27        2970.00           1489       22747.00     99436.11
  325.30        2970.25           1492       20970.00     91645.25
  325.34        2970.50           1496       18896.00     82556.88
  325.37        2970.75           1499       17207.00     75159.25
  325.40        2971.00           1502       15758.00     68815.43
  325.43        2971.25           1506       13574.00     59258.27
  325.46        2971.50           1509       11704.00     51079.52
  325.49        2971.75           1513        9466.00     41296.56
  325.52        2972.00           1516        7911.00     34502.56
  325.55        2972.25           1519        6341.00     27645.85
  325.58        2972.50           1523        4114.00     17924.63
  325.61        2972.75           1526        2585.00     11253.58
  325.65        2973.00           1529        1342.00      5832.32
  325.68        2973.25           1533         521.00      2252.55
  325.71        2973.50           1536         365.00      1572.44
  325.74        2973.75           1539         300.00      1289.06
  325.77        2974.00           1543         263.00      1127.76
  325.80        2974.25           1546         206.00       879.27
  325.83        2974.50           1549         157.00       665.66
  325.86        2974.75           1553         114.00       478.21
  325.89        2975.00           1556          75.00       308.20
  325.92        2975.25           1559          57.00       229.73
  325.96        2975.50           1563          54.00       216.65
  325.99        2975.75           1566          57.00       229.73
  326.02        2976.00           1569          49.00       194.86
  326.05        2976.25           1573          39.00       151.26
  326.08        2976.50           1576          42.00       164.34
  326.11        2976.75           1579          46.00       181.78
  326.14        2977.00           1583          44.00       173.06
  326.17        2977.25           1586          40.00       155.62
  326.20        2977.50           1590          47.00       186.14
  326.23        2977.75           1593          47.00       186.14
  326.27        2978.00           1596          44.00       173.06
  326.30        2978.25           1600          41.00       159.98
  326.33        2978.50           1603          43.00       168.70
  326.36        2978.75           1606          39.00       151.26
  326.39        2979.00           1610          60.00       242.81
  326.42        2979.25           1613          49.00       194.86
  326.45        2979.50           1616          42.00       164.34
  326.48        2979.75           1620          40.00       155.62
  326.51        2980.00           1623          45.00       177.42
  326.54        2980.25           1626          46.00       181.78
  326.58        2980.50           1630          41.00       159.98
  326.61        2980.75           1633          45.00       177.42
  326.64        2981.00           1637          51.00       203.58
  326.67        2981.25           1640          43.00       168.70
  326.70        2981.50           1643          42.00       164.34
  326.73        2981.75           1647          42.00       164.34
  326.76        2982.00           1650          43.00       168.70
  326.79        2982.25           1653          39.00       151.26
  326.82        2982.50           1657          39.00       151.26
  326.85        2982.75           1660          38.00       146.91
  326.89        2983.00           1663          48.00       190.50
  326.92        2983.25           1667          45.00       177.42
  326.95        2983.50           1670          42.00       164.34
  326.98        2983.75           1673          40.00       155.62
  327.01        2984.00           1677          49.00       194.86
HS scan finished at 05:27:13
end
************************************************************
  HS Scan of (1) Internal mercury lamp
************************************************************
Integration time is 0.2294 seconds per sample
dh150117Manchester 53.47 2.23 2.804185pr1000
************************************************************
Dead Time -------------------------  3E-08 
Number of Cycles Used -------------  4 
Starting Wavelength (Angstroms) ---  2950 
Final Wavelength (Angstoms) -------  2984 
Wavelength Increment (Angstroms) --  .25 
Filter Wheel #1 Position ---------- (1) Ground quartz diffuser (ND=2.32)
Filter Wheel #2 Position ---------- (1) Neutral Density 0.494



************************************************************
HS scan start time = 17:12:01
Dark Count =  7 


Time (GMT)  Wavelength (Ang)  Step Number  Raw Counts  Counts/Second

 1032.39        2950.00           1222          39.00       139.49
 1032.46        2950.25           1226          44.00       161.29
 1032.49        2950.50           1229          54.00       204.88
 1032.52        2950.75           1232          51.00       191.81
 1032.55        2951.00           1236          49.00       183.09
 1032.58        2951.25           1239          39.00       139.49
 1032.61        2951.50           1242          38.00       135.14
 1032.64        2951.75           1246          42.00       152.57
 1032.67        2952.00           1249          45.00       165.65
 1032.70        2952.25           1252          44.00       161.29
 1032.73        2952.50           1256          44.00       161.29
 1032.76        2952.75           1259          48.00       178.73
 1032.79        2953.00           1262          41.00       148.21
 1032.83        2953.25           1266          41.00       148.21
 1032.86        2953.50           1269          51.00       191.81
 1032.89        2953.75           1272          34.00       117.70
 1032.92        2954.00           1276          45.00       165.65
 1032.95        2954.25           1279          43.00       156.93
 1032.98        2954.50           1282          44.00       161.29
 1033.01        2954.75           1286          53.00       200.52
 1033.04        2955.00           1289          42.00       152.57
 1033.07        2955.25           1292          45.00       165.65
 1033.10        2955.50           1296          42.00       152.57
 1033.14        2955.75           1299          36.00       126.42
 1033.17        2956.00           1302          49.00       183.09
 1033.20        2956.25           1306          46.00       170.01
 1033.23        2956.50           1309          43.00       156.93
 1033.26        2956.75           1312          49.00       183.09
 1033.29        2957.00           1316          46.00       170.01
 1033.32        2957.25           1319          52.00       196.17
 1033.35        2957.50           1322          40.00       143.85
 1033.38        2957.75           1326          47.00       174.37
 1033.41        2958.00           1329          42.00       152.57
 1033.44        2958.25           1332          41.00       148.21
 1033.47        2958.50           1336          45.00       165.65
 1033.50        2958.75           1339          44.00       161.29
 1033.53        2959.00           1342          44.00       161.29
 1033.57        2959.25           1346          52.00       196.17
 1033.60        2959.50           1349          54.00       204.88
 1033.63        2959.75           1352          78.00       309.51
 1033.66        2960.00           1356          95.00       383.61
 1033.69        2960.25           1359         129.00       531.83
 1033.72        2960.50           1362         161.00       671.33
 1033.75        2960.75           1366         233.00       985.21
 1033.78        2961.00           1369         273.00      1159.59
 1033.81        2961.25           1372         317.00      1351.41
 1033.84        2961.50           1376         377.00      1612.98
 1033.87        2961.75           1379         568.00      2445.69
 1033.91        2962.00           1382        1147.00      4970.23
 1033.94        2962.25           1386        2934.00     12764.26
 1033.97        2962.50           1389        4542.00     19780.70
 1034.00        2962.75           1392        6125.00     26690.94
 1034.03        2963.00           1396        8249.00     35967.30
 1034.06        2963.25           1399        9927.00     43299.46
 1034.09        2963.50           1402       11390.00     49694.78
 1034.12        2963.75           1406       13645.00     59557.06
 1034.15        2964.00           1409       15287.00     66742.05
 1034.19        2964.25           1412       16938.00     73969.55
 1034.22        2964.50           1416       19239.00     84047.75
 1034.25        2964.75           1419       21009.00     91804.37
 1034.28        2965.00           1422       22720.00     99305.87
 1034.31        2965.25           1426       24877.00    108767.60
 1034.34        2965.50           1429       26458.00    115706.10
 1034.37        2965.75           1432       28229.00    123481.90
 1034.40        2966.00           1436       30334.00    132728.90
 1034.44        2966.25           1439       31846.00    139374.00
 1034.47        2966.50           1442       33306.00    145793.20
 1034.50        2966.75           1446       34946.00    153006.70
 1034.53        2967.00           1449       35378.00    154907.40
 1034.56        2967.25           1452       35580.00    155796.20
 1034.59        2967.50           1456       35645.00    156082.20
 1034.62        2967.75           1459       35544.00    155637.80
 1034.65        2968.00           1462       35226.00    154238.60
 1034.68        2968.25           1466       34443.00    150794.00
 1034.71        2968.50           1469       33023.00    144548.80
 1034.74        2968.75           1472       31392.00    137378.50
 1034.78        2969.00           1476       29227.00    127865.30
 1034.81        2969.25           1479       27850.00    121817.50
 1034.84        2969.50           1482       26283.00    114937.90
 1034.87        2969.75           1486       24135.00    105512.20
 1034.90        2970.00           1489       22499.00     98336.76
 1034.93        2970.25           1492       21208.00     92676.66
 1034.96        2970.50           1496       18605.00     81270.27
 1034.99        2970.75           1499       16996.00     74223.51
 1035.02        2971.00           1502       15291.00     66759.56
 1035.06        2971.25           1506       13122.00     57269.20
 1035.09        2971.50           1509       11253.00     49095.80
 1035.12        2971.75           1513        9189.00     40074.31
 1035.15        2972.00           1516        7666.00     33420.59
 1035.18        2972.25           1519        5976.00     26040.39
 1035.21        2972.50           1523        3954.00     17214.64
 1035.24        2972.75           1526        2435.00     10587.50
 1035.27        2973.00           1529        1177.00      5101.04
 1035.30        2973.25           1533         484.00      2079.47
 1035.34        2973.50           1536         353.00      1508.35
 1035.37        2973.75           1539         283.00      1203.18
 1035.40        2974.00           1543         223.00       941.61
 1035.43        2974.25           1546         188.00       789.03
 1035.46        2974.50           1549         138.00       571.06
 1035.49        2974.75           1553          80.00       318.22
 1035.52        2975.00           1556          65.00       252.84
 1035.55        2975.25           1559          52.00       196.17
 1035.58        2975.50           1563          40.00       143.85
 1035.61        2975.75           1566          49.00       183.09
 1035.65        2976.00           1569          47.00       174.37
 1035.68        2976.25           1573          47.00       174.37
 1035.71        2976.50           1576          47.00       174.37
 1035.74        2976.75           1579          41.00       148.21
 1035.77        2977.00           1583          42.00       152.57
 1035.80        2977.25           1586          46.00       170.01
 1035.83        2977.50           1590          42.00       152.57
 1035.86        2977.75           1593          44.00       161.29
 1035.89        2978.00           1596          45.00       165.65
 1035.92        2978.25           1600          47.00       174.37
 1035.95        2978.50           1603          42.00       152.57
 1035.98        2978.75           1606          55.00       209.24
 1036.01        2979.00           1610          65.00       252.84
 1036.05        2979.25           1613          42.00       152.57
 1036.08        2979.50           1616          41.00       148.21
 1036.11        2979.75           1620          40.00       143.85
 1036.14        2980.00           1623          47.00       174.37
 1036.17        2980.25           1626          43.00       156.93
 1036.20        2980.50           1630          48.00       178.73
 1036.23        2980.75           1633          38.00       135.14
 1036.26        2981.00           1637          44.00       161.29
 1036.29        2981.25           1640          43.00       156.93
 1036.32        2981.50           1643          47.00       174.37
 1036.35        2981.75           1647          51.00       191.81
 1036.38        2982.00           1650          44.00       161.29
 1036.41        2982.25           1653          50.00       187.45
 1036.44        2982.50           1657          36.00       126.42
 1036.48        2982.75           1660          45.00       165.65
 1036.51        2983.00           1663          35.00       122.06
 1036.54        2983.25           1667          53.00       200.52
 1036.57        2983.50           1670          35.00       122.06
 1036.60        2983.75           1673          37.00       130.78
 1036.63        2984.00           1677          39.00       139.49
HS scan finished at 17:16:51
end
