************************************************************
  HS Scan of (1) Internal mercury lamp
************************************************************
Integration time is 0.2294 seconds per sample
dh120117Manchester 53.47 2.23 2.750537pr1000
************************************************************
Dead Time -------------------------  3E-08 
Number of Cycles Used -------------  4 
Starting Wavelength (Angstroms) ---  2950 
Final Wavelength (Angstoms) -------  2984 
Wavelength Increment (Angstroms) --  .25 
Filter Wheel #1 Position ---------- (1) Ground quartz diffuser (ND=2.32)
Filter Wheel #2 Position ---------- (1) Neutral Density 0.494



************************************************************
HS scan start time = 05:23:59
Dark Count =  6.9 


Time (GMT)  Wavelength (Ang)  Step Number  Raw Counts  Counts/Second

  324.36        2950.00           1222          49.00       183.52
  324.43        2950.25           1226          52.00       196.60
  324.46        2950.50           1229          44.00       161.73
  324.49        2950.75           1232          39.00       139.93
  324.52        2951.00           1236          39.00       139.93
  324.55        2951.25           1239          40.00       144.29
  324.58        2951.50           1242          52.00       196.60
  324.61        2951.75           1246          48.00       179.16
  324.64        2952.00           1249          42.00       153.01
  324.67        2952.25           1252          46.00       170.45
  324.70        2952.50           1256          52.00       196.60
  324.73        2952.75           1259          43.00       157.37
  324.76        2953.00           1262          45.00       166.09
  324.80        2953.25           1266          48.00       179.16
  324.83        2953.50           1269          46.00       170.45
  324.86        2953.75           1272          51.00       192.24
  324.89        2954.00           1276          46.00       170.45
  324.92        2954.25           1279          45.00       166.09
  324.95        2954.50           1282          35.00       122.49
  324.98        2954.75           1286          41.00       148.65
  325.01        2955.00           1289          37.00       131.21
  325.04        2955.25           1292          44.00       161.73
  325.07        2955.50           1296          45.00       166.09
  325.11        2955.75           1299          47.00       174.80
  325.14        2956.00           1302          45.00       166.09
  325.17        2956.25           1306          38.00       135.57
  325.20        2956.50           1309          43.00       157.37
  325.23        2956.75           1312          44.00       161.73
  325.26        2957.00           1316          38.00       135.57
  325.29        2957.25           1319          45.00       166.09
  325.32        2957.50           1322          48.00       179.16
  325.35        2957.75           1326          49.00       183.52
  325.38        2958.00           1329          43.00       157.37
  325.41        2958.25           1332          45.00       166.09
  325.44        2958.50           1336          45.00       166.09
  325.48        2958.75           1339          47.00       174.80
  325.51        2959.00           1342          44.00       161.73
  325.54        2959.25           1346          60.00       231.48
  325.57        2959.50           1349          54.00       205.32
  325.60        2959.75           1352          59.00       227.12
  325.63        2960.00           1356          96.00       388.41
  325.66        2960.25           1359         116.00       475.60
  325.69        2960.50           1362         145.00       602.02
  325.72        2960.75           1366         193.00       811.27
  325.75        2961.00           1369         257.00      1090.27
  325.78        2961.25           1372         285.00      1212.34
  325.81        2961.50           1376         387.00      1657.01
  325.85        2961.75           1379         530.00      2280.45
  325.88        2962.00           1382        1030.00      4460.49
  325.91        2962.25           1386        2507.00     10902.00
  325.94        2962.50           1389        4131.00     17987.47
  325.97        2962.75           1392        5698.00     24827.12
  326.00        2963.00           1396        7949.00     34657.20
  326.03        2963.25           1399        9398.00     40988.03
  326.06        2963.50           1402       11194.00     48838.29
  326.09        2963.75           1406       13349.00     58262.60
  326.12        2964.00           1409       14974.00     65372.64
  326.15        2964.25           1412       16781.00     73282.56
  326.19        2964.50           1416       18965.00     82847.77
  326.22        2964.75           1419       20478.00     89477.44
  326.25        2965.00           1422       22138.00     96754.28
  326.28        2965.25           1426       24439.00    106846.30
  326.31        2965.50           1429       25911.00    113305.60
  326.34        2965.75           1432       27625.00    120830.00
  326.37        2966.00           1436       29976.00    131156.30
  326.40        2966.25           1439       31789.00    139123.90
  326.43        2966.50           1442       33165.00    145173.60
  326.47        2966.75           1446       34873.00    152686.00
  326.50        2967.00           1449       35573.00    155765.90
  326.53        2967.25           1452       35854.00    157002.40
  326.56        2967.50           1456       35931.00    157341.20
  326.59        2967.75           1459       35737.00    156487.50
  326.62        2968.00           1462       35911.00    157253.20
  326.65        2968.25           1466       35122.00    153781.50
  326.68        2968.50           1469       33886.00    148344.40
  326.71        2968.75           1472       32589.00    142640.90
  326.74        2969.00           1476       30356.00    132826.00
  326.77        2969.25           1479       28644.00    125304.90
  326.81        2969.50           1482       26870.00    117515.10
  326.84        2969.75           1486       24821.00    108522.30
  326.87        2970.00           1489       23006.00    100560.60
  326.90        2970.25           1492       21494.00     93930.84
  326.93        2970.50           1496       19588.00     85577.31
  326.96        2970.75           1499       17915.00     78248.43
  326.99        2971.00           1502       16199.00     70734.52
  327.02        2971.25           1506       14066.00     61399.39
  327.05        2971.50           1509       12338.00     53840.60
  327.08        2971.75           1513       10138.00     44222.10
  327.11        2972.00           1516        8507.00     37094.88
  327.15        2972.25           1519        6817.00     29713.05
  327.18        2972.50           1523        4650.00     20252.49
  327.21        2972.75           1526        3044.00     13244.58
  327.24        2973.00           1529        1672.00      7260.08
  327.27        2973.25           1533         586.00      2524.60
  327.30        2973.50           1536         368.00      1574.18
  327.33        2973.75           1539         310.00      1321.33
  327.36        2974.00           1543         259.00      1098.99
  327.39        2974.25           1546         187.00       785.11
  327.42        2974.50           1549         150.00       623.81
  327.45        2974.75           1553          93.00       375.33
  327.49        2975.00           1556          63.00       244.55
  327.52        2975.25           1559          50.00       187.88
  327.55        2975.50           1563          49.00       183.52
  327.58        2975.75           1566          46.00       170.45
  327.61        2976.00           1569          52.00       196.60
  327.64        2976.25           1573          55.00       209.68
  327.67        2976.50           1576          43.00       157.37
  327.70        2976.75           1579          48.00       179.16
  327.73        2977.00           1583          46.00       170.45
  327.76        2977.25           1586          42.00       153.01
  327.80        2977.50           1590          48.00       179.16
  327.83        2977.75           1593          42.00       153.01
  327.86        2978.00           1596          45.00       166.09
  327.89        2978.25           1600          41.00       148.65
  327.92        2978.50           1603          47.00       174.80
  327.95        2978.75           1606          51.00       192.24
  327.98        2979.00           1610          42.00       153.01
  328.01        2979.25           1613          42.00       153.01
  328.04        2979.50           1616          51.00       192.24
  328.07        2979.75           1620          53.00       200.96
  328.10        2980.00           1623          48.00       179.16
  328.13        2980.25           1626          49.00       183.52
  328.16        2980.50           1630          41.00       148.65
  328.19        2980.75           1633          51.00       192.24
  328.22        2981.00           1637          39.00       139.93
  328.26        2981.25           1640          47.00       174.80
  328.29        2981.50           1643          43.00       157.37
  328.32        2981.75           1647          46.00       170.45
  328.35        2982.00           1650          39.00       139.93
  328.38        2982.25           1653          47.00       174.80
  328.41        2982.50           1657          42.00       153.01
  328.44        2982.75           1660          50.00       187.88
  328.47        2983.00           1663          39.00       139.93
  328.50        2983.25           1667          36.00       126.85
  328.53        2983.50           1670          38.00       135.57
  328.56        2983.75           1673          46.00       170.45
  328.59        2984.00           1677          37.00       131.21
HS scan finished at 05:28:48
end
************************************************************
  HS Scan of (1) Internal mercury lamp
************************************************************
Integration time is 0.2294 seconds per sample
dh120117Manchester 53.47 2.23 2.750537pr1000
************************************************************
Dead Time -------------------------  3E-08 
Number of Cycles Used -------------  4 
Starting Wavelength (Angstroms) ---  2950 
Final Wavelength (Angstoms) -------  2984 
Wavelength Increment (Angstroms) --  .25 
Filter Wheel #1 Position ---------- (1) Ground quartz diffuser (ND=2.32)
Filter Wheel #2 Position ---------- (1) Neutral Density 0.494



************************************************************
HS scan start time = 17:12:05
Dark Count =  7.3 


Time (GMT)  Wavelength (Ang)  Step Number  Raw Counts  Counts/Second

 1032.45        2950.00           1222          45.00       164.34
 1032.52        2950.25           1226          39.00       138.19
 1032.55        2950.50           1229          47.00       173.06
 1032.58        2950.75           1232          46.00       168.70
 1032.61        2951.00           1236          47.00       173.06
 1032.64        2951.25           1239          46.00       168.70
 1032.67        2951.50           1242          44.00       159.98
 1032.70        2951.75           1246          45.00       164.34
 1032.73        2952.00           1249          43.00       155.62
 1032.76        2952.25           1252          44.00       159.98
 1032.79        2952.50           1256          39.00       138.19
 1032.83        2952.75           1259          43.00       155.62
 1032.86        2953.00           1262          43.00       155.62
 1032.89        2953.25           1266          41.00       146.91
 1032.92        2953.50           1269          44.00       159.98
 1032.95        2953.75           1272          45.00       164.34
 1032.98        2954.00           1276          40.00       142.55
 1033.01        2954.25           1279          47.00       173.06
 1033.04        2954.50           1282          42.00       151.26
 1033.07        2954.75           1286          41.00       146.91
 1033.10        2955.00           1289          54.00       203.58
 1033.14        2955.25           1292          42.00       151.26
 1033.17        2955.50           1296          54.00       203.58
 1033.20        2955.75           1299          47.00       173.06
 1033.23        2956.00           1302          45.00       164.34
 1033.26        2956.25           1306          43.00       155.62
 1033.29        2956.50           1309          40.00       142.55
 1033.32        2956.75           1312          51.00       190.50
 1033.35        2957.00           1316          49.00       181.78
 1033.38        2957.25           1319          42.00       151.26
 1033.41        2957.50           1322          46.00       168.70
 1033.44        2957.75           1326          40.00       142.55
 1033.47        2958.00           1329          47.00       173.06
 1033.51        2958.25           1332          41.00       146.91
 1033.54        2958.50           1336          49.00       181.78
 1033.57        2958.75           1339          46.00       168.70
 1033.60        2959.00           1342          49.00       181.78
 1033.63        2959.25           1346          52.00       194.86
 1033.66        2959.50           1349          62.00       238.45
 1033.69        2959.75           1352          64.00       247.17
 1033.72        2960.00           1356          98.00       395.38
 1033.75        2960.25           1359         129.00       530.52
 1033.78        2960.50           1362         159.00       661.30
 1033.81        2960.75           1366         234.00       988.26
 1033.85        2961.00           1369         291.00      1236.75
 1033.88        2961.25           1372         317.00      1350.10
 1033.91        2961.50           1376         424.00      1816.58
 1033.94        2961.75           1379         616.00      2653.66
 1033.97        2962.00           1382        1196.00      5182.58
 1034.00        2962.25           1386        2803.00     12191.47
 1034.03        2962.50           1389        4408.00     19194.57
 1034.06        2962.75           1392        5864.00     25550.09
 1034.09        2963.00           1396        7992.00     34843.29
 1034.12        2963.25           1399        9760.00     42568.28
 1034.15        2963.50           1402       11595.00     50589.80
 1034.19        2963.75           1406       13853.00     60465.74
 1034.22        2964.00           1409       15533.00     67817.44
 1034.25        2964.25           1412       17384.00     75921.21
 1034.28        2964.50           1416       19536.00     85347.72
 1034.31        2964.75           1419       21333.00     93223.30
 1034.34        2965.00           1422       22816.00     99725.54
 1034.37        2965.25           1426       25114.00    109806.20
 1034.40        2965.50           1429       26623.00    116429.10
 1034.43        2965.75           1432       28366.00    124082.20
 1034.46        2966.00           1436       30332.00    132718.80
 1034.50        2966.25           1439       31977.00    139948.60
 1034.53        2966.50           1442       33559.00    146904.50
 1034.56        2966.75           1446       35256.00    154369.30
 1034.59        2967.00           1449       35684.00    156252.50
 1034.62        2967.25           1452       36009.00    157682.70
 1034.65        2967.50           1456       35670.00    156190.90
 1034.68        2967.75           1459       36063.00    157920.30
 1034.71        2968.00           1462       35477.00    155341.70
 1034.74        2968.25           1466       34655.00    151725.20
 1034.77        2968.50           1469       33283.00    145690.80
 1034.80        2968.75           1472       31896.00    139592.50
 1034.84        2969.00           1476       29767.00    130236.30
 1034.87        2969.25           1479       27960.00    122299.20
 1034.90        2969.50           1482       26445.00    115647.70
 1034.93        2969.75           1486       24234.00    105945.20
 1034.96        2970.00           1489       22583.00     98703.78
 1034.99        2970.25           1492       20844.00     91079.82
 1035.02        2970.50           1496       18770.00     81991.75
 1035.05        2970.75           1499       17248.00     75325.66
 1035.08        2971.00           1502       15597.00     68097.57
 1035.12        2971.25           1506       13393.00     58453.33
 1035.15        2971.50           1509       11745.00     51245.68
 1035.18        2971.75           1513        9701.00     42310.43
 1035.21        2972.00           1516        8060.00     35140.35
 1035.24        2972.25           1519        6379.00     27798.68
 1035.27        2972.50           1523        4181.00     18203.92
 1035.30        2972.75           1526        2632.00     11445.52
 1035.33        2973.00           1529        1331.00      5771.27
 1035.36        2973.25           1533         509.00      2187.15
 1035.40        2973.50           1536         342.00      1459.09
 1035.43        2973.75           1539         291.00      1236.75
 1035.46        2974.00           1543         237.00      1001.34
 1035.49        2974.25           1546         171.00       713.62
 1035.52        2974.50           1549         138.00       569.76
 1035.55        2974.75           1553          72.00       282.04
 1035.58        2975.00           1556          64.00       247.17
 1035.61        2975.25           1559          51.00       190.50
 1035.64        2975.50           1563          52.00       194.86
 1035.67        2975.75           1566          43.00       155.62
 1035.70        2976.00           1569          45.00       164.34
 1035.73        2976.25           1573          51.00       190.50
 1035.76        2976.50           1576          46.00       168.70
 1035.80        2976.75           1579          45.00       164.34
 1035.83        2977.00           1583          48.00       177.42
 1035.86        2977.25           1586          45.00       164.34
 1035.89        2977.50           1590          50.00       186.14
 1035.92        2977.75           1593          44.00       159.98
 1035.95        2978.00           1596          47.00       173.06
 1035.98        2978.25           1600          43.00       155.62
 1036.01        2978.50           1603          40.00       142.55
 1036.04        2978.75           1606          42.00       151.26
 1036.07        2979.00           1610          46.00       168.70
 1036.10        2979.25           1613          39.00       138.19
 1036.13        2979.50           1616          48.00       177.42
 1036.16        2979.75           1620          45.00       164.34
 1036.20        2980.00           1623          44.00       159.98
 1036.23        2980.25           1626          40.00       142.55
 1036.26        2980.50           1630          48.00       177.42
 1036.29        2980.75           1633          41.00       146.91
 1036.32        2981.00           1637          46.00       168.70
 1036.35        2981.25           1640          44.00       159.98
 1036.38        2981.50           1643          44.00       159.98
 1036.41        2981.75           1647          46.00       168.70
 1036.44        2982.00           1650          41.00       146.91
 1036.47        2982.25           1653          45.00       164.34
 1036.50        2982.50           1657          36.00       125.11
 1036.53        2982.75           1660          50.00       186.14
 1036.56        2983.00           1663          44.00       159.98
 1036.60        2983.25           1667          46.00       168.70
 1036.63        2983.50           1670          54.00       203.58
 1036.66        2983.75           1673          41.00       146.91
 1036.69        2984.00           1677          41.00       146.91
HS scan finished at 17:16:54
end
