************************************************************
  HS Scan of (1) Internal mercury lamp
************************************************************
Integration time is 0.2294 seconds per sample
dh130119Manchester 53.47 2.23 2.804185pr1000
************************************************************
Dead Time -------------------------  3E-08 
Number of Cycles Used -------------  4 
Starting Wavelength (Angstroms) ---  2950 
Final Wavelength (Angstoms) -------  2984 
Wavelength Increment (Angstroms) --  .25 
Filter Wheel #1 Position ---------- (1) Ground quartz diffuser (ND=2.32)
Filter Wheel #2 Position ---------- (1) Neutral Density 0.494



************************************************************
HS scan start time = 05:23:47
Dark Count =  5.9 


Time (GMT)  Wavelength (Ang)  Step Number  Raw Counts  Counts/Second

  324.15        2950.00           1222          56.00       218.40
  324.21        2950.25           1226          49.00       187.88
  324.24        2950.50           1229          61.00       240.19
  324.27        2950.75           1232          57.00       222.76
  324.30        2951.00           1236          51.00       196.60
  324.34        2951.25           1239          58.00       227.12
  324.37        2951.50           1242          57.00       222.76
  324.40        2951.75           1246          56.00       218.40
  324.43        2952.00           1249          58.00       227.12
  324.46        2952.25           1252          52.00       200.96
  324.49        2952.50           1256          53.00       205.32
  324.52        2952.75           1259          58.00       227.12
  324.55        2953.00           1262          58.00       227.12
  324.58        2953.25           1266          53.00       205.32
  324.62        2953.50           1269          58.00       227.12
  324.65        2953.75           1272          57.00       222.76
  324.68        2954.00           1276          67.00       266.35
  324.71        2954.25           1279          55.00       214.04
  324.74        2954.50           1282          57.00       222.76
  324.77        2954.75           1286          49.00       187.88
  324.80        2955.00           1289          57.00       222.76
  324.83        2955.25           1292          54.00       209.68
  324.86        2955.50           1296          57.00       222.76
  324.89        2955.75           1299          52.00       200.96
  324.92        2956.00           1302          52.00       200.96
  324.95        2956.25           1306          49.00       187.88
  324.98        2956.50           1309          66.00       261.99
  325.01        2956.75           1312          62.00       244.55
  325.04        2957.00           1316          53.00       205.32
  325.08        2957.25           1319          48.00       183.52
  325.11        2957.50           1322          57.00       222.76
  325.14        2957.75           1326          78.00       314.30
  325.17        2958.00           1329          54.00       209.68
  325.20        2958.25           1332          55.00       214.04
  325.23        2958.50           1336          47.00       179.16
  325.26        2958.75           1339          55.00       214.04
  325.29        2959.00           1342          54.00       209.68
  325.32        2959.25           1346          55.00       214.04
  325.35        2959.50           1349          59.00       231.48
  325.38        2959.75           1352          59.00       231.48
  325.41        2960.00           1356          80.00       323.02
  325.44        2960.25           1359         101.00       414.56
  325.48        2960.50           1362         122.00       506.11
  325.51        2960.75           1366         159.00       667.41
  325.54        2961.00           1369         191.00       806.91
  325.57        2961.25           1372         236.00      1003.08
  325.60        2961.50           1376         284.00      1212.34
  325.63        2961.75           1379         333.00      1425.95
  325.66        2962.00           1382         507.00      2184.54
  325.69        2962.25           1386        1481.00      6431.49
  325.72        2962.50           1389        2577.00     11211.71
  325.76        2962.75           1392        3830.00     16678.35
  325.79        2963.00           1396        5333.00     23238.08
  325.82        2963.25           1399        6464.00     28175.94
  325.85        2963.50           1402        7441.00     32442.63
  325.88        2963.75           1406        9179.00     40035.42
  325.91        2964.00           1409       10361.00     45201.19
  325.94        2964.25           1412       11481.00     50097.47
  325.97        2964.50           1416       13186.00     57553.95
  326.00        2964.75           1419       14381.00     62782.05
  326.04        2965.00           1422       15575.00     68007.40
  326.07        2965.25           1426       17104.00     74701.22
  326.10        2965.50           1429       18282.00     79860.25
  326.13        2965.75           1432       19586.00     85572.93
  326.16        2966.00           1436       21002.00     91778.51
  326.19        2966.25           1439       22218.00     97109.43
  326.22        2966.50           1442       23258.00    101670.10
  326.25        2966.75           1446       24520.00    107206.10
  326.28        2967.00           1449       25024.00    109417.40
  326.32        2967.25           1452       25227.00    110308.20
  326.35        2967.50           1456       25295.00    110606.60
  326.38        2967.75           1459       25357.00    110878.70
  326.41        2968.00           1462       25165.00    110036.10
  326.44        2968.25           1466       24768.00    108294.20
  326.47        2968.50           1469       23840.00    104222.90
  326.50        2968.75           1472       22816.00     99731.69
  326.53        2969.00           1476       21445.00     93720.42
  326.56        2969.25           1479       20243.00     88451.92
  326.60        2969.50           1482       19091.00     83404.16
  326.63        2969.75           1486       17514.00     76496.63
  326.66        2970.00           1489       16362.00     71452.48
  326.69        2970.25           1492       15257.00     66615.56
  326.72        2970.50           1496       13693.00     59771.87
  326.75        2970.75           1499       12726.00     55541.90
  326.78        2971.00           1502       11462.00     50014.40
  326.81        2971.25           1506        9983.00     43549.01
  326.84        2971.50           1509        8693.00     37911.88
  326.87        2971.75           1513        7132.00     31093.07
  326.90        2972.00           1516        6044.00     26342.08
  326.93        2972.25           1519        4913.00     21404.76
  326.97        2972.50           1523        3354.00     14601.43
  327.00        2972.75           1526        2253.00      9798.43
  327.03        2973.00           1529        1204.00      5223.57
  327.06        2973.25           1533         453.00      1949.11
  327.09        2973.50           1536         302.00      1290.81
  327.12        2973.75           1539         243.00      1033.60
  327.15        2974.00           1543         207.00       876.66
  327.18        2974.25           1546         157.00       658.69
  327.21        2974.50           1549         122.00       506.11
  327.24        2974.75           1553          95.00       388.41
  327.28        2975.00           1556          82.00       331.74
  327.31        2975.25           1559          63.00       248.91
  327.34        2975.50           1563          53.00       205.32
  327.37        2975.75           1566          50.00       192.24
  327.40        2976.00           1569          54.00       209.68
  327.43        2976.25           1573          54.00       209.68
  327.46        2976.50           1576          57.00       222.76
  327.49        2976.75           1579          50.00       192.24
  327.52        2977.00           1583          52.00       200.96
  327.55        2977.25           1586          45.00       170.45
  327.58        2977.50           1590          50.00       192.24
  327.61        2977.75           1593          56.00       218.40
  327.64        2978.00           1596          54.00       209.68
  327.67        2978.25           1600          53.00       205.32
  327.71        2978.50           1603          54.00       209.68
  327.74        2978.75           1606          46.00       174.80
  327.77        2979.00           1610          46.00       174.80
  327.80        2979.25           1613          48.00       183.52
  327.83        2979.50           1616          59.00       231.48
  327.86        2979.75           1620          55.00       214.04
  327.89        2980.00           1623          52.00       200.96
  327.92        2980.25           1626          50.00       192.24
  327.95        2980.50           1630          48.00       183.52
  327.98        2980.75           1633          52.00       200.96
  328.01        2981.00           1637          52.00       200.96
  328.04        2981.25           1640          52.00       200.96
  328.07        2981.50           1643          49.00       187.88
  328.11        2981.75           1647          55.00       214.04
  328.14        2982.00           1650          46.00       174.80
  328.17        2982.25           1653          49.00       187.88
  328.20        2982.50           1657          46.00       174.80
  328.23        2982.75           1660          47.00       179.16
  328.26        2983.00           1663          44.00       166.09
  328.29        2983.25           1667          51.00       196.60
  328.32        2983.50           1670          51.00       196.60
  328.35        2983.75           1673          47.00       179.16
  328.39        2984.00           1677          53.00       205.32
HS scan finished at 05:28:36
end
************************************************************
  HS Scan of (1) Internal mercury lamp
************************************************************
Integration time is 0.2294 seconds per sample
dh130119Manchester 53.47 2.23 2.804185pr1000
************************************************************
Dead Time -------------------------  3E-08 
Number of Cycles Used -------------  4 
Starting Wavelength (Angstroms) ---  2950 
Final Wavelength (Angstoms) -------  2984 
Wavelength Increment (Angstroms) --  .25 
Filter Wheel #1 Position ---------- (1) Ground quartz diffuser (ND=2.32)
Filter Wheel #2 Position ---------- (1) Neutral Density 0.494



************************************************************
HS scan start time = 17:12:04
Dark Count =  6.2 


Time (GMT)  Wavelength (Ang)  Step Number  Raw Counts  Counts/Second

 1032.44        2950.00           1222          58.00       225.81
 1032.51        2950.25           1226          51.00       195.29
 1032.54        2950.50           1229          51.00       195.29
 1032.57        2950.75           1232          53.00       204.01
 1032.60        2951.00           1236          58.00       225.81
 1032.63        2951.25           1239          54.00       208.37
 1032.66        2951.50           1242          58.00       225.81
 1032.69        2951.75           1246          54.00       208.37
 1032.72        2952.00           1249          62.00       243.25
 1032.75        2952.25           1252          57.00       221.45
 1032.78        2952.50           1256          48.00       182.22
 1032.81        2952.75           1259          55.00       212.73
 1032.84        2953.00           1262          56.00       217.09
 1032.87        2953.25           1266          56.00       217.09
 1032.90        2953.50           1269          56.00       217.09
 1032.94        2953.75           1272          58.00       225.81
 1032.97        2954.00           1276          46.00       173.50
 1033.00        2954.25           1279          52.00       199.65
 1033.03        2954.50           1282          57.00       221.45
 1033.06        2954.75           1286          54.00       208.37
 1033.09        2955.00           1289          51.00       195.29
 1033.12        2955.25           1292          48.00       182.22
 1033.15        2955.50           1296          54.00       208.37
 1033.18        2955.75           1299          52.00       199.65
 1033.21        2956.00           1302          48.00       182.22
 1033.24        2956.25           1306          50.00       190.93
 1033.28        2956.50           1309          62.00       243.25
 1033.31        2956.75           1312          66.00       260.68
 1033.34        2957.00           1316          61.00       238.89
 1033.37        2957.25           1319          56.00       217.09
 1033.40        2957.50           1322          57.00       221.45
 1033.43        2957.75           1326          45.00       169.14
 1033.46        2958.00           1329          52.00       199.65
 1033.49        2958.25           1332          59.00       230.17
 1033.52        2958.50           1336          60.00       234.53
 1033.55        2958.75           1339          53.00       204.01
 1033.58        2959.00           1342          47.00       177.86
 1033.61        2959.25           1346          55.00       212.73
 1033.65        2959.50           1349          62.00       243.25
 1033.68        2959.75           1352          71.00       282.48
 1033.71        2960.00           1356          83.00       334.79
 1033.74        2960.25           1359         111.00       456.85
 1033.77        2960.50           1362         142.00       591.99
 1033.80        2960.75           1366         178.00       748.93
 1033.83        2961.00           1369         201.00       849.19
 1033.86        2961.25           1372         223.00       945.10
 1033.89        2961.50           1376         275.00      1171.79
 1033.92        2961.75           1379         389.00      1668.78
 1033.95        2962.00           1382         750.00      3242.69
 1033.98        2962.25           1386        1945.00      8453.76
 1034.01        2962.50           1389        2983.00     12981.52
 1034.05        2962.75           1392        4097.00     17842.15
 1034.08        2963.00           1396        5579.00     24310.66
 1034.11        2963.25           1399        6662.00     29039.24
 1034.14        2963.50           1402        8005.00     34904.88
 1034.17        2963.75           1406        9608.00     41908.81
 1034.20        2964.00           1409       10873.00     47438.00
 1034.23        2964.25           1412       12018.00     52444.26
 1034.26        2964.50           1416       13582.00     59284.95
 1034.29        2964.75           1419       14724.00     64281.65
 1034.33        2965.00           1422       15852.00     69218.57
 1034.36        2965.25           1426       17471.00     76307.00
 1034.39        2965.50           1429       18605.00     81273.78
 1034.42        2965.75           1432       19665.00     85917.78
 1034.45        2966.00           1436       21384.00     93451.71
 1034.48        2966.25           1439       22412.00     97958.78
 1034.51        2966.50           1442       23370.00    102160.10
 1034.54        2966.75           1446       24648.00    107766.30
 1034.57        2967.00           1449       24876.00    108766.70
 1034.60        2967.25           1452       25036.00    109468.80
 1034.64        2967.50           1456       25079.00    109657.50
 1034.67        2967.75           1459       25076.00    109644.30
 1034.70        2968.00           1462       25033.00    109455.60
 1034.73        2968.25           1466       24471.00    106989.80
 1034.76        2968.50           1469       23549.00    102945.20
 1034.79        2968.75           1472       22446.00     98107.87
 1034.82        2969.00           1476       20921.00     91422.16
 1034.85        2969.25           1479       19795.00     86487.42
 1034.88        2969.50           1482       18624.00     81357.00
 1034.91        2969.75           1486       17055.00     74485.36
 1034.95        2970.00           1489       15841.00     69170.41
 1034.98        2970.25           1492       14845.00     64811.16
 1035.01        2970.50           1496       13137.00     57338.31
 1035.04        2970.75           1499       12054.00     52601.69
 1035.07        2971.00           1502       10983.00     47918.89
 1035.10        2971.25           1506        9448.00     41209.59
 1035.13        2971.50           1509        8341.00     36372.71
 1035.16        2971.75           1513        7001.00     30519.65
 1035.19        2972.00           1516        5753.00     25070.29
 1035.22        2972.25           1519        4670.00     20342.84
 1035.26        2972.50           1523        3122.00     13587.93
 1035.29        2972.75           1526        1963.00      8532.26
 1035.32        2973.00           1529         933.00      4040.59
 1035.35        2973.25           1533         358.00      1533.64
 1035.38        2973.50           1536         258.00      1097.68
 1035.41        2973.75           1539         236.00      1001.77
 1035.44        2974.00           1543         178.00       748.93
 1035.47        2974.25           1546         150.00       626.86
 1035.50        2974.50           1549         113.00       465.57
 1035.53        2974.75           1553          81.00       326.07
 1035.56        2975.00           1556          63.00       247.60
 1035.59        2975.25           1559          56.00       217.09
 1035.63        2975.50           1563          53.00       204.01
 1035.66        2975.75           1566          52.00       199.65
 1035.69        2976.00           1569          52.00       199.65
 1035.72        2976.25           1573          51.00       195.29
 1035.75        2976.50           1576          60.00       234.53
 1035.78        2976.75           1579          57.00       221.45
 1035.81        2977.00           1583          55.00       212.73
 1035.84        2977.25           1586          52.00       199.65
 1035.87        2977.50           1590          53.00       204.01
 1035.90        2977.75           1593          49.00       186.57
 1035.93        2978.00           1596          49.00       186.57
 1035.96        2978.25           1600          52.00       199.65
 1035.99        2978.50           1603          53.00       204.01
 1036.02        2978.75           1606          47.00       177.86
 1036.05        2979.00           1610          43.00       160.42
 1036.08        2979.25           1613          49.00       186.57
 1036.12        2979.50           1616          51.00       195.29
 1036.15        2979.75           1620          46.00       173.50
 1036.18        2980.00           1623          48.00       182.22
 1036.21        2980.25           1626          42.00       156.06
 1036.24        2980.50           1630          55.00       212.73
 1036.27        2980.75           1633          53.00       204.01
 1036.30        2981.00           1637          54.00       208.37
 1036.33        2981.25           1640          50.00       190.93
 1036.36        2981.50           1643          56.00       217.09
 1036.40        2981.75           1647          48.00       182.22
 1036.43        2982.00           1650          55.00       212.73
 1036.46        2982.25           1653          52.00       199.65
 1036.49        2982.50           1657          40.00       147.34
 1036.52        2982.75           1660          47.00       177.86
 1036.55        2983.00           1663          46.00       173.50
 1036.58        2983.25           1667          41.00       151.70
 1036.61        2983.50           1670          46.00       173.50
 1036.64        2983.75           1673          51.00       195.29
 1036.67        2984.00           1677          45.00       169.14
HS scan finished at 17:16:53
end
