************************************************************
  HS Scan of (1) Internal mercury lamp
************************************************************
Integration time is 0.2294 seconds per sample
dh140117Manchester 53.47 2.23 2.750537pr1000
************************************************************
Dead Time -------------------------  3E-08 
Number of Cycles Used -------------  4 
Starting Wavelength (Angstroms) ---  2950 
Final Wavelength (Angstoms) -------  2984 
Wavelength Increment (Angstroms) --  .25 
Filter Wheel #1 Position ---------- (1) Ground quartz diffuser (ND=2.32)
Filter Wheel #2 Position ---------- (1) Neutral Density 0.494



************************************************************
HS scan start time = 05:22:59
Dark Count =  6.6 


Time (GMT)  Wavelength (Ang)  Step Number  Raw Counts  Counts/Second

  323.35        2950.00           1222          46.00       171.75
  323.42        2950.25           1226          44.00       163.03
  323.45        2950.50           1229          45.00       167.39
  323.48        2950.75           1232          40.00       145.60
  323.51        2951.00           1236          46.00       171.75
  323.55        2951.25           1239          53.00       202.27
  323.58        2951.50           1242          39.00       141.24
  323.61        2951.75           1246          42.00       154.32
  323.64        2952.00           1249          47.00       176.11
  323.67        2952.25           1252          49.00       184.83
  323.70        2952.50           1256          43.00       158.68
  323.73        2952.75           1259          52.00       197.91
  323.76        2953.00           1262          43.00       158.68
  323.79        2953.25           1266          52.00       197.91
  323.83        2953.50           1269          48.00       180.47
  323.86        2953.75           1272          49.00       184.83
  323.89        2954.00           1276          43.00       158.68
  323.92        2954.25           1279          52.00       197.91
  323.95        2954.50           1282          46.00       171.75
  323.98        2954.75           1286          44.00       163.03
  324.01        2955.00           1289          50.00       189.19
  324.04        2955.25           1292          45.00       167.39
  324.07        2955.50           1296          42.00       154.32
  324.10        2955.75           1299          43.00       158.68
  324.13        2956.00           1302          44.00       163.03
  324.17        2956.25           1306          51.00       193.55
  324.20        2956.50           1309          54.00       206.63
  324.23        2956.75           1312          40.00       145.60
  324.26        2957.00           1316          46.00       171.75
  324.29        2957.25           1319          45.00       167.39
  324.32        2957.50           1322          48.00       180.47
  324.35        2957.75           1326          46.00       171.75
  324.38        2958.00           1329          43.00       158.68
  324.41        2958.25           1332          49.00       184.83
  324.44        2958.50           1336          53.00       202.27
  324.47        2958.75           1339          44.00       163.03
  324.50        2959.00           1342          44.00       163.03
  324.54        2959.25           1346          47.00       176.11
  324.57        2959.50           1349          50.00       189.19
  324.60        2959.75           1352          68.00       267.66
  324.63        2960.00           1356          95.00       385.36
  324.66        2960.25           1359         122.00       503.06
  324.69        2960.50           1362         159.00       664.36
  324.72        2960.75           1366         231.00       978.23
  324.75        2961.00           1369         254.00      1078.50
  324.78        2961.25           1372         300.00      1279.04
  324.81        2961.50           1376         384.00      1645.24
  324.84        2961.75           1379         557.00      2399.48
  324.87        2962.00           1382        1134.00      4915.28
  324.90        2962.25           1386        2816.00     12251.23
  324.94        2962.50           1389        4428.00     19284.91
  324.97        2962.75           1392        6004.00     26164.38
  325.00        2963.00           1396        8156.00     35562.77
  325.03        2963.25           1399        9718.00     42387.79
  325.06        2963.50           1402       11473.00     50059.43
  325.09        2963.75           1406       13666.00     59650.68
  325.12        2964.00           1409       15342.00     66984.52
  325.15        2964.25           1412       17073.00     74562.43
  325.18        2964.50           1416       19378.00     84658.51
  325.22        2964.75           1419       20896.00     91310.82
  325.25        2965.00           1422       22627.00     98899.81
  325.28        2965.25           1426       24787.00    108374.50
  325.31        2965.50           1429       26533.00    116037.10
  325.34        2965.75           1432       28014.00    122539.50
  325.37        2966.00           1436       30457.00    133271.10
  325.40        2966.25           1439       32057.00    140303.40
  325.43        2966.50           1442       33478.00    146551.40
  325.46        2966.75           1446       35227.00    154244.80
  325.49        2967.00           1449       35765.00    156612.00
  325.53        2967.25           1452       35959.00    157465.70
  325.56        2967.50           1456       35991.00    157606.60
  325.59        2967.75           1459       35702.00    156334.80
  325.62        2968.00           1462       35652.00    156114.80
  325.65        2968.25           1466       34743.00    152115.40
  325.68        2968.50           1469       33186.00    145267.30
  325.71        2968.75           1472       31938.00    139780.20
  325.74        2969.00           1476       29547.00    129272.80
  325.78        2969.25           1479       28191.00    123316.80
  325.81        2969.50           1482       26532.00    116032.70
  325.84        2969.75           1486       24244.00    105992.10
  325.87        2970.00           1489       22791.00     99618.98
  325.90        2970.25           1492       21061.00     92034.06
  325.93        2970.50           1496       18881.00     82481.10
  325.96        2970.75           1499       17260.00     75381.28
  325.99        2971.00           1502       15756.00     68796.60
  326.02        2971.25           1506       13463.00     58762.62
  326.06        2971.50           1509       11807.00     51519.85
  326.09        2971.75           1513        9569.00     41736.63
  326.12        2972.00           1516        7990.00     34837.61
  326.15        2972.25           1519        6264.00     27299.60
  326.18        2972.50           1523        4040.00     17591.67
  326.21        2972.75           1526        2432.00     10576.15
  326.24        2973.00           1529        1248.00      5412.39
  326.27        2973.25           1533         525.00      2259.96
  326.30        2973.50           1536         349.00      1492.66
  326.33        2973.75           1539         298.00      1270.32
  326.36        2974.00           1543         251.00      1065.42
  326.40        2974.25           1546         191.00       803.86
  326.43        2974.50           1549         142.00       590.25
  326.46        2974.75           1553         100.00       407.15
  326.49        2975.00           1556          67.00       263.30
  326.52        2975.25           1559          49.00       184.83
  326.55        2975.50           1563          53.00       202.27
  326.58        2975.75           1566          45.00       167.39
  326.61        2976.00           1569          50.00       189.19
  326.64        2976.25           1573          47.00       176.11
  326.67        2976.50           1576          48.00       180.47
  326.70        2976.75           1579          43.00       158.68
  326.73        2977.00           1583          50.00       189.19
  326.76        2977.25           1586          43.00       158.68
  326.79        2977.50           1590          44.00       163.03
  326.82        2977.75           1593          37.00       132.52
  326.85        2978.00           1596          46.00       171.75
  326.88        2978.25           1600          45.00       167.39
  326.92        2978.50           1603          44.00       163.03
  326.95        2978.75           1606          44.00       163.03
  326.98        2979.00           1610          41.00       149.96
  327.01        2979.25           1613          42.00       154.32
  327.04        2979.50           1616          45.00       167.39
  327.07        2979.75           1620          34.00       119.44
  327.10        2980.00           1623          40.00       145.60
  327.13        2980.25           1626          48.00       180.47
  327.16        2980.50           1630          40.00       145.60
  327.19        2980.75           1633          41.00       149.96
  327.23        2981.00           1637          51.00       193.55
  327.26        2981.25           1640          52.00       197.91
  327.29        2981.50           1643          38.00       136.88
  327.32        2981.75           1647          47.00       176.11
  327.35        2982.00           1650          42.00       154.32
  327.38        2982.25           1653          43.00       158.68
  327.41        2982.50           1657          48.00       180.47
  327.44        2982.75           1660          39.00       141.24
  327.47        2983.00           1663          51.00       193.55
  327.50        2983.25           1667          42.00       154.32
  327.53        2983.50           1670          38.00       136.88
  327.57        2983.75           1673          52.00       197.91
  327.60        2984.00           1677          46.00       171.75
HS scan finished at 05:27:49
end
************************************************************
  HS Scan of (1) Internal mercury lamp
************************************************************
Integration time is 0.2294 seconds per sample
dh140117Manchester 53.47 2.23 2.750537pr1000
************************************************************
Dead Time -------------------------  3E-08 
Number of Cycles Used -------------  4 
Starting Wavelength (Angstroms) ---  2950 
Final Wavelength (Angstoms) -------  2984 
Wavelength Increment (Angstroms) --  .25 
Filter Wheel #1 Position ---------- (1) Ground quartz diffuser (ND=2.32)
Filter Wheel #2 Position ---------- (1) Neutral Density 0.494



************************************************************
HS scan start time = 17:12:01
Dark Count =  6 


Time (GMT)  Wavelength (Ang)  Step Number  Raw Counts  Counts/Second

 1032.39        2950.00           1222          44.00       165.65
 1032.46        2950.25           1226          47.00       178.73
 1032.49        2950.50           1229          47.00       178.73
 1032.52        2950.75           1232          45.00       170.01
 1032.55        2951.00           1236          41.00       152.57
 1032.58        2951.25           1239          43.00       161.29
 1032.61        2951.50           1242          49.00       187.45
 1032.65        2951.75           1246          45.00       170.01
 1032.68        2952.00           1249          44.00       165.65
 1032.71        2952.25           1252          45.00       170.01
 1032.74        2952.50           1256          48.00       183.09
 1032.77        2952.75           1259          49.00       187.45
 1032.80        2953.00           1262          46.00       174.37
 1032.83        2953.25           1266          39.00       143.85
 1032.86        2953.50           1269          47.00       178.73
 1032.89        2953.75           1272          42.00       156.93
 1032.92        2954.00           1276          43.00       161.29
 1032.95        2954.25           1279          47.00       178.73
 1032.98        2954.50           1282          51.00       196.17
 1033.01        2954.75           1286          50.00       191.81
 1033.04        2955.00           1289          50.00       191.81
 1033.08        2955.25           1292          53.00       204.88
 1033.11        2955.50           1296          39.00       143.85
 1033.14        2955.75           1299          44.00       165.65
 1033.17        2956.00           1302          46.00       174.37
 1033.20        2956.25           1306          43.00       161.29
 1033.23        2956.50           1309          46.00       174.37
 1033.26        2956.75           1312          51.00       196.17
 1033.29        2957.00           1316          49.00       187.45
 1033.32        2957.25           1319          43.00       161.29
 1033.35        2957.50           1322          43.00       161.29
 1033.39        2957.75           1326          39.00       143.85
 1033.42        2958.00           1329          42.00       156.93
 1033.45        2958.25           1332          49.00       187.45
 1033.48        2958.50           1336          43.00       161.29
 1033.51        2958.75           1339          43.00       161.29
 1033.54        2959.00           1342          43.00       161.29
 1033.57        2959.25           1346          46.00       174.37
 1033.60        2959.50           1349          53.00       204.88
 1033.63        2959.75           1352          57.00       222.32
 1033.66        2960.00           1356          86.00       348.74
 1033.69        2960.25           1359         115.00       475.16
 1033.72        2960.50           1362         161.00       675.69
 1033.76        2960.75           1366         208.00       880.58
 1033.79        2961.00           1369         241.00      1024.44
 1033.82        2961.25           1372         294.00      1255.50
 1033.85        2961.50           1376         380.00      1630.42
 1033.88        2961.75           1379         551.00      2375.93
 1033.91        2962.00           1382        1097.00      4756.56
 1033.94        2962.25           1386        2731.00     11883.05
 1033.97        2962.50           1389        4242.00     18475.80
 1034.00        2962.75           1392        5819.00     25359.30
 1034.04        2963.00           1396        7970.00     34752.86
 1034.07        2963.25           1399        9579.00     41782.95
 1034.10        2963.50           1402       11200.00     48868.46
 1034.13        2963.75           1406       13478.00     58830.86
 1034.16        2964.00           1409       15201.00     66370.03
 1034.19        2964.25           1412       16985.00     74179.72
 1034.22        2964.50           1416       19028.00     83127.71
 1034.25        2964.75           1419       20685.00     90388.63
 1034.28        2965.00           1422       22230.00     97161.62
 1034.32        2965.25           1426       24392.00    106644.10
 1034.35        2965.50           1429       26044.00    113893.30
 1034.38        2965.75           1432       27944.00    122234.70
 1034.41        2966.00           1436       30017.00    131340.40
 1034.44        2966.25           1439       31701.00    138741.10
 1034.47        2966.50           1442       33141.00    145072.00
 1034.50        2966.75           1446       34560.00    151313.10
 1034.53        2967.00           1449       35262.00    154401.40
 1034.56        2967.25           1452       35422.00    155105.40
 1034.60        2967.50           1456       35469.00    155312.20
 1034.63        2967.75           1459       35321.00    154661.00
 1034.66        2968.00           1462       35263.00    154405.90
 1034.69        2968.25           1466       34277.00    150068.20
 1034.72        2968.50           1469       33196.00    145313.90
 1034.75        2968.75           1472       31702.00    138745.40
 1034.78        2969.00           1476       29583.00    129433.60
 1034.81        2969.25           1479       27988.00    122427.90
 1034.84        2969.50           1482       26300.00    115016.90
 1034.87        2969.75           1486       24245.00    105999.10
 1034.91        2970.00           1489       22579.00     98691.94
 1034.94        2970.25           1492       21058.00     92023.53
 1034.97        2970.50           1496       19100.00     83443.15
 1035.00        2970.75           1499       17260.00     75383.90
 1035.03        2971.00           1502       15656.00     68361.50
 1035.06        2971.25           1506       13466.00     58778.36
 1035.09        2971.50           1509       11790.00     51448.14
 1035.12        2971.75           1513        9533.00     41581.92
 1035.15        2972.00           1516        8018.00     34962.55
 1035.18        2972.25           1519        6336.00     27616.60
 1035.21        2972.50           1523        4386.00     19104.23
 1035.25        2972.75           1526        2777.00     12083.72
 1035.28        2973.00           1529        1502.00      6522.64
 1035.31        2973.25           1533         530.00      2284.38
 1035.34        2973.50           1536         377.00      1617.34
 1035.37        2973.75           1539         303.00      1294.73
 1035.40        2974.00           1543         262.00      1115.99
 1035.43        2974.25           1546         200.00       845.71
 1035.46        2974.50           1549         148.00       619.02
 1035.49        2974.75           1553          93.00       379.25
 1035.52        2975.00           1556          74.00       296.43
 1035.55        2975.25           1559          65.00       257.19
 1035.58        2975.50           1563          52.00       200.52
 1035.62        2975.75           1566          52.00       200.52
 1035.65        2976.00           1569          48.00       183.09
 1035.68        2976.25           1573          49.00       187.45
 1035.71        2976.50           1576          41.00       152.57
 1035.74        2976.75           1579          44.00       165.65
 1035.77        2977.00           1583          40.00       148.21
 1035.80        2977.25           1586          50.00       191.81
 1035.83        2977.50           1590          38.00       139.49
 1035.86        2977.75           1593          41.00       152.57
 1035.89        2978.00           1596          48.00       183.09
 1035.92        2978.25           1600          44.00       165.65
 1035.96        2978.50           1603          40.00       148.21
 1035.99        2978.75           1606          40.00       148.21
 1036.02        2979.00           1610          49.00       187.45
 1036.05        2979.25           1613          44.00       165.65
 1036.08        2979.50           1616          43.00       161.29
 1036.11        2979.75           1620          45.00       170.01
 1036.14        2980.00           1623          44.00       165.65
 1036.17        2980.25           1626          39.00       143.85
 1036.20        2980.50           1630          44.00       165.65
 1036.23        2980.75           1633          46.00       174.37
 1036.26        2981.00           1637          42.00       156.93
 1036.30        2981.25           1640          45.00       170.01
 1036.33        2981.50           1643          44.00       165.65
 1036.36        2981.75           1647          39.00       143.85
 1036.39        2982.00           1650          43.00       161.29
 1036.42        2982.25           1653          45.00       170.01
 1036.45        2982.50           1657          34.00       122.06
 1036.48        2982.75           1660          45.00       170.01
 1036.51        2983.00           1663          35.00       126.42
 1036.54        2983.25           1667          44.00       165.65
 1036.57        2983.50           1670          45.00       170.01
 1036.60        2983.75           1673          55.00       213.60
 1036.63        2984.00           1677          39.00       143.85
HS scan finished at 17:16:51
end
