************************************************************
  HS Scan of (1) Internal mercury lamp
************************************************************
Integration time is 0.2294 seconds per sample
dh140119Manchester 53.47 2.23 2.804185pr1000
************************************************************
Dead Time -------------------------  3E-08 
Number of Cycles Used -------------  4 
Starting Wavelength (Angstroms) ---  2950 
Final Wavelength (Angstoms) -------  2984 
Wavelength Increment (Angstroms) --  .25 
Filter Wheel #1 Position ---------- (1) Ground quartz diffuser (ND=2.32)
Filter Wheel #2 Position ---------- (1) Neutral Density 0.494



************************************************************
HS scan start time = 05:23:16
Dark Count =  5.7 


Time (GMT)  Wavelength (Ang)  Step Number  Raw Counts  Counts/Second

  323.63        2950.00           1222          60.00       236.71
  323.70        2950.25           1226          51.00       197.47
  323.73        2950.50           1229          53.00       206.19
  323.76        2950.75           1232          59.00       232.35
  323.79        2951.00           1236          64.00       254.14
  323.82        2951.25           1239          56.00       219.27
  323.85        2951.50           1242          54.00       210.55
  323.88        2951.75           1246          49.00       188.75
  323.91        2952.00           1249          51.00       197.47
  323.95        2952.25           1252          55.00       214.91
  323.98        2952.50           1256          47.00       180.04
  324.01        2952.75           1259          58.00       227.99
  324.04        2953.00           1262          50.00       193.11
  324.07        2953.25           1266          56.00       219.27
  324.10        2953.50           1269          57.00       223.63
  324.13        2953.75           1272          50.00       193.11
  324.16        2954.00           1276          60.00       236.71
  324.19        2954.25           1279          60.00       236.71
  324.22        2954.50           1282          55.00       214.91
  324.25        2954.75           1286          50.00       193.11
  324.29        2955.00           1289          56.00       219.27
  324.32        2955.25           1292          54.00       210.55
  324.35        2955.50           1296          54.00       210.55
  324.38        2955.75           1299          50.00       193.11
  324.41        2956.00           1302          46.00       175.68
  324.44        2956.25           1306          60.00       236.71
  324.47        2956.50           1309          55.00       214.91
  324.50        2956.75           1312          53.00       206.19
  324.53        2957.00           1316          52.00       201.83
  324.56        2957.25           1319          57.00       223.63
  324.59        2957.50           1322          59.00       232.35
  324.62        2957.75           1326          60.00       236.71
  324.65        2958.00           1329          60.00       236.71
  324.68        2958.25           1332          57.00       223.63
  324.72        2958.50           1336          56.00       219.27
  324.75        2958.75           1339          51.00       197.47
  324.78        2959.00           1342          60.00       236.71
  324.81        2959.25           1346          60.00       236.71
  324.84        2959.50           1349          56.00       219.27
  324.87        2959.75           1352          68.00       271.58
  324.90        2960.00           1356          78.00       315.17
  324.93        2960.25           1359          99.00       406.72
  324.96        2960.50           1362         128.00       533.14
  324.99        2960.75           1366         169.00       711.87
  325.02        2961.00           1369         199.00       842.65
  325.05        2961.25           1372         237.00      1008.31
  325.09        2961.50           1376         274.00      1169.61
  325.12        2961.75           1379         349.00      1496.58
  325.15        2962.00           1382         585.00      2525.47
  325.18        2962.25           1386        1628.00      7073.43
  325.21        2962.50           1389        2809.00     12224.62
  325.24        2962.75           1392        3834.00     16696.68
  325.27        2963.00           1396        5396.00     23513.97
  325.30        2963.25           1399        6367.00     27753.26
  325.33        2963.50           1402        7552.00     32928.33
  325.36        2963.75           1406        9101.00     39695.46
  325.39        2964.00           1409       10276.00     44830.53
  325.42        2964.25           1412       11527.00     50299.48
  325.46        2964.50           1416       13250.00     57834.79
  325.49        2964.75           1419       14423.00     62966.70
  325.52        2965.00           1422       15520.00     67767.54
  325.55        2965.25           1426       17255.00     75363.31
  325.58        2965.50           1429       18285.00     79874.26
  325.61        2965.75           1432       19588.00     85582.57
  325.64        2966.00           1436       21149.00     92423.74
  325.67        2966.25           1439       22284.00     97399.71
  325.70        2966.50           1442       23324.00    101960.50
  325.73        2966.75           1446       24443.00    106869.10
  325.76        2967.00           1449       25136.00    109909.80
  325.79        2967.25           1452       25236.00    110348.60
  325.82        2967.50           1456       25355.00    110870.80
  325.86        2967.75           1459       25151.00    109975.60
  325.89        2968.00           1462       25256.00    110436.30
  325.92        2968.25           1466       24822.00    108532.00
  325.95        2968.50           1469       24077.00    105263.50
  325.98        2968.75           1472       22881.00    100017.60
  326.01        2969.00           1476       21418.00     93602.94
  326.04        2969.25           1479       20586.00     89956.05
  326.07        2969.50           1482       19388.00     84706.27
  326.10        2969.75           1486       17853.00     77982.15
  326.14        2970.00           1489       16539.00     72228.28
  326.17        2970.25           1492       15477.00     67579.33
  326.20        2970.50           1496       13980.00     61028.37
  326.23        2970.75           1499       12761.00     55695.87
  326.26        2971.00           1502       11669.00     50920.36
  326.29        2971.25           1506       10056.00     43868.94
  326.32        2971.50           1509        8862.00     38651.16
  326.35        2971.75           1513        7350.00     32046.05
  326.39        2972.00           1516        6244.00     27216.20
  326.42        2972.25           1519        5187.00     22601.63
  326.45        2972.50           1523        3715.00     16177.42
  326.48        2972.75           1526        2592.00     11278.01
  326.51        2973.00           1529        1466.00      6366.95
  326.54        2973.25           1533         459.00      1976.14
  326.57        2973.50           1536         273.00      1165.25
  326.60        2973.75           1539         223.00       947.28
  326.64        2974.00           1543         180.00       759.83
  326.67        2974.25           1546         136.00       568.01
  326.70        2974.50           1549         121.00       502.62
  326.73        2974.75           1553          80.00       323.89
  326.76        2975.00           1556          67.00       267.22
  326.79        2975.25           1559          64.00       254.14
  326.82        2975.50           1563          59.00       232.35
  326.85        2975.75           1566          53.00       206.19
  326.88        2976.00           1569          52.00       201.83
  326.91        2976.25           1573          52.00       201.83
  326.94        2976.50           1576          47.00       180.04
  326.97        2976.75           1579          54.00       210.55
  327.00        2977.00           1583          60.00       236.71
  327.04        2977.25           1586          53.00       206.19
  327.07        2977.50           1590          50.00       193.11
  327.10        2977.75           1593          54.00       210.55
  327.13        2978.00           1596          51.00       197.47
  327.16        2978.25           1600          46.00       175.68
  327.19        2978.50           1603          54.00       210.55
  327.22        2978.75           1606          48.00       184.40
  327.25        2979.00           1610          51.00       197.47
  327.28        2979.25           1613          48.00       184.40
  327.31        2979.50           1616          53.00       206.19
  327.34        2979.75           1620          53.00       206.19
  327.37        2980.00           1623          56.00       219.27
  327.40        2980.25           1626          59.00       232.35
  327.44        2980.50           1630          59.00       232.35
  327.47        2980.75           1633          57.00       223.63
  327.50        2981.00           1637          46.00       175.68
  327.53        2981.25           1640          50.00       193.11
  327.56        2981.50           1643          47.00       180.04
  327.59        2981.75           1647          47.00       180.04
  327.62        2982.00           1650          44.00       166.96
  327.65        2982.25           1653          45.00       171.32
  327.68        2982.50           1657          55.00       214.91
  327.71        2982.75           1660          48.00       184.40
  327.74        2983.00           1663          48.00       184.40
  327.77        2983.25           1667          55.00       214.91
  327.80        2983.50           1670          58.00       227.99
  327.83        2983.75           1673          52.00       201.83
  327.86        2984.00           1677          52.00       201.83
HS scan finished at 05:28:05
end
************************************************************
  HS Scan of (1) Internal mercury lamp
************************************************************
Integration time is 0.2294 seconds per sample
dh140119Manchester 53.47 2.23 2.804185pr1000
************************************************************
Dead Time -------------------------  3E-08 
Number of Cycles Used -------------  4 
Starting Wavelength (Angstroms) ---  2950 
Final Wavelength (Angstoms) -------  2984 
Wavelength Increment (Angstroms) --  .25 
Filter Wheel #1 Position ---------- (1) Ground quartz diffuser (ND=2.32)
Filter Wheel #2 Position ---------- (1) Neutral Density 0.494



************************************************************
HS scan start time = 17:12:09
Dark Count =  6.1 


Time (GMT)  Wavelength (Ang)  Step Number  Raw Counts  Counts/Second

 1032.52        2950.00           1222          60.00       234.96
 1032.58        2950.25           1226          56.00       217.53
 1032.61        2950.50           1229          56.00       217.53
 1032.65        2950.75           1232          52.00       200.09
 1032.68        2951.00           1236          62.00       243.68
 1032.71        2951.25           1239          65.00       256.76
 1032.74        2951.50           1242          58.00       226.24
 1032.77        2951.75           1246          58.00       226.24
 1032.80        2952.00           1249          54.00       208.81
 1032.83        2952.25           1252          55.00       213.17
 1032.86        2952.50           1256          64.00       252.40
 1032.89        2952.75           1259          61.00       239.32
 1032.92        2953.00           1262          53.00       204.45
 1032.95        2953.25           1266          54.00       208.81
 1032.99        2953.50           1269          48.00       182.65
 1033.02        2953.75           1272          49.00       187.01
 1033.05        2954.00           1276          53.00       204.45
 1033.08        2954.25           1279          55.00       213.17
 1033.11        2954.50           1282          55.00       213.17
 1033.14        2954.75           1286          67.00       265.48
 1033.17        2955.00           1289          53.00       204.45
 1033.20        2955.25           1292          50.00       191.37
 1033.23        2955.50           1296          54.00       208.81
 1033.26        2955.75           1299          55.00       213.17
 1033.29        2956.00           1302          52.00       200.09
 1033.32        2956.25           1306          51.00       195.73
 1033.35        2956.50           1309          65.00       256.76
 1033.39        2956.75           1312          58.00       226.24
 1033.42        2957.00           1316          55.00       213.17
 1033.45        2957.25           1319          61.00       239.32
 1033.48        2957.50           1322          55.00       213.17
 1033.51        2957.75           1326          59.00       230.60
 1033.54        2958.00           1329          68.00       269.84
 1033.57        2958.25           1332          54.00       208.81
 1033.60        2958.50           1336          62.00       243.68
 1033.63        2958.75           1339          48.00       182.65
 1033.66        2959.00           1342          63.00       248.04
 1033.69        2959.25           1346          59.00       230.60
 1033.72        2959.50           1349          68.00       269.84
 1033.76        2959.75           1352          64.00       252.40
 1033.79        2960.00           1356          89.00       361.38
 1033.82        2960.25           1359         110.00       452.93
 1033.85        2960.50           1362         120.00       496.52
 1033.88        2960.75           1366         161.00       675.25
 1033.91        2961.00           1369         204.00       862.71
 1033.94        2961.25           1372         240.00      1019.65
 1033.97        2961.50           1376         284.00      1211.47
 1034.00        2961.75           1379         399.00      1712.82
 1034.03        2962.00           1382         863.00      3735.82
 1034.06        2962.25           1386        2103.00      9143.31
 1034.09        2962.50           1389        3136.00     13649.44
 1034.12        2962.75           1392        4207.00     18322.62
 1034.15        2963.00           1396        5545.00     24162.67
 1034.19        2963.25           1399        6683.00     29131.38
 1034.22        2963.50           1402        7894.00     34420.45
 1034.25        2963.75           1406        9422.00     41096.41
 1034.28        2964.00           1409       10569.00     46109.51
 1034.31        2964.25           1412       11800.00     51491.42
 1034.34        2964.50           1416       13239.00     57784.92
 1034.37        2964.75           1419       14588.00     63686.96
 1034.40        2965.00           1422       15591.00     68076.56
 1034.43        2965.25           1426       17258.00     75374.71
 1034.47        2965.50           1429       18457.00     80625.91
 1034.50        2965.75           1432       19626.00     85747.33
 1034.53        2966.00           1436       21177.00     92544.72
 1034.56        2966.25           1439       22044.00     96345.64
 1034.59        2966.50           1442       23067.00    100831.60
 1034.62        2966.75           1446       24040.00    105099.40
 1034.65        2967.00           1449       24390.00    106634.90
 1034.68        2967.25           1452       24536.00    107275.40
 1034.71        2967.50           1456       24513.00    107174.50
 1034.74        2967.75           1459       24438.00    106845.40
 1034.78        2968.00           1462       24409.00    106718.20
 1034.81        2968.25           1466       23542.00    102914.90
 1034.84        2968.50           1469       22578.00     98687.12
 1034.87        2968.75           1472       21408.00     93557.35
 1034.90        2969.00           1476       20063.00     87662.24
 1034.93        2969.25           1479       19039.00     83175.47
 1034.96        2969.50           1482       18036.00     78781.90
 1034.99        2969.75           1486       16567.00     72349.10
 1035.02        2970.00           1489       15213.00     66422.11
 1035.05        2970.25           1492       14355.00     62667.41
 1035.09        2970.50           1496       12766.00     55715.99
 1035.12        2970.75           1499       11740.00     51229.07
 1035.15        2971.00           1502       10546.00     46008.98
 1035.18        2971.25           1506        8990.00     39208.70
 1035.21        2971.50           1509        7871.00     34319.97
 1035.24        2971.75           1513        6438.00     28061.54
 1035.27        2972.00           1516        5345.00     23289.59
 1035.30        2972.25           1519        4216.00     18361.90
 1035.33        2972.50           1523        2873.00     12502.07
 1035.37        2972.75           1526        1900.00      8257.93
 1035.40        2973.00           1529         905.00      3918.94
 1035.43        2973.25           1533         354.00      1516.63
 1035.46        2973.50           1536         254.00      1080.68
 1035.49        2973.75           1539         211.00       893.22
 1035.52        2974.00           1543         170.00       714.49
 1035.55        2974.25           1546         137.00       570.63
 1035.58        2974.50           1549         119.00       492.16
 1035.61        2974.75           1553          75.00       300.35
 1035.64        2975.00           1556          58.00       226.24
 1035.67        2975.25           1559          62.00       243.68
 1035.70        2975.50           1563          50.00       191.37
 1035.73        2975.75           1566          52.00       200.09
 1035.76        2976.00           1569          54.00       208.81
 1035.80        2976.25           1573          46.00       173.93
 1035.83        2976.50           1576          49.00       187.01
 1035.86        2976.75           1579          56.00       217.53
 1035.89        2977.00           1583          51.00       195.73
 1035.92        2977.25           1586          55.00       213.17
 1035.95        2977.50           1590          62.00       243.68
 1035.98        2977.75           1593          48.00       182.65
 1036.01        2978.00           1596          52.00       200.09
 1036.04        2978.25           1600          52.00       200.09
 1036.07        2978.50           1603          51.00       195.73
 1036.11        2978.75           1606          55.00       213.17
 1036.14        2979.00           1610          55.00       213.17
 1036.17        2979.25           1613          44.00       165.21
 1036.20        2979.50           1616          45.00       169.57
 1036.23        2979.75           1620          48.00       182.65
 1036.26        2980.00           1623          53.00       204.45
 1036.29        2980.25           1626          49.00       187.01
 1036.32        2980.50           1630          49.00       187.01
 1036.35        2980.75           1633          50.00       191.37
 1036.38        2981.00           1637          55.00       213.17
 1036.41        2981.25           1640          47.00       178.29
 1036.44        2981.50           1643          43.00       160.86
 1036.48        2981.75           1647          47.00       178.29
 1036.51        2982.00           1650          48.00       182.65
 1036.54        2982.25           1653          41.00       152.14
 1036.57        2982.50           1657          50.00       191.37
 1036.60        2982.75           1660          50.00       191.37
 1036.63        2983.00           1663          49.00       187.01
 1036.66        2983.25           1667          40.00       147.78
 1036.69        2983.50           1670          50.00       191.37
 1036.72        2983.75           1673          50.00       191.37
 1036.75        2984.00           1677          45.00       169.57
HS scan finished at 17:16:58
end
