************************************************************
  HS Scan of (1) Internal mercury lamp
************************************************************
Integration time is 0.2294 seconds per sample
dh150119Manchester 53.47 2.23 2.804185pr1000
************************************************************
Dead Time -------------------------  3E-08 
Number of Cycles Used -------------  4 
Starting Wavelength (Angstroms) ---  2950 
Final Wavelength (Angstoms) -------  2984 
Wavelength Increment (Angstroms) --  .25 
Filter Wheel #1 Position ---------- (1) Ground quartz diffuser (ND=2.32)
Filter Wheel #2 Position ---------- (1) Neutral Density 0.494



************************************************************
HS scan start time = 05:22:40
Dark Count =  7.4 


Time (GMT)  Wavelength (Ang)  Step Number  Raw Counts  Counts/Second

  323.04        2950.00           1222          60.00       229.30
  323.11        2950.25           1226          55.00       207.50
  323.14        2950.50           1229          52.00       194.42
  323.17        2950.75           1232          67.00       259.81
  323.20        2951.00           1236          57.00       216.22
  323.23        2951.25           1239          57.00       216.22
  323.26        2951.50           1242          63.00       242.37
  323.29        2951.75           1246          46.00       168.27
  323.32        2952.00           1249          56.00       211.86
  323.35        2952.25           1252          51.00       190.06
  323.38        2952.50           1256          47.00       172.63
  323.41        2952.75           1259          55.00       207.50
  323.44        2953.00           1262          52.00       194.42
  323.47        2953.25           1266          53.00       198.78
  323.51        2953.50           1269          59.00       224.94
  323.54        2953.75           1272          56.00       211.86
  323.57        2954.00           1276          51.00       190.06
  323.60        2954.25           1279          53.00       198.78
  323.63        2954.50           1282          51.00       190.06
  323.66        2954.75           1286          52.00       194.42
  323.69        2955.00           1289          54.00       203.14
  323.72        2955.25           1292          53.00       198.78
  323.75        2955.50           1296          57.00       216.22
  323.79        2955.75           1299          59.00       224.94
  323.82        2956.00           1302          53.00       198.78
  323.85        2956.25           1306          43.00       155.19
  323.88        2956.50           1309          51.00       190.06
  323.91        2956.75           1312          54.00       203.14
  323.94        2957.00           1316          52.00       194.42
  323.97        2957.25           1319          50.00       185.70
  324.00        2957.50           1322          47.00       172.63
  324.03        2957.75           1326          53.00       198.78
  324.06        2958.00           1329          50.00       185.70
  324.09        2958.25           1332          54.00       203.14
  324.13        2958.50           1336          54.00       203.14
  324.16        2958.75           1339          51.00       190.06
  324.19        2959.00           1342          53.00       198.78
  324.22        2959.25           1346          56.00       211.86
  324.25        2959.50           1349          63.00       242.37
  324.28        2959.75           1352          65.00       251.09
  324.31        2960.00           1356          75.00       294.68
  324.34        2960.25           1359          89.00       355.71
  324.37        2960.50           1362         126.00       517.01
  324.40        2960.75           1366         157.00       652.15
  324.43        2961.00           1369         189.00       791.65
  324.46        2961.25           1372         227.00       957.31
  324.49        2961.50           1376         257.00      1088.09
  324.52        2961.75           1379         329.00      1401.98
  324.56        2962.00           1382         669.00      2884.30
  324.59        2962.25           1386        1862.00      8086.53
  324.62        2962.50           1389        2991.00     13011.18
  324.65        2962.75           1392        4096.00     17832.56
  324.68        2963.00           1396        5469.00     23825.22
  324.71        2963.25           1399        6539.00     28496.89
  324.74        2963.50           1402        7730.00     33698.40
  324.77        2963.75           1406        9336.00     40714.92
  324.80        2964.00           1409       10497.00     45789.10
  324.83        2964.25           1412       11613.00     50668.07
  324.87        2964.50           1416       13196.00     57591.14
  324.90        2964.75           1419       14416.00     62928.62
  324.93        2965.00           1422       15564.00     67952.68
  324.96        2965.25           1426       17072.00     74554.53
  324.99        2965.50           1429       18236.00     79652.19
  325.02        2965.75           1432       19364.00     84593.66
  325.05        2966.00           1436       21011.00     91811.38
  325.08        2966.25           1439       21980.00     96059.34
  325.11        2966.50           1442       23145.00    101168.00
  325.14        2966.75           1446       24266.00    106085.10
  325.17        2967.00           1449       24623.00    107651.40
  325.21        2967.25           1452       24481.00    107028.40
  325.24        2967.50           1456       24773.00    108309.50
  325.27        2967.75           1459       24490.00    107067.90
  325.30        2968.00           1462       24401.00    106677.40
  325.33        2968.25           1466       23741.00    103782.10
  325.36        2968.50           1469       22834.00     99804.04
  325.39        2968.75           1472       21713.00     94888.74
  325.42        2969.00           1476       20090.00     87774.86
  325.45        2969.25           1479       19122.00     83533.40
  325.48        2969.50           1482       18077.00     78955.76
  325.51        2969.75           1486       16403.00     71625.40
  325.55        2970.00           1489       15441.00     67414.32
  325.58        2970.25           1492       14341.00     62600.46
  325.61        2970.50           1496       12847.00     56064.58
  325.64        2970.75           1499       11784.00     51415.78
  325.67        2971.00           1502       10562.00     46073.23
  325.70        2971.25           1506        8951.00     39032.60
  325.73        2971.50           1509        7750.00     33785.76
  325.76        2971.75           1513        6208.00     27051.59
  325.79        2972.00           1516        5083.00     22140.25
  325.82        2972.25           1519        4093.00     17819.46
  325.85        2972.50           1523        2698.00     11732.99
  325.89        2972.75           1526        1660.00      7205.57
  325.92        2973.00           1529         837.00      3616.78
  325.95        2973.25           1533         351.00      1497.89
  325.98        2973.50           1536         265.00      1122.97
  326.01        2973.75           1539         249.00      1053.22
  326.04        2974.00           1543         204.00       857.04
  326.07        2974.25           1546         157.00       652.15
  326.10        2974.50           1549         122.00       499.57
  326.13        2974.75           1553         100.00       403.67
  326.16        2975.00           1556          78.00       307.76
  326.19        2975.25           1559          50.00       185.70
  326.22        2975.50           1563          59.00       224.94
  326.26        2975.75           1566          58.00       220.58
  326.29        2976.00           1569          57.00       216.22
  326.32        2976.25           1573          48.00       176.98
  326.35        2976.50           1576          53.00       198.78
  326.38        2976.75           1579          55.00       207.50
  326.41        2977.00           1583          57.00       216.22
  326.44        2977.25           1586          58.00       220.58
  326.47        2977.50           1590          54.00       203.14
  326.50        2977.75           1593          49.00       181.34
  326.53        2978.00           1596          49.00       181.34
  326.57        2978.25           1600          52.00       194.42
  326.60        2978.50           1603          52.00       194.42
  326.63        2978.75           1606          48.00       176.98
  326.66        2979.00           1610          55.00       207.50
  326.69        2979.25           1613          50.00       185.70
  326.72        2979.50           1616          49.00       181.34
  326.75        2979.75           1620          41.00       146.47
  326.78        2980.00           1623          49.00       181.34
  326.81        2980.25           1626          57.00       216.22
  326.84        2980.50           1630          57.00       216.22
  326.87        2980.75           1633          50.00       185.70
  326.90        2981.00           1637          47.00       172.63
  326.93        2981.25           1640          45.00       163.91
  326.96        2981.50           1643          50.00       185.70
  327.00        2981.75           1647          43.00       155.19
  327.03        2982.00           1650          51.00       190.06
  327.06        2982.25           1653          53.00       198.78
  327.09        2982.50           1657          50.00       185.70
  327.12        2982.75           1660          48.00       176.98
  327.15        2983.00           1663          47.00       172.63
  327.18        2983.25           1667          42.00       150.83
  327.21        2983.50           1670          46.00       168.27
  327.24        2983.75           1673          53.00       198.78
  327.27        2984.00           1677          52.00       194.42
HS scan finished at 05:27:29
end
************************************************************
  HS Scan of (1) Internal mercury lamp
************************************************************
Integration time is 0.2294 seconds per sample
dh150119Manchester 53.47 2.23 2.804185pr1000
************************************************************
Dead Time -------------------------  3E-08 
Number of Cycles Used -------------  4 
Starting Wavelength (Angstroms) ---  2950 
Final Wavelength (Angstoms) -------  2984 
Wavelength Increment (Angstroms) --  .25 
Filter Wheel #1 Position ---------- (1) Ground quartz diffuser (ND=2.32)
Filter Wheel #2 Position ---------- (1) Neutral Density 0.494



************************************************************
HS scan start time = 17:12:05
Dark Count =  5.9 


Time (GMT)  Wavelength (Ang)  Step Number  Raw Counts  Counts/Second

 1032.45        2950.00           1222          62.00       244.55
 1032.52        2950.25           1226          52.00       200.96
 1032.55        2950.50           1229          61.00       240.19
 1032.58        2950.75           1232          60.00       235.83
 1032.61        2951.00           1236          56.00       218.40
 1032.64        2951.25           1239          56.00       218.40
 1032.67        2951.50           1242          54.00       209.68
 1032.70        2951.75           1246          55.00       214.04
 1032.73        2952.00           1249          46.00       174.80
 1032.76        2952.25           1252          56.00       218.40
 1032.80        2952.50           1256          53.00       205.32
 1032.83        2952.75           1259          51.00       196.60
 1032.86        2953.00           1262          63.00       248.91
 1032.89        2953.25           1266          57.00       222.76
 1032.92        2953.50           1269          61.00       240.19
 1032.95        2953.75           1272          59.00       231.48
 1032.98        2954.00           1276          57.00       222.76
 1033.01        2954.25           1279          57.00       222.76
 1033.04        2954.50           1282          53.00       205.32
 1033.07        2954.75           1286          57.00       222.76
 1033.11        2955.00           1289          55.00       214.04
 1033.14        2955.25           1292          48.00       183.52
 1033.17        2955.50           1296          50.00       192.24
 1033.20        2955.75           1299          54.00       209.68
 1033.23        2956.00           1302          51.00       196.60
 1033.26        2956.25           1306          57.00       222.76
 1033.29        2956.50           1309          60.00       235.83
 1033.32        2956.75           1312          51.00       196.60
 1033.35        2957.00           1316          61.00       240.19
 1033.38        2957.25           1319          53.00       205.32
 1033.42        2957.50           1322          53.00       205.32
 1033.45        2957.75           1326          51.00       196.60
 1033.48        2958.00           1329          62.00       244.55
 1033.51        2958.25           1332          67.00       266.35
 1033.54        2958.50           1336          49.00       187.88
 1033.57        2958.75           1339          61.00       240.19
 1033.60        2959.00           1342          53.00       205.32
 1033.63        2959.25           1346          51.00       196.60
 1033.66        2959.50           1349          59.00       231.48
 1033.69        2959.75           1352          71.00       283.79
 1033.72        2960.00           1356          93.00       379.69
 1033.76        2960.25           1359         121.00       501.75
 1033.79        2960.50           1362         142.00       593.30
 1033.82        2960.75           1366         182.00       767.67
 1033.85        2961.00           1369         215.00       911.53
 1033.88        2961.25           1372         241.00      1024.88
 1033.91        2961.50           1376         294.00      1255.93
 1033.94        2961.75           1379         370.00      1587.26
 1033.97        2962.00           1382         655.00      2829.80
 1034.00        2962.25           1386        1892.00      8223.91
 1034.03        2962.50           1389        3038.00     13222.77
 1034.07        2962.75           1392        4153.00     18087.84
 1034.10        2963.00           1396        5524.00     24071.87
 1034.13        2963.25           1399        6716.00     29276.36
 1034.16        2963.50           1402        7914.00     34508.68
 1034.19        2963.75           1406        9488.00     41385.70
 1034.22        2964.00           1409       10732.00     46822.92
 1034.25        2964.25           1412       11892.00     51894.60
 1034.28        2964.50           1416       13552.00     59155.02
 1034.31        2964.75           1419       14703.00     64191.07
 1034.35        2965.00           1422       15831.00     69127.96
 1034.38        2965.25           1426       17565.00     76719.97
 1034.41        2965.50           1429       18580.00     81165.58
 1034.44        2965.75           1432       19677.00     85971.66
 1034.47        2966.00           1436       21322.00     93181.22
 1034.50        2966.25           1439       22429.00     98034.64
 1034.53        2966.50           1442       23568.00    103029.80
 1034.56        2966.75           1446       24780.00    108346.80
 1034.59        2967.00           1449       24990.00    109268.20
 1034.62        2967.25           1452       25302.00    110637.30
 1034.66        2967.50           1456       25149.00    109965.90
 1034.69        2967.75           1459       25157.00    110001.00
 1034.72        2968.00           1462       25040.00    109487.60
 1034.75        2968.25           1466       24390.00    106635.70
 1034.78        2968.50           1469       23330.00    101985.90
 1034.81        2968.75           1472       22314.00     97530.37
 1034.84        2969.00           1476       20624.00     90121.72
 1034.87        2969.25           1479       19655.00     85875.27
 1034.90        2969.50           1482       18373.00     80258.84
 1034.94        2969.75           1486       16838.00     73536.50
 1034.97        2970.00           1489       15661.00     68383.83
 1035.00        2970.25           1492       14483.00     63228.37
 1035.03        2970.50           1496       13000.00     56740.35
 1035.06        2970.75           1499       11838.00     51658.46
 1035.09        2971.00           1502       10729.00     46809.80
 1035.12        2971.25           1506        9246.00     40328.19
 1035.15        2971.50           1509        8039.00     35054.72
 1035.18        2971.75           1513        6493.00     28302.58
 1035.22        2972.00           1516        5298.00     23085.30
 1035.25        2972.25           1519        4245.00     18489.33
 1035.28        2972.50           1523        2768.00     12044.89
 1035.31        2972.75           1526        1613.00      7007.14
 1035.34        2973.00           1529         768.00      3322.48
 1035.37        2973.25           1533         324.00      1386.72
 1035.40        2973.50           1536         240.00      1020.52
 1035.43        2973.75           1539         206.00       872.30
 1035.46        2974.00           1543         177.00       745.88
 1035.50        2974.25           1546         121.00       501.75
 1035.53        2974.50           1549         107.00       440.72
 1035.56        2974.75           1553          78.00       314.30
 1035.59        2975.00           1556          61.00       240.19
 1035.62        2975.25           1559          59.00       231.48
 1035.65        2975.50           1563          57.00       222.76
 1035.68        2975.75           1566          59.00       231.48
 1035.71        2976.00           1569          53.00       205.32
 1035.74        2976.25           1573          52.00       200.96
 1035.77        2976.50           1576          51.00       196.60
 1035.80        2976.75           1579          59.00       231.48
 1035.83        2977.00           1583          41.00       153.01
 1035.87        2977.25           1586          48.00       183.52
 1035.90        2977.50           1590          49.00       187.88
 1035.93        2977.75           1593          44.00       166.09
 1035.96        2978.00           1596          48.00       183.52
 1035.99        2978.25           1600          59.00       231.48
 1036.03        2978.50           1603          53.00       205.32
 1036.07        2978.75           1606          54.00       209.68
 1036.10        2979.00           1610          47.00       179.16
 1036.13        2979.25           1613          47.00       179.16
 1036.16        2979.50           1616          44.00       166.09
 1036.19        2979.75           1620          49.00       187.88
 1036.22        2980.00           1623          44.00       166.09
 1036.25        2980.25           1626          52.00       200.96
 1036.28        2980.50           1630          53.00       205.32
 1036.31        2980.75           1633          44.00       166.09
 1036.34        2981.00           1637          50.00       192.24
 1036.37        2981.25           1640          48.00       183.52
 1036.40        2981.50           1643          47.00       179.16
 1036.43        2981.75           1647          44.00       166.09
 1036.46        2982.00           1650          46.00       174.80
 1036.49        2982.25           1653          50.00       192.24
 1036.53        2982.50           1657          48.00       183.52
 1036.56        2982.75           1660          46.00       174.80
 1036.59        2983.00           1663          50.00       192.24
 1036.62        2983.25           1667          49.00       187.88
 1036.65        2983.50           1670          41.00       153.01
 1036.68        2983.75           1673          51.00       196.60
 1036.71        2984.00           1677          44.00       166.09
HS scan finished at 17:16:56
end
