************************************************************
  HS Scan of (1) Internal mercury lamp
************************************************************
Integration time is 0.2294 seconds per sample
dh110117Manchester 53.47 2.23 2.804185pr1000
************************************************************
Dead Time -------------------------  3E-08 
Number of Cycles Used -------------  4 
Starting Wavelength (Angstroms) ---  2950 
Final Wavelength (Angstoms) -------  2984 
Wavelength Increment (Angstroms) --  .25 
Filter Wheel #1 Position ---------- (1) Ground quartz diffuser (ND=2.32)
Filter Wheel #2 Position ---------- (1) Neutral Density 0.494



************************************************************
HS scan start time = 05:24:28
Dark Count =  5.9 


Time (GMT)  Wavelength (Ang)  Step Number  Raw Counts  Counts/Second

  324.83        2950.00           1222          46.00       174.80
  324.90        2950.25           1226          41.00       153.01
  324.93        2950.50           1229          47.00       179.16
  324.96        2950.75           1232          47.00       179.16
  324.99        2951.00           1236          44.00       166.09
  325.02        2951.25           1239          44.00       166.09
  325.05        2951.50           1242          42.00       157.37
  325.09        2951.75           1246          46.00       174.80
  325.12        2952.00           1249          47.00       179.16
  325.15        2952.25           1252          43.00       161.73
  325.18        2952.50           1256          42.00       157.37
  325.21        2952.75           1259          40.00       148.65
  325.24        2953.00           1262          48.00       183.52
  325.27        2953.25           1266          47.00       179.16
  325.30        2953.50           1269          44.00       166.09
  325.33        2953.75           1272          45.00       170.45
  325.36        2954.00           1276          47.00       179.16
  325.39        2954.25           1279          48.00       183.52
  325.42        2954.50           1282          48.00       183.52
  325.45        2954.75           1286          44.00       166.09
  325.49        2955.00           1289          47.00       179.16
  325.52        2955.25           1292          41.00       153.01
  325.55        2955.50           1296          40.00       148.65
  325.58        2955.75           1299          45.00       170.45
  325.61        2956.00           1302          45.00       170.45
  325.64        2956.25           1306          52.00       200.96
  325.67        2956.50           1309          46.00       174.80
  325.70        2956.75           1312          44.00       166.09
  325.73        2957.00           1316          44.00       166.09
  325.76        2957.25           1319          38.00       139.93
  325.79        2957.50           1322          41.00       153.01
  325.82        2957.75           1326          49.00       187.88
  325.85        2958.00           1329          48.00       183.52
  325.88        2958.25           1332          47.00       179.16
  325.92        2958.50           1336          49.00       187.88
  325.95        2958.75           1339          48.00       183.52
  325.98        2959.00           1342          44.00       166.09
  326.01        2959.25           1346          55.00       214.04
  326.04        2959.50           1349          50.00       192.24
  326.07        2959.75           1352          68.00       270.71
  326.10        2960.00           1356          78.00       314.30
  326.13        2960.25           1359         112.00       462.52
  326.16        2960.50           1362         143.00       597.66
  326.19        2960.75           1366         202.00       854.86
  326.22        2961.00           1369         250.00      1064.11
  326.25        2961.25           1372         280.00      1194.90
  326.28        2961.50           1376         365.00      1565.46
  326.31        2961.75           1379         504.00      2171.46
  326.35        2962.00           1382         921.00      3989.58
  326.38        2962.25           1386        2429.00     10566.12
  326.41        2962.50           1389        4011.00     17468.18
  326.44        2962.75           1392        5639.00     24573.91
  326.47        2963.00           1396        7681.00     33490.91
  326.50        2963.25           1399        9237.00     40288.86
  326.53        2963.50           1402       11011.00     48042.60
  326.56        2963.75           1406       13194.00     57588.95
  326.59        2964.00           1409       14769.00     64479.89
  326.63        2964.25           1412       16648.00     72704.62
  326.66        2964.50           1416       19043.00     83193.87
  326.69        2964.75           1419       20496.00     89560.71
  326.72        2965.00           1422       22256.00     97276.06
  326.75        2965.25           1426       24515.00    107184.10
  326.78        2965.50           1429       26077.00    114038.60
  326.81        2965.75           1432       27764.00    121444.70
  326.84        2966.00           1436       29908.00    130861.90
  326.87        2966.25           1439       31493.00    137827.20
  326.91        2966.50           1442       32986.00    144390.90
  326.94        2966.75           1446       34765.00    152215.30
  326.97        2967.00           1449       35810.00    156813.10
  327.00        2967.25           1452       36001.00    157653.70
  327.03        2967.50           1456       36203.00    158542.60
  327.06        2967.75           1459       36026.00    157763.70
  327.09        2968.00           1462       36049.00    157864.90
  327.12        2968.25           1466       35427.00    155127.90
  327.15        2968.50           1469       34456.00    150856.00
  327.18        2968.75           1472       32846.00    143775.30
  327.21        2969.00           1476       30737.00    134504.60
  327.24        2969.25           1479       29142.00    127496.80
  327.28        2969.50           1482       27667.00    121018.80
  327.31        2969.75           1486       25428.00    111190.30
  327.34        2970.00           1489       23688.00    103556.20
  327.37        2970.25           1492       21993.00     96122.91
  327.40        2970.50           1496       19793.00     86479.96
  327.43        2970.75           1499       18057.00     78874.74
  327.46        2971.00           1502       16437.00     71780.83
  327.49        2971.25           1506       14230.00     62121.33
  327.52        2971.50           1509       12573.00     54872.74
  327.56        2971.75           1513       10428.00     45494.05
  327.59        2972.00           1516        8824.00     38484.25
  327.62        2972.25           1519        7149.00     31167.32
  327.65        2972.50           1523        4836.00     21068.68
  327.68        2972.75           1526        3201.00     13933.90
  327.71        2973.00           1529        1735.00      7539.20
  327.74        2973.25           1533         628.00      2712.08
  327.77        2973.50           1536         383.00      1643.93
  327.80        2973.75           1539         306.00      1308.25
  327.84        2974.00           1543         254.00      1081.55
  327.87        2974.25           1546         190.00       802.55
  327.90        2974.50           1549         161.00       676.13
  327.93        2974.75           1553         115.00       475.60
  327.96        2975.00           1556          75.00       301.22
  327.99        2975.25           1559          57.00       222.76
  328.02        2975.50           1563          53.00       205.32
  328.05        2975.75           1566          42.00       157.37
  328.08        2976.00           1569          47.00       179.16
  328.11        2976.25           1573          41.00       153.01
  328.14        2976.50           1576          44.00       166.09
  328.17        2976.75           1579          49.00       187.88
  328.20        2977.00           1583          47.00       179.16
  328.23        2977.25           1586          43.00       161.73
  328.26        2977.50           1590          48.00       183.52
  328.29        2977.75           1593          43.00       161.73
  328.32        2978.00           1596          53.00       205.32
  328.35        2978.25           1600          44.00       166.09
  328.39        2978.50           1603          41.00       153.01
  328.42        2978.75           1606          48.00       183.52
  328.45        2979.00           1610          51.00       196.60
  328.48        2979.25           1613          41.00       153.01
  328.51        2979.50           1616          40.00       148.65
  328.54        2979.75           1620          47.00       179.16
  328.57        2980.00           1623          45.00       170.45
  328.60        2980.25           1626          45.00       170.45
  328.63        2980.50           1630          41.00       153.01
  328.66        2980.75           1633          48.00       183.52
  328.69        2981.00           1637          42.00       157.37
  328.73        2981.25           1640          41.00       153.01
  328.76        2981.50           1643          48.00       183.52
  328.79        2981.75           1647          42.00       157.37
  328.82        2982.00           1650          42.00       157.37
  328.85        2982.25           1653          39.00       144.29
  328.88        2982.50           1657          50.00       192.24
  328.91        2982.75           1660          46.00       174.80
  328.94        2983.00           1663          41.00       153.01
  328.97        2983.25           1667          47.00       179.16
  329.00        2983.50           1670          46.00       174.80
  329.03        2983.75           1673          43.00       161.73
  329.07        2984.00           1677          50.00       192.24
HS scan finished at 05:29:17
end
************************************************************
  HS Scan of (1) Internal mercury lamp
************************************************************
Integration time is 0.2294 seconds per sample
dh110117Manchester 53.47 2.23 2.750537pr1000
************************************************************
Dead Time -------------------------  3E-08 
Number of Cycles Used -------------  4 
Starting Wavelength (Angstroms) ---  2950 
Final Wavelength (Angstoms) -------  2984 
Wavelength Increment (Angstroms) --  .25 
Filter Wheel #1 Position ---------- (1) Ground quartz diffuser (ND=2.32)
Filter Wheel #2 Position ---------- (1) Neutral Density 0.494



************************************************************
HS scan start time = 17:12:02
Dark Count =  6 


Time (GMT)  Wavelength (Ang)  Step Number  Raw Counts  Counts/Second

 1032.40        2950.00           1222          44.00       165.65
 1032.47        2950.25           1226          45.00       170.01
 1032.50        2950.50           1229          39.00       143.85
 1032.53        2950.75           1232          47.00       178.73
 1032.56        2951.00           1236          41.00       152.57
 1032.59        2951.25           1239          50.00       191.81
 1032.62        2951.50           1242          35.00       126.42
 1032.65        2951.75           1246          44.00       165.65
 1032.68        2952.00           1249          41.00       152.57
 1032.71        2952.25           1252          45.00       170.01
 1032.74        2952.50           1256          42.00       156.93
 1032.77        2952.75           1259          48.00       183.09
 1032.81        2953.00           1262          43.00       161.29
 1032.84        2953.25           1266          44.00       165.65
 1032.87        2953.50           1269          46.00       174.37
 1032.90        2953.75           1272          38.00       139.49
 1032.93        2954.00           1276          40.00       148.21
 1032.96        2954.25           1279          49.00       187.45
 1032.99        2954.50           1282          51.00       196.17
 1033.02        2954.75           1286          46.00       174.37
 1033.05        2955.00           1289          34.00       122.06
 1033.08        2955.25           1292          39.00       143.85
 1033.11        2955.50           1296          47.00       178.73
 1033.14        2955.75           1299          45.00       170.01
 1033.17        2956.00           1302          43.00       161.29
 1033.20        2956.25           1306          45.00       170.01
 1033.24        2956.50           1309          45.00       170.01
 1033.27        2956.75           1312          52.00       200.52
 1033.30        2957.00           1316          37.00       135.14
 1033.33        2957.25           1319          48.00       183.09
 1033.36        2957.50           1322          49.00       187.45
 1033.39        2957.75           1326          52.00       200.52
 1033.42        2958.00           1329          48.00       183.09
 1033.45        2958.25           1332          45.00       170.01
 1033.48        2958.50           1336          42.00       156.93
 1033.52        2958.75           1339          49.00       187.45
 1033.55        2959.00           1342          46.00       174.37
 1033.58        2959.25           1346          46.00       174.37
 1033.61        2959.50           1349          57.00       222.32
 1033.64        2959.75           1352          65.00       257.19
 1033.67        2960.00           1356          97.00       396.69
 1033.70        2960.25           1359         141.00       588.50
 1033.73        2960.50           1362         180.00       758.52
 1033.76        2960.75           1366         241.00      1024.44
 1033.79        2961.00           1369         271.00      1155.23
 1033.82        2961.25           1372         307.00      1312.17
 1033.85        2961.50           1376         430.00      1848.40
 1033.88        2961.75           1379         813.00      3518.24
 1033.92        2962.00           1382        1696.00      7368.67
 1033.95        2962.25           1386        3561.00     15504.16
 1033.98        2962.50           1389        5097.00     22207.47
 1034.01        2962.75           1392        6756.00     29450.60
 1034.04        2963.00           1396        8769.00     38243.51
 1034.07        2963.25           1399       10319.00     45017.17
 1034.10        2963.50           1402       12188.00     53188.56
 1034.13        2963.75           1406       14260.00     62252.16
 1034.16        2964.00           1409       16033.00     70011.77
 1034.19        2964.25           1412       17753.00     77542.87
 1034.22        2964.50           1416       19752.00     86299.87
 1034.26        2964.75           1419       21592.00     94364.41
 1034.29        2965.00           1422       23224.00    101520.60
 1034.32        2965.25           1426       25580.00    111856.90
 1034.35        2965.50           1429       27288.00    119354.20
 1034.38        2965.75           1432       28780.00    125906.20
 1034.41        2966.00           1436       30988.00    135607.20
 1034.44        2966.25           1439       32468.00    142112.90
 1034.47        2966.50           1442       33925.00    148519.90
 1034.50        2966.75           1446       35208.00    154163.80
 1034.54        2967.00           1449       35409.00    155048.20
 1034.57        2967.25           1452       35470.00    155316.60
 1034.60        2967.50           1456       35433.00    155153.80
 1034.63        2967.75           1459       35357.00    154819.40
 1034.66        2968.00           1462       34985.00    153182.70
 1034.69        2968.25           1466       33875.00    148300.00
 1034.72        2968.50           1469       32301.00    141378.70
 1034.75        2968.75           1472       30722.00    134438.30
 1034.78        2969.00           1476       28778.00    125897.50
 1034.81        2969.25           1479       27239.00    119139.10
 1034.84        2969.50           1482       25790.00    112778.50
 1034.87        2969.75           1486       23458.00    102546.90
 1034.91        2970.00           1489       21810.00     95320.14
 1034.94        2970.25           1492       20590.00     89972.26
 1034.97        2970.50           1496       18078.00     78966.28
 1035.00        2970.75           1499       16412.00     71670.94
 1035.03        2971.00           1502       14700.00     64177.50
 1035.06        2971.25           1506       12608.00     55025.37
 1035.09        2971.50           1509       10828.00     47242.15
 1035.12        2971.75           1513        8686.00     37880.86
 1035.15        2972.00           1516        7074.00     30839.33
 1035.18        2972.25           1519        5496.00     23949.20
 1035.21        2972.50           1523        3371.00     14675.16
 1035.24        2972.75           1526        2008.00      8729.40
 1035.28        2973.00           1529         931.00      4032.75
 1035.31        2973.25           1533         447.00      1922.52
 1035.34        2973.50           1536         326.00      1395.00
 1035.37        2973.75           1539         262.00      1115.99
 1035.40        2974.00           1543         229.00       972.13
 1035.43        2974.25           1546         169.00       710.56
 1035.46        2974.50           1549         120.00       496.96
 1035.49        2974.75           1553          84.00       340.02
 1035.52        2975.00           1556          66.00       261.55
 1035.55        2975.25           1559          56.00       217.96
 1035.58        2975.50           1563          39.00       143.85
 1035.62        2975.75           1566          43.00       161.29
 1035.65        2976.00           1569          43.00       161.29
 1035.68        2976.25           1573          42.00       156.93
 1035.71        2976.50           1576          45.00       170.01
 1035.74        2976.75           1579          43.00       161.29
 1035.77        2977.00           1583          54.00       209.24
 1035.80        2977.25           1586          44.00       165.65
 1035.83        2977.50           1590          38.00       139.49
 1035.86        2977.75           1593          42.00       156.93
 1035.89        2978.00           1596          45.00       170.01
 1035.92        2978.25           1600          49.00       187.45
 1035.95        2978.50           1603          52.00       200.52
 1035.98        2978.75           1606          39.00       143.85
 1036.01        2979.00           1610          42.00       156.93
 1036.04        2979.25           1613          46.00       174.37
 1036.08        2979.50           1616          51.00       196.17
 1036.11        2979.75           1620          48.00       183.09
 1036.14        2980.00           1623          42.00       156.93
 1036.17        2980.25           1626          41.00       152.57
 1036.20        2980.50           1630          43.00       161.29
 1036.23        2980.75           1633          44.00       165.65
 1036.26        2981.00           1637          53.00       204.88
 1036.29        2981.25           1640          46.00       174.37
 1036.32        2981.50           1643          44.00       165.65
 1036.35        2981.75           1647          43.00       161.29
 1036.38        2982.00           1650          39.00       143.85
 1036.42        2982.25           1653          33.00       117.70
 1036.45        2982.50           1657          41.00       152.57
 1036.48        2982.75           1660          46.00       174.37
 1036.51        2983.00           1663          42.00       156.93
 1036.54        2983.25           1667          43.00       161.29
 1036.57        2983.50           1670          37.00       135.14
 1036.60        2983.75           1673          44.00       165.65
 1036.63        2984.00           1677          43.00       161.29
HS scan finished at 17:16:51
end
