************************************************************
  HS Scan of (1) Internal mercury lamp
************************************************************
Integration time is 0.2294 seconds per sample
dh170118Manchester 53.47 2.23 2.750537pr1000
************************************************************
Dead Time -------------------------  3E-08 
Number of Cycles Used -------------  4 
Starting Wavelength (Angstroms) ---  2950 
Final Wavelength (Angstoms) -------  2984 
Wavelength Increment (Angstroms) --  .25 
Filter Wheel #1 Position ---------- (1) Ground quartz diffuser (ND=2.32)
Filter Wheel #2 Position ---------- (1) Neutral Density 0.494



************************************************************
HS scan start time = 05:21:15
Dark Count =  7.2 


Time (GMT)  Wavelength (Ang)  Step Number  Raw Counts  Counts/Second

  321.62        2950.00           1222          57.00       217.09
  321.68        2950.25           1226          73.00       286.84
  321.71        2950.50           1229          71.00       278.12
  321.75        2950.75           1232          60.00       230.17
  321.78        2951.00           1236          56.00       212.73
  321.81        2951.25           1239          66.00       256.32
  321.84        2951.50           1242          59.00       225.81
  321.87        2951.75           1246          56.00       212.73
  321.90        2952.00           1249          60.00       230.17
  321.93        2952.25           1252          64.00       247.60
  321.96        2952.50           1256          63.00       243.25
  321.99        2952.75           1259          60.00       230.17
  322.02        2953.00           1262          61.00       234.53
  322.05        2953.25           1266          58.00       221.45
  322.08        2953.50           1269          61.00       234.53
  322.11        2953.75           1272          54.00       204.01
  322.15        2954.00           1276          63.00       243.25
  322.18        2954.25           1279          64.00       247.60
  322.21        2954.50           1282          61.00       234.53
  322.24        2954.75           1286          68.00       265.04
  322.27        2955.00           1289          56.00       212.73
  322.30        2955.25           1292          71.00       278.12
  322.33        2955.50           1296          59.00       225.81
  322.36        2955.75           1299          66.00       256.32
  322.39        2956.00           1302          60.00       230.17
  322.42        2956.25           1306          65.00       251.96
  322.46        2956.50           1309          56.00       212.73
  322.49        2956.75           1312          61.00       234.53
  322.52        2957.00           1316          68.00       265.04
  322.55        2957.25           1319          53.00       199.65
  322.58        2957.50           1322          64.00       247.60
  322.61        2957.75           1326          61.00       234.53
  322.64        2958.00           1329          59.00       225.81
  322.67        2958.25           1332          57.00       217.09
  322.70        2958.50           1336          55.00       208.37
  322.73        2958.75           1339          62.00       238.89
  322.76        2959.00           1342          65.00       251.96
  322.79        2959.25           1346          66.00       256.32
  322.82        2959.50           1349          67.00       260.68
  322.86        2959.75           1352          90.00       360.95
  322.89        2960.00           1356         106.00       430.69
  322.92        2960.25           1359         136.00       561.47
  322.95        2960.50           1362         179.00       748.93
  322.98        2960.75           1366         227.00       958.18
  323.01        2961.00           1369         272.00      1154.36
  323.04        2961.25           1372         317.00      1350.53
  323.07        2961.50           1376         399.00      1708.02
  323.10        2961.75           1379         597.00      2571.25
  323.13        2962.00           1382        1335.00      5789.15
  323.17        2962.25           1386        3051.00     13273.81
  323.20        2962.50           1389        4426.00     19273.57
  323.23        2962.75           1392        5925.00     25816.85
  323.26        2963.00           1396        8000.00     34878.67
  323.29        2963.25           1399        9386.00     40934.29
  323.32        2963.50           1402       11109.00     48465.37
  323.35        2963.75           1406       13103.00     57185.20
  323.38        2964.00           1409       14657.00     63984.08
  323.41        2964.25           1412       16319.00     71258.54
  323.45        2964.50           1416       18458.00     80625.48
  323.48        2964.75           1419       19850.00     86724.03
  323.51        2965.00           1422       21467.00     93811.18
  323.54        2965.25           1426       23369.00    102151.30
  323.57        2965.50           1429       24974.00    109192.30
  323.60        2965.75           1432       26512.00    115942.30
  323.63        2966.00           1436       28462.00    124504.30
  323.66        2966.25           1439       29884.00    130750.80
  323.69        2966.50           1442       31396.00    137395.20
  323.73        2966.75           1446       32708.00    143162.80
  323.76        2967.00           1449       32978.00    144350.00
  323.79        2967.25           1452       33005.00    144468.70
  323.82        2967.50           1456       33041.00    144627.00
  323.85        2967.75           1459       32817.00    143642.10
  323.88        2968.00           1462       32436.00    141966.90
  323.91        2968.25           1466       31567.00    138146.80
  323.94        2968.50           1469       30214.00    132200.70
  323.97        2968.75           1472       28781.00    125905.40
  324.00        2969.00           1476       26825.00    117316.30
  324.04        2969.25           1479       25211.00    110232.30
  324.07        2969.50           1482       23650.00    103383.80
  324.10        2969.75           1486       21589.00     94346.01
  324.13        2970.00           1489       20188.00     88205.21
  324.16        2970.25           1492       18818.00     82202.47
  324.19        2970.50           1496       16860.00     73627.15
  324.22        2970.75           1499       15304.00     66815.58
  324.25        2971.00           1502       13788.00     60181.80
  324.28        2971.25           1506       11757.00     51298.59
  324.32        2971.50           1509       10179.00     44399.99
  324.35        2971.75           1513        8274.00     36075.64
  324.38        2972.00           1516        6775.00     29528.33
  324.41        2972.25           1519        5236.00     22808.98
  324.44        2972.50           1523        3401.00     14800.82
  324.47        2972.75           1526        1961.00      8519.18
  324.50        2973.00           1529         905.00      3914.15
  324.53        2973.25           1533         417.00      1786.50
  324.56        2973.50           1536         317.00      1350.53
  324.59        2973.75           1539         268.00      1136.92
  324.62        2974.00           1543         241.00      1019.21
  324.66        2974.25           1546         163.00       679.18
  324.69        2974.50           1549         121.00       496.08
  324.72        2974.75           1553          99.00       400.18
  324.75        2975.00           1556          67.00       260.68
  324.78        2975.25           1559          61.00       234.53
  324.81        2975.50           1563          60.00       230.17
  324.84        2975.75           1566          62.00       238.89
  324.87        2976.00           1569          58.00       221.45
  324.90        2976.25           1573          61.00       234.53
  324.93        2976.50           1576          62.00       238.89
  324.96        2976.75           1579          61.00       234.53
  324.99        2977.00           1583          60.00       230.17
  325.02        2977.25           1586          64.00       247.60
  325.06        2977.50           1590          58.00       221.45
  325.09        2977.75           1593          60.00       230.17
  325.12        2978.00           1596          58.00       221.45
  325.15        2978.25           1600          55.00       208.37
  325.18        2978.50           1603          60.00       230.17
  325.21        2978.75           1606          52.00       195.29
  325.24        2979.00           1610          58.00       221.45
  325.27        2979.25           1613          69.00       269.40
  325.30        2979.50           1616          57.00       217.09
  325.33        2979.75           1620          54.00       204.01
  325.36        2980.00           1623          64.00       247.60
  325.39        2980.25           1626          70.00       273.76
  325.42        2980.50           1630          54.00       204.01
  325.46        2980.75           1633          60.00       230.17
  325.49        2981.00           1637          55.00       208.37
  325.52        2981.25           1640          55.00       208.37
  325.55        2981.50           1643          61.00       234.53
  325.58        2981.75           1647          63.00       243.25
  325.61        2982.00           1650          52.00       195.29
  325.64        2982.25           1653          55.00       208.37
  325.67        2982.50           1657          57.00       217.09
  325.70        2982.75           1660          61.00       234.53
  325.73        2983.00           1663          49.00       182.22
  325.76        2983.25           1667          50.00       186.57
  325.79        2983.50           1670          52.00       195.29
  325.82        2983.75           1673          56.00       212.73
  325.85        2984.00           1677          62.00       238.89
HS scan finished at 05:26:04
end
************************************************************
  HS Scan of (1) Internal mercury lamp
************************************************************
Integration time is 0.2294 seconds per sample
dh170118Manchester 53.47 2.23 2.750537pr1000
************************************************************
Dead Time -------------------------  3E-08 
Number of Cycles Used -------------  4 
Starting Wavelength (Angstroms) ---  2950 
Final Wavelength (Angstoms) -------  2984 
Wavelength Increment (Angstroms) --  .25 
Filter Wheel #1 Position ---------- (1) Ground quartz diffuser (ND=2.32)
Filter Wheel #2 Position ---------- (1) Neutral Density 0.494



************************************************************
HS scan start time = 17:12:00
Dark Count =  6.8 


Time (GMT)  Wavelength (Ang)  Step Number  Raw Counts  Counts/Second

 1032.36        2950.00           1222          62.00       240.63
 1032.43        2950.25           1226          60.00       231.91
 1032.46        2950.50           1229          68.00       266.79
 1032.49        2950.75           1232          61.00       236.27
 1032.52        2951.00           1236          58.00       223.19
 1032.55        2951.25           1239          59.00       227.55
 1032.59        2951.50           1242          54.00       205.76
 1032.62        2951.75           1246          60.00       231.91
 1032.65        2952.00           1249          57.00       218.83
 1032.68        2952.25           1252          60.00       231.91
 1032.71        2952.50           1256          60.00       231.91
 1032.74        2952.75           1259          63.00       244.99
 1032.77        2953.00           1262          62.00       240.63
 1032.80        2953.25           1266          72.00       284.22
 1032.83        2953.50           1269          59.00       227.55
 1032.86        2953.75           1272          63.00       244.99
 1032.89        2954.00           1276          56.00       214.47
 1032.93        2954.25           1279          59.00       227.55
 1032.96        2954.50           1282          59.00       227.55
 1032.99        2954.75           1286          61.00       236.27
 1033.02        2955.00           1289          60.00       231.91
 1033.05        2955.25           1292          49.00       183.96
 1033.08        2955.50           1296          61.00       236.27
 1033.11        2955.75           1299          65.00       253.71
 1033.14        2956.00           1302          63.00       244.99
 1033.17        2956.25           1306          54.00       205.76
 1033.20        2956.50           1309          60.00       231.91
 1033.23        2956.75           1312          63.00       244.99
 1033.26        2957.00           1316          70.00       275.50
 1033.29        2957.25           1319          58.00       223.19
 1033.32        2957.50           1322          64.00       249.35
 1033.35        2957.75           1326          58.00       223.19
 1033.39        2958.00           1329          62.00       240.63
 1033.42        2958.25           1332          60.00       231.91
 1033.45        2958.50           1336          56.00       214.47
 1033.48        2958.75           1339          66.00       258.07
 1033.51        2959.00           1342          64.00       249.35
 1033.54        2959.25           1346          63.00       244.99
 1033.57        2959.50           1349          71.00       279.86
 1033.60        2959.75           1352          87.00       349.61
 1033.63        2960.00           1356         119.00       489.11
 1033.66        2960.25           1359         145.00       602.45
 1033.69        2960.50           1362         165.00       689.64
 1033.72        2960.75           1366         227.00       959.92
 1033.75        2961.00           1369         255.00      1081.99
 1033.79        2961.25           1372         290.00      1234.57
 1033.82        2961.50           1376         375.00      1605.13
 1033.85        2961.75           1379         488.00      2097.78
 1033.88        2962.00           1382         918.00      3972.57
 1033.91        2962.25           1386        2500.00     10871.90
 1033.94        2962.50           1389        3864.00     16822.79
 1033.97        2962.75           1392        5366.00     23378.20
 1034.00        2963.00           1396        7208.00     31421.06
 1034.03        2963.25           1399        8756.00     38183.21
 1034.06        2963.50           1402       10384.00     45297.78
 1034.10        2963.75           1406       12282.00     53596.14
 1034.13        2964.00           1409       13895.00     60651.67
 1034.16        2964.25           1412       15456.00     67482.61
 1034.19        2964.50           1416       17516.00     76501.44
 1034.22        2964.75           1419       18969.00     82865.74
 1034.25        2965.00           1422       20463.00     89412.14
 1034.28        2965.25           1426       22590.00     98736.68
 1034.31        2965.50           1429       24082.00    105280.60
 1034.34        2965.75           1432       25593.00    111910.40
 1034.37        2966.00           1436       27532.00    120422.10
 1034.40        2966.25           1439       28839.00    126161.90
 1034.44        2966.50           1442       30317.00    132655.00
 1034.47        2966.75           1446       31880.00    139524.40
 1034.50        2967.00           1449       32442.00    141995.00
 1034.53        2967.25           1452       32646.00    142892.00
 1034.56        2967.50           1456       32618.00    142768.90
 1034.59        2967.75           1459       32522.00    142346.80
 1034.62        2968.00           1462       32433.00    141955.50
 1034.65        2968.25           1466       31752.00    138961.70
 1034.68        2968.50           1469       30364.00    132861.60
 1034.71        2968.75           1472       28960.00    126693.40
 1034.74        2969.00           1476       27210.00    119008.30
 1034.77        2969.25           1479       25646.00    112143.00
 1034.81        2969.50           1482       24193.00    105767.50
 1034.84        2969.75           1486       22110.00     96631.96
 1034.87        2970.00           1489       20894.00     91301.18
 1034.90        2970.25           1492       19388.00     84701.44
 1034.93        2970.50           1496       17196.00     75100.13
 1034.96        2970.75           1499       15649.00     68327.36
 1034.99        2971.00           1502       14220.00     62073.64
 1035.02        2971.25           1506       12112.00     52852.70
 1035.05        2971.50           1509       10596.00     46224.48
 1035.09        2971.75           1513        8685.00     37873.00
 1035.12        2972.00           1516        7177.00     31285.67
 1035.15        2972.25           1519        5794.00     25246.67
 1035.18        2972.50           1523        3747.00     16312.25
 1035.21        2972.75           1526        2401.00     10440.06
 1035.24        2973.00           1529        1122.00      4862.09
 1035.27        2973.25           1533         459.00      1971.35
 1035.30        2973.50           1536         318.00      1356.64
 1035.33        2973.75           1539         287.00      1221.49
 1035.37        2974.00           1543         229.00       968.64
 1035.40        2974.25           1546         167.00       698.36
 1035.43        2974.50           1549         145.00       602.45
 1035.46        2974.75           1553          98.00       397.56
 1035.49        2975.00           1556          77.00       306.02
 1035.52        2975.25           1559          54.00       205.76
 1035.55        2975.50           1563          56.00       214.47
 1035.58        2975.75           1566          59.00       227.55
 1035.61        2976.00           1569          54.00       205.76
 1035.64        2976.25           1573          62.00       240.63
 1035.67        2976.50           1576          60.00       231.91
 1035.70        2976.75           1579          56.00       214.47
 1035.74        2977.00           1583          62.00       240.63
 1035.77        2977.25           1586          56.00       214.47
 1035.80        2977.50           1590          59.00       227.55
 1035.83        2977.75           1593          57.00       218.83
 1035.86        2978.00           1596          61.00       236.27
 1035.89        2978.25           1600          66.00       258.07
 1035.92        2978.50           1603          58.00       223.19
 1035.95        2978.75           1606          54.00       205.76
 1035.98        2979.00           1610          57.00       218.83
 1036.01        2979.25           1613          69.00       271.14
 1036.04        2979.50           1616          55.00       210.11
 1036.07        2979.75           1620          58.00       223.19
 1036.10        2980.00           1623          61.00       236.27
 1036.14        2980.25           1626          61.00       236.27
 1036.17        2980.50           1630          60.00       231.91
 1036.20        2980.75           1633          56.00       214.47
 1036.23        2981.00           1637          60.00       231.91
 1036.26        2981.25           1640          57.00       218.83
 1036.29        2981.50           1643          55.00       210.11
 1036.32        2981.75           1647          63.00       244.99
 1036.35        2982.00           1650          51.00       192.68
 1036.38        2982.25           1653          55.00       210.11
 1036.41        2982.50           1657          63.00       244.99
 1036.44        2982.75           1660          55.00       210.11
 1036.48        2983.00           1663          56.00       214.47
 1036.51        2983.25           1667          54.00       205.76
 1036.54        2983.50           1670          58.00       223.19
 1036.57        2983.75           1673          57.00       218.83
 1036.60        2984.00           1677          55.00       210.11
HS scan finished at 17:16:49
end
