************************************************************
  HS Scan of (1) Internal mercury lamp
************************************************************
Integration time is 0.2294 seconds per sample
dh170119Manchester 53.47 2.23 2.750537pr1000
************************************************************
Dead Time -------------------------  3E-08 
Number of Cycles Used -------------  4 
Starting Wavelength (Angstroms) ---  2950 
Final Wavelength (Angstoms) -------  2984 
Wavelength Increment (Angstroms) --  .25 
Filter Wheel #1 Position ---------- (1) Ground quartz diffuser (ND=2.32)
Filter Wheel #2 Position ---------- (1) Neutral Density 0.494



************************************************************
HS scan start time = 05:21:24
Dark Count =  8 


Time (GMT)  Wavelength (Ang)  Step Number  Raw Counts  Counts/Second

  321.77        2950.00           1222          55.00       204.88
  321.84        2950.25           1226          57.00       213.60
  321.87        2950.50           1229          63.00       239.76
  321.90        2950.75           1232          54.00       200.52
  321.93        2951.00           1236          52.00       191.81
  321.96        2951.25           1239          55.00       204.88
  321.99        2951.50           1242          58.00       217.96
  322.02        2951.75           1246          66.00       252.84
  322.05        2952.00           1249          54.00       200.52
  322.09        2952.25           1252          49.00       178.73
  322.12        2952.50           1256          52.00       191.81
  322.15        2952.75           1259          51.00       187.45
  322.18        2953.00           1262          49.00       178.73
  322.21        2953.25           1266          60.00       226.68
  322.24        2953.50           1269          51.00       187.45
  322.27        2953.75           1272          48.00       174.37
  322.30        2954.00           1276          61.00       231.04
  322.33        2954.25           1279          66.00       252.84
  322.36        2954.50           1282          55.00       204.88
  322.39        2954.75           1286          58.00       217.96
  322.42        2955.00           1289          56.00       209.24
  322.46        2955.25           1292          52.00       191.81
  322.49        2955.50           1296          51.00       187.45
  322.52        2955.75           1299          52.00       191.81
  322.55        2956.00           1302          53.00       196.17
  322.58        2956.25           1306          55.00       204.88
  322.61        2956.50           1309          54.00       200.52
  322.64        2956.75           1312          56.00       209.24
  322.67        2957.00           1316          54.00       200.52
  322.70        2957.25           1319          55.00       204.88
  322.73        2957.50           1322          54.00       200.52
  322.76        2957.75           1326          51.00       187.45
  322.79        2958.00           1329          57.00       213.60
  322.83        2958.25           1332          56.00       209.24
  322.86        2958.50           1336          58.00       217.96
  322.89        2958.75           1339          52.00       191.81
  322.92        2959.00           1342          52.00       191.81
  322.95        2959.25           1346          52.00       191.81
  322.98        2959.50           1349          60.00       226.68
  323.01        2959.75           1352          71.00       274.63
  323.04        2960.00           1356          94.00       374.90
  323.07        2960.25           1359         132.00       540.55
  323.10        2960.50           1362         149.00       614.66
  323.13        2960.75           1366         195.00       815.19
  323.17        2961.00           1369         222.00       932.89
  323.20        2961.25           1372         246.00      1037.52
  323.23        2961.50           1376         297.00      1259.86
  323.26        2961.75           1379         372.00      1586.82
  323.29        2962.00           1382         645.00      2777.04
  323.32        2962.25           1386        1805.00      7835.32
  323.35        2962.50           1389        3073.00     13366.30
  323.38        2962.75           1392        4202.00     18292.51
  323.41        2963.00           1396        5565.00     24241.69
  323.44        2963.25           1399        6896.00     30053.24
  323.47        2963.50           1402        7902.00     34447.09
  323.50        2963.75           1406        9644.00     42058.27
  323.54        2964.00           1409       10728.00     46796.26
  323.57        2964.25           1412       11919.00     52003.48
  323.60        2964.50           1416       13447.00     58686.49
  323.63        2964.75           1419       14637.00     63893.07
  323.66        2965.00           1422       15933.00     69565.26
  323.69        2965.25           1426       17569.00     76728.29
  323.72        2965.50           1429       18687.00     81625.10
  323.75        2965.75           1432       20125.00     87925.60
  323.78        2966.00           1436       21495.00     93930.41
  323.81        2966.25           1439       22500.00     98336.76
  323.85        2966.50           1442       23590.00    103117.10
  323.88        2966.75           1446       24681.00    107903.20
  323.91        2967.00           1449       25281.00    110535.90
  323.94        2967.25           1452       25384.00    110988.00
  323.97        2967.50           1456       25198.00    110171.70
  324.00        2967.75           1459       25309.00    110658.80
  324.03        2968.00           1462       25352.00    110847.50
  324.06        2968.25           1466       24649.00    107762.80
  324.09        2968.50           1469       23633.00    103305.70
  324.13        2968.75           1472       22539.00     98507.78
  324.16        2969.00           1476       21121.00     92290.92
  324.19        2969.25           1479       20129.00     87943.14
  324.22        2969.50           1482       18675.00     81572.53
  324.25        2969.75           1486       17377.00     75887.49
  324.28        2970.00           1489       16247.00     70939.83
  324.31        2970.25           1492       14988.00     65429.09
  324.34        2970.50           1496       13417.00     58555.26
  324.37        2970.75           1499       12377.00     54006.35
  324.41        2971.00           1502       11162.00     48693.58
  324.44        2971.25           1506        9605.00     41887.83
  324.47        2971.50           1509        8287.00     36128.94
  324.50        2971.75           1513        6786.00     29572.87
  324.53        2972.00           1516        5632.00     24534.18
  324.56        2972.25           1519        4535.00     19745.78
  324.59        2972.50           1523        3084.00     13414.29
  324.62        2972.75           1526        2011.00      8733.76
  324.65        2973.00           1529        1019.00      4407.73
  324.68        2973.25           1533         372.00      1586.82
  324.71        2973.50           1536         258.00      1089.84
  324.75        2973.75           1539         205.00       858.78
  324.78        2974.00           1543         184.00       767.24
  324.81        2974.25           1546         136.00       557.99
  324.84        2974.50           1549          99.00       396.69
  324.87        2974.75           1553          72.00       278.99
  324.90        2975.00           1556          70.00       270.27
  324.93        2975.25           1559          62.00       235.40
  324.96        2975.50           1563          57.00       213.60
  324.99        2975.75           1566          50.00       183.09
  325.02        2976.00           1569          52.00       191.81
  325.05        2976.25           1573          47.00       170.01
  325.09        2976.50           1576          48.00       174.37
  325.12        2976.75           1579          48.00       174.37
  325.15        2977.00           1583          43.00       152.57
  325.18        2977.25           1586          53.00       196.17
  325.21        2977.50           1590          50.00       183.09
  325.24        2977.75           1593          49.00       178.73
  325.27        2978.00           1596          49.00       178.73
  325.30        2978.25           1600          49.00       178.73
  325.33        2978.50           1603          45.00       161.29
  325.36        2978.75           1606          51.00       187.45
  325.39        2979.00           1610          53.00       196.17
  325.42        2979.25           1613          50.00       183.09
  325.45        2979.50           1616          50.00       183.09
  325.49        2979.75           1620          53.00       196.17
  325.52        2980.00           1623          62.00       235.40
  325.55        2980.25           1626          43.00       152.57
  325.58        2980.50           1630          47.00       170.01
  325.61        2980.75           1633          52.00       191.81
  325.64        2981.00           1637          50.00       183.09
  325.67        2981.25           1640          48.00       174.37
  325.70        2981.50           1643          53.00       196.17
  325.73        2981.75           1647          57.00       213.60
  325.76        2982.00           1650          49.00       178.73
  325.79        2982.25           1653          53.00       196.17
  325.82        2982.50           1657          51.00       187.45
  325.85        2982.75           1660          60.00       226.68
  325.88        2983.00           1663          47.00       170.01
  325.91        2983.25           1667          44.00       156.93
  325.95        2983.50           1670          48.00       174.37
  325.98        2983.75           1673          40.00       139.49
  326.01        2984.00           1677          45.00       161.29
HS scan finished at 05:26:13
end
************************************************************
  HS Scan of (1) Internal mercury lamp
************************************************************
Integration time is 0.2294 seconds per sample
dh170119Manchester 53.47 2.23 2.750537pr1000
************************************************************
Dead Time -------------------------  3E-08 
Number of Cycles Used -------------  4 
Starting Wavelength (Angstroms) ---  2950 
Final Wavelength (Angstoms) -------  2984 
Wavelength Increment (Angstroms) --  .25 
Filter Wheel #1 Position ---------- (1) Ground quartz diffuser (ND=2.32)
Filter Wheel #2 Position ---------- (1) Neutral Density 0.494



************************************************************
HS scan start time = 17:12:04
Dark Count =  8.100001 


Time (GMT)  Wavelength (Ang)  Step Number  Raw Counts  Counts/Second

 1032.43        2950.00           1222          57.00       213.17
 1032.50        2950.25           1226          55.00       204.45
 1032.53        2950.50           1229          54.00       200.09
 1032.56        2950.75           1232          60.00       226.24
 1032.59        2951.00           1236          51.00       187.01
 1032.62        2951.25           1239          57.00       213.17
 1032.65        2951.50           1242          61.00       230.60
 1032.68        2951.75           1246          57.00       213.17
 1032.72        2952.00           1249          55.00       204.45
 1032.75        2952.25           1252          49.00       178.29
 1032.78        2952.50           1256          59.00       221.88
 1032.81        2952.75           1259          51.00       187.01
 1032.84        2953.00           1262          50.00       182.65
 1032.87        2953.25           1266          70.00       269.84
 1032.90        2953.50           1269          59.00       221.88
 1032.93        2953.75           1272          55.00       204.45
 1032.96        2954.00           1276          55.00       204.45
 1032.99        2954.25           1279          59.00       221.88
 1033.02        2954.50           1282          53.00       195.73
 1033.05        2954.75           1286          49.00       178.29
 1033.08        2955.00           1289          59.00       221.88
 1033.12        2955.25           1292          46.00       165.21
 1033.15        2955.50           1296          48.00       173.93
 1033.18        2955.75           1299          51.00       187.01
 1033.21        2956.00           1302          58.00       217.53
 1033.24        2956.25           1306          62.00       234.96
 1033.27        2956.50           1309          56.00       208.81
 1033.30        2956.75           1312          51.00       187.01
 1033.33        2957.00           1316          51.00       187.01
 1033.36        2957.25           1319          53.00       195.73
 1033.39        2957.50           1322          54.00       200.09
 1033.42        2957.75           1326          51.00       187.01
 1033.45        2958.00           1329          46.00       165.21
 1033.48        2958.25           1332          56.00       208.81
 1033.51        2958.50           1336          44.00       156.50
 1033.54        2958.75           1339          60.00       226.24
 1033.57        2959.00           1342          58.00       217.53
 1033.60        2959.25           1346          51.00       187.01
 1033.64        2959.50           1349          59.00       221.88
 1033.67        2959.75           1352          87.00       343.94
 1033.70        2960.00           1356          95.00       378.82
 1033.73        2960.25           1359         107.00       431.13
 1033.76        2960.50           1362         144.00       592.43
 1033.79        2960.75           1366         178.00       740.64
 1033.82        2961.00           1369         226.00       949.90
 1033.85        2961.25           1372         245.00      1032.73
 1033.88        2961.50           1376         305.00      1294.30
 1033.91        2961.75           1379         388.00      1656.14
 1033.94        2962.00           1382         736.00      3173.36
 1033.97        2962.25           1386        1926.00      8362.60
 1034.00        2962.50           1389        3062.00     13317.87
 1034.03        2962.75           1392        4138.00     18012.78
 1034.07        2963.00           1396        5592.00     24359.12
 1034.10        2963.25           1399        6783.00     29559.33
 1034.13        2963.50           1402        8007.00     34905.32
 1034.16        2963.75           1406        9654.00     42101.54
 1034.19        2964.00           1409       10756.00     46918.23
 1034.22        2964.25           1412       12039.00     52527.79
 1034.25        2964.50           1416       13513.00     58974.79
 1034.28        2964.75           1419       14844.00     64798.48
 1034.31        2965.00           1422       16029.00     69985.06
 1034.34        2965.25           1426       17625.00     76973.10
 1034.38        2965.50           1429       18737.00     81843.69
 1034.41        2965.75           1432       19675.00     85953.27
 1034.44        2966.00           1436       21219.00     92720.06
 1034.47        2966.25           1439       22430.00     98029.37
 1034.50        2966.50           1442       23414.00    102344.70
 1034.53        2966.75           1446       24685.00    107920.30
 1034.56        2967.00           1449       24909.00    108903.20
 1034.59        2967.25           1452       25081.00    109657.90
 1034.62        2967.50           1456       25160.00    110004.60
 1034.66        2967.75           1459       25089.00    109693.00
 1034.69        2968.00           1462       24964.00    109144.50
 1034.72        2968.25           1466       24494.00    107082.30
 1034.75        2968.50           1469       23545.00    102919.30
 1034.78        2968.75           1472       22497.00     98323.16
 1034.81        2969.00           1476       20792.00     90848.41
 1034.84        2969.25           1479       19701.00     86067.19
 1034.87        2969.50           1482       18687.00     81624.66
 1034.90        2969.75           1486       17191.00     75072.55
 1034.93        2970.00           1489       15849.00     69197.13
 1034.97        2970.25           1492       14807.00     64636.55
 1035.00        2970.50           1496       13233.00     57749.93
 1035.03        2970.75           1499       12102.00     52803.29
 1035.06        2971.00           1502       11118.00     48500.78
 1035.09        2971.25           1506        9509.00     41467.86
 1035.12        2971.50           1509        8355.00     36425.58
 1035.15        2971.75           1513        6836.00     29790.78
 1035.18        2972.00           1516        5737.00     24992.14
 1035.21        2972.25           1519        4436.00     19313.28
 1035.24        2972.50           1523        2976.00     12942.69
 1035.27        2972.75           1526        1899.00      8244.85
 1035.30        2973.00           1529         902.00      3897.14
 1035.33        2973.25           1533         361.00      1538.43
 1035.37        2973.50           1536         256.00      1080.68
 1035.40        2973.75           1539         214.00       897.58
 1035.43        2974.00           1543         183.00       762.44
 1035.46        2974.25           1546         121.00       492.16
 1035.49        2974.50           1549         104.00       418.05
 1035.52        2974.75           1553          81.00       317.79
 1035.55        2975.00           1556          63.00       239.32
 1035.58        2975.25           1559          63.00       239.32
 1035.61        2975.50           1563          49.00       178.29
 1035.64        2975.75           1566          50.00       182.65
 1035.68        2976.00           1569          52.00       191.37
 1035.71        2976.25           1573          48.00       173.93
 1035.74        2976.50           1576          52.00       191.37
 1035.77        2976.75           1579          47.00       169.57
 1035.80        2977.00           1583          49.00       178.29
 1035.83        2977.25           1586          50.00       182.65
 1035.86        2977.50           1590          50.00       182.65
 1035.89        2977.75           1593          56.00       208.81
 1035.92        2978.00           1596          53.00       195.73
 1035.95        2978.25           1600          50.00       182.65
 1035.98        2978.50           1603          60.00       226.24
 1036.01        2978.75           1606          51.00       187.01
 1036.05        2979.00           1610          57.00       213.17
 1036.08        2979.25           1613          55.00       204.45
 1036.11        2979.50           1616          52.00       191.37
 1036.14        2979.75           1620          48.00       173.93
 1036.17        2980.00           1623          50.00       182.65
 1036.20        2980.25           1626          45.00       160.86
 1036.23        2980.50           1630          54.00       200.09
 1036.26        2980.75           1633          49.00       178.29
 1036.29        2981.00           1637          49.00       178.29
 1036.32        2981.25           1640          54.00       200.09
 1036.36        2981.50           1643          64.00       243.68
 1036.39        2981.75           1647          60.00       226.24
 1036.42        2982.00           1650          56.00       208.81
 1036.45        2982.25           1653          52.00       191.37
 1036.48        2982.50           1657          47.00       169.57
 1036.51        2982.75           1660          59.00       221.88
 1036.54        2983.00           1663          57.00       213.17
 1036.57        2983.25           1667          45.00       160.86
 1036.60        2983.50           1670          48.00       173.93
 1036.63        2983.75           1673          51.00       187.01
 1036.67        2984.00           1677          48.00       173.93
HS scan finished at 17:16:53
end
