************************************************************
  HS Scan of (1) Internal mercury lamp
************************************************************
Integration time is 0.2294 seconds per sample
dh130118Manchester 53.47 2.23 2.804185pr1000
************************************************************
Dead Time -------------------------  3E-08 
Number of Cycles Used -------------  4 
Starting Wavelength (Angstroms) ---  2950 
Final Wavelength (Angstoms) -------  2984 
Wavelength Increment (Angstroms) --  .25 
Filter Wheel #1 Position ---------- (1) Ground quartz diffuser (ND=2.32)
Filter Wheel #2 Position ---------- (1) Neutral Density 0.494



************************************************************
HS scan start time = 05:23:43
Dark Count =  6.2 


Time (GMT)  Wavelength (Ang)  Step Number  Raw Counts  Counts/Second

  324.09        2950.00           1222          67.00       265.04
  324.15        2950.25           1226          60.00       234.53
  324.18        2950.50           1229          58.00       225.81
  324.22        2950.75           1232          62.00       243.25
  324.25        2951.00           1236          60.00       234.53
  324.28        2951.25           1239          58.00       225.81
  324.31        2951.50           1242          62.00       243.25
  324.34        2951.75           1246          58.00       225.81
  324.37        2952.00           1249          69.00       273.76
  324.40        2952.25           1252          67.00       265.04
  324.43        2952.50           1256          66.00       260.68
  324.46        2952.75           1259          58.00       225.81
  324.49        2953.00           1262          59.00       230.17
  324.52        2953.25           1266          54.00       208.37
  324.56        2953.50           1269          59.00       230.17
  324.59        2953.75           1272          65.00       256.32
  324.62        2954.00           1276          52.00       199.65
  324.65        2954.25           1279          65.00       256.32
  324.68        2954.50           1282          62.00       243.25
  324.71        2954.75           1286          57.00       221.45
  324.74        2955.00           1289          62.00       243.25
  324.77        2955.25           1292          67.00       265.04
  324.80        2955.50           1296          58.00       225.81
  324.83        2955.75           1299          55.00       212.73
  324.86        2956.00           1302          61.00       238.89
  324.89        2956.25           1306          72.00       286.84
  324.92        2956.50           1309          61.00       238.89
  324.95        2956.75           1312          66.00       260.68
  324.98        2957.00           1316          61.00       238.89
  325.02        2957.25           1319          60.00       234.53
  325.05        2957.50           1322          61.00       238.89
  325.08        2957.75           1326          60.00       234.53
  325.11        2958.00           1329          62.00       243.25
  325.14        2958.25           1332          70.00       278.12
  325.17        2958.50           1336          60.00       234.53
  325.20        2958.75           1339          72.00       286.84
  325.23        2959.00           1342          62.00       243.25
  325.26        2959.25           1346          61.00       238.89
  325.29        2959.50           1349          76.00       304.27
  325.32        2959.75           1352          83.00       334.79
  325.35        2960.00           1356         102.00       417.62
  325.38        2960.25           1359         128.00       530.96
  325.42        2960.50           1362         176.00       740.21
  325.45        2960.75           1366         220.00       932.02
  325.48        2961.00           1369         256.00      1088.96
  325.51        2961.25           1372         318.00      1359.25
  325.54        2961.50           1376         355.00      1520.56
  325.57        2961.75           1379         453.00      1947.80
  325.60        2962.00           1382         811.00      3508.65
  325.63        2962.25           1386        2177.00      9465.64
  325.66        2962.50           1389        3665.00     15957.07
  325.69        2962.75           1392        5140.00     22394.29
  325.72        2963.00           1396        7122.00     31048.09
  325.76        2963.25           1399        8464.00     36910.07
  325.79        2963.50           1402       10087.00     44002.25
  325.82        2963.75           1406       12027.00     52483.62
  325.85        2964.00           1409       13558.00     59179.96
  325.88        2964.25           1412       15188.00     66312.26
  325.91        2964.50           1416       17063.00     74520.38
  325.94        2964.75           1419       18836.00     82285.71
  325.97        2965.00           1422       20343.00     88888.86
  326.00        2965.25           1426       22283.00     97393.13
  326.03        2965.50           1429       23612.00    103221.50
  326.06        2965.75           1432       25337.00    110789.60
  326.10        2966.00           1436       27369.00    119709.00
  326.13        2966.25           1439       28605.00    125136.70
  326.16        2966.50           1442       30140.00    131879.90
  326.19        2966.75           1446       31534.00    138006.10
  326.22        2967.00           1449       32664.00    142973.80
  326.25        2967.25           1452       32726.00    143246.40
  326.28        2967.50           1456       32749.00    143347.50
  326.31        2967.75           1459       32853.00    143804.80
  326.34        2968.00           1462       32661.00    142960.60
  326.38        2968.25           1466       32184.00    140863.40
  326.41        2968.50           1469       31025.00    135769.00
  326.44        2968.75           1472       29537.00    129230.70
  326.47        2969.00           1476       27637.00    120885.70
  326.50        2969.25           1479       26276.00    114910.70
  326.53        2969.50           1482       24718.00    108073.50
  326.56        2969.75           1486       22784.00     99590.05
  326.59        2970.00           1489       21335.00     93236.90
  326.62        2970.25           1492       19718.00     86150.00
  326.65        2970.50           1496       17742.00     77493.82
  326.68        2970.75           1499       16226.00     70855.78
  326.71        2971.00           1502       14605.00     63760.90
  326.74        2971.25           1506       12629.00     55116.35
  326.77        2971.50           1509       11092.00     48395.41
  326.81        2971.75           1513        9059.00     39509.75
  326.84        2972.00           1516        7524.00     32803.85
  326.87        2972.25           1519        6207.00     27052.46
  326.90        2972.50           1523        4231.00     18426.92
  326.93        2972.75           1526        2736.00     11903.99
  326.96        2973.00           1529        1343.00      5828.40
  326.99        2973.25           1533         497.00      2139.63
  327.02        2973.50           1536         339.00      1450.80
  327.05        2973.75           1539         269.00      1145.64
  327.08        2974.00           1543         215.00       910.23
  327.12        2974.25           1546         173.00       727.13
  327.15        2974.50           1549         127.00       526.60
  327.18        2974.75           1553          83.00       334.79
  327.21        2975.00           1556          71.00       282.48
  327.24        2975.25           1559          65.00       256.32
  327.27        2975.50           1563          54.00       208.37
  327.30        2975.75           1566          62.00       243.25
  327.33        2976.00           1569          54.00       208.37
  327.36        2976.25           1573          53.00       204.01
  327.39        2976.50           1576          60.00       234.53
  327.42        2976.75           1579          56.00       217.09
  327.45        2977.00           1583          55.00       212.73
  327.48        2977.25           1586          57.00       221.45
  327.52        2977.50           1590          65.00       256.32
  327.55        2977.75           1593          69.00       273.76
  327.58        2978.00           1596          64.00       251.96
  327.61        2978.25           1600          56.00       217.09
  327.64        2978.50           1603          55.00       212.73
  327.67        2978.75           1606          55.00       212.73
  327.70        2979.00           1610          47.00       177.86
  327.73        2979.25           1613          54.00       208.37
  327.76        2979.50           1616          58.00       225.81
  327.79        2979.75           1620          56.00       217.09
  327.83        2980.00           1623          55.00       212.73
  327.86        2980.25           1626          52.00       199.65
  327.89        2980.50           1630          50.00       190.93
  327.92        2980.75           1633          59.00       230.17
  327.95        2981.00           1637          58.00       225.81
  327.98        2981.25           1640          52.00       199.65
  328.01        2981.50           1643          58.00       225.81
  328.04        2981.75           1647          50.00       190.93
  328.07        2982.00           1650          74.00       295.56
  328.10        2982.25           1653          57.00       221.45
  328.13        2982.50           1657          52.00       199.65
  328.16        2982.75           1660          56.00       217.09
  328.20        2983.00           1663          60.00       234.53
  328.23        2983.25           1667          65.00       256.32
  328.26        2983.50           1670          51.00       195.29
  328.29        2983.75           1673          57.00       221.45
  328.32        2984.00           1677          48.00       182.22
HS scan finished at 05:28:32
end
************************************************************
  HS Scan of (1) Internal mercury lamp
************************************************************
Integration time is 0.2294 seconds per sample
dh130118Manchester 53.47 2.23 2.804185pr1000
************************************************************
Dead Time -------------------------  3E-08 
Number of Cycles Used -------------  4 
Starting Wavelength (Angstroms) ---  2950 
Final Wavelength (Angstoms) -------  2984 
Wavelength Increment (Angstroms) --  .25 
Filter Wheel #1 Position ---------- (1) Ground quartz diffuser (ND=2.32)
Filter Wheel #2 Position ---------- (1) Neutral Density 0.494



************************************************************
HS scan start time = 17:12:01
Dark Count =  9.3 


Time (GMT)  Wavelength (Ang)  Step Number  Raw Counts  Counts/Second

 1032.39        2950.00           1222          66.00       247.17
 1032.46        2950.25           1226          62.00       229.73
 1032.49        2950.50           1229          61.00       225.37
 1032.52        2950.75           1232          62.00       229.73
 1032.55        2951.00           1236          64.00       238.45
 1032.58        2951.25           1239          60.00       221.01
 1032.61        2951.50           1242          63.00       234.09
 1032.64        2951.75           1246          62.00       229.73
 1032.67        2952.00           1249          63.00       234.09
 1032.70        2952.25           1252          54.00       194.86
 1032.74        2952.50           1256          65.00       242.81
 1032.77        2952.75           1259          55.00       199.22
 1032.80        2953.00           1262          62.00       229.73
 1032.83        2953.25           1266          70.00       264.61
 1032.86        2953.50           1269          54.00       194.86
 1032.89        2953.75           1272          62.00       229.73
 1032.92        2954.00           1276          60.00       221.01
 1032.95        2954.25           1279          62.00       229.73
 1032.98        2954.50           1282          67.00       251.53
 1033.01        2954.75           1286          60.00       221.01
 1033.04        2955.00           1289          64.00       238.45
 1033.07        2955.25           1292          59.00       216.65
 1033.11        2955.50           1296          63.00       234.09
 1033.14        2955.75           1299          62.00       229.73
 1033.17        2956.00           1302          58.00       212.29
 1033.20        2956.25           1306          65.00       242.81
 1033.23        2956.50           1309          64.00       238.45
 1033.26        2956.75           1312          59.00       216.65
 1033.29        2957.00           1316          63.00       234.09
 1033.32        2957.25           1319          62.00       229.73
 1033.35        2957.50           1322          66.00       247.17
 1033.38        2957.75           1326          65.00       242.81
 1033.41        2958.00           1329          58.00       212.29
 1033.44        2958.25           1332          69.00       260.25
 1033.47        2958.50           1336          57.00       207.94
 1033.51        2958.75           1339          64.00       238.45
 1033.54        2959.00           1342          61.00       225.37
 1033.57        2959.25           1346          61.00       225.37
 1033.60        2959.50           1349          62.00       229.73
 1033.63        2959.75           1352          90.00       351.79
 1033.66        2960.00           1356         113.00       452.05
 1033.69        2960.25           1359         123.00       495.65
 1033.72        2960.50           1362         180.00       744.13
 1033.75        2960.75           1366         228.00       953.38
 1033.78        2961.00           1369         258.00      1084.17
 1033.81        2961.25           1372         311.00      1315.22
 1033.85        2961.50           1376         380.00      1616.03
 1033.88        2961.75           1379         591.00      2535.94
 1033.91        2962.00           1382        1389.00      6015.47
 1033.94        2962.25           1386        3105.00     13500.24
 1033.97        2962.50           1389        4415.00     19216.40
 1034.00        2962.75           1392        5875.00     25589.39
 1034.03        2963.00           1396        7853.00     34227.37
 1034.06        2963.25           1399        9278.00     40453.17
 1034.09        2963.50           1402       10820.00     47192.76
 1034.12        2963.75           1406       12851.00     56073.76
 1034.15        2964.00           1409       14568.00     63585.44
 1034.19        2964.25           1412       16219.00     70811.56
 1034.22        2964.50           1416       18342.00     80108.16
 1034.25        2964.75           1419       19625.00     85728.91
 1034.28        2965.00           1422       21413.00     93565.24
 1034.31        2965.25           1426       23461.00    102545.60
 1034.34        2965.50           1429       24839.00    108590.80
 1034.37        2965.75           1432       26365.00    115287.80
 1034.40        2966.00           1436       28246.00    123546.40
 1034.43        2966.25           1439       29742.00    130117.70
 1034.47        2966.50           1442       31087.00    136027.80
 1034.50        2966.75           1446       32320.00    141447.70
 1034.53        2967.00           1449       32577.00    142577.60
 1034.56        2967.25           1452       32658.00    142933.70
 1034.59        2967.50           1456       32562.00    142511.60
 1034.62        2967.75           1459       32537.00    142401.70
 1034.65        2968.00           1462       32425.00    141909.30
 1034.68        2968.25           1466       31244.00    136717.90
 1034.71        2968.50           1469       30009.00    131290.70
 1034.75        2968.75           1472       28469.00    124525.80
 1034.78        2969.00           1476       26661.00    116587.10
 1034.81        2969.25           1479       24851.00    108643.40
 1034.84        2969.50           1482       23459.00    102536.80
 1034.87        2969.75           1486       21615.00     94450.78
 1034.90        2970.00           1489       20083.00     87735.85
 1034.93        2970.25           1492       18673.00     81558.06
 1034.96        2970.50           1496       16697.00     72904.26
 1034.99        2970.75           1499       15246.00     66552.54
 1035.03        2971.00           1502       13504.00     58930.16
 1035.06        2971.25           1506       11566.00     50454.26
 1035.09        2971.50           1509       10158.00     44299.03
 1035.12        2971.75           1513        8212.00     35795.61
 1035.15        2972.00           1516        6648.00     28964.57
 1035.18        2972.25           1519        5316.00     23149.03
 1035.21        2972.50           1523        3273.00     14233.19
 1035.24        2972.75           1526        1794.00      7781.68
 1035.27        2973.00           1529         818.00      3525.66
 1035.30        2973.25           1533         402.00      1711.95
 1035.33        2973.50           1536         317.00      1341.38
 1035.37        2973.75           1539         266.00      1119.04
 1035.40        2974.00           1543         221.00       922.87
 1035.43        2974.25           1546         158.00       648.23
 1035.46        2974.50           1549         118.00       473.85
 1035.49        2974.75           1553          93.00       364.87
 1035.52        2975.00           1556          71.00       268.96
 1035.55        2975.25           1559          68.00       255.89
 1035.58        2975.50           1563          58.00       212.29
 1035.61        2975.75           1566          61.00       225.37
 1035.64        2976.00           1569          58.00       212.29
 1035.67        2976.25           1573          56.00       203.58
 1035.70        2976.50           1576          66.00       247.17
 1035.74        2976.75           1579          65.00       242.81
 1035.77        2977.00           1583          63.00       234.09
 1035.80        2977.25           1586          60.00       221.01
 1035.83        2977.50           1590          53.00       190.50
 1035.86        2977.75           1593          59.00       216.65
 1035.89        2978.00           1596          53.00       190.50
 1035.92        2978.25           1600          63.00       234.09
 1035.95        2978.50           1603          55.00       199.22
 1035.98        2978.75           1606          59.00       216.65
 1036.01        2979.00           1610          52.00       186.14
 1036.04        2979.25           1613          57.00       207.94
 1036.07        2979.50           1616          58.00       212.29
 1036.10        2979.75           1620          61.00       225.37
 1036.13        2980.00           1623          57.00       207.94
 1036.17        2980.25           1626          53.00       190.50
 1036.20        2980.50           1630          54.00       194.86
 1036.23        2980.75           1633          62.00       229.73
 1036.26        2981.00           1637          51.00       181.78
 1036.29        2981.25           1640          56.00       203.58
 1036.32        2981.50           1643          52.00       186.14
 1036.35        2981.75           1647          52.00       186.14
 1036.38        2982.00           1650          62.00       229.73
 1036.41        2982.25           1653          56.00       203.58
 1036.44        2982.50           1657          59.00       216.65
 1036.47        2982.75           1660          49.00       173.06
 1036.50        2983.00           1663          50.00       177.42
 1036.53        2983.25           1667          58.00       212.29
 1036.56        2983.50           1670          51.00       181.78
 1036.59        2983.75           1673          56.00       203.58
 1036.62        2984.00           1677          58.00       212.29
HS scan finished at 17:16:50
end
