************************************************************
  HS Scan of (1) Internal mercury lamp
************************************************************
Integration time is 0.2294 seconds per sample
dh100119Manchester 53.47 2.23 2.804185pr1000
************************************************************
Dead Time -------------------------  3E-08 
Number of Cycles Used -------------  4 
Starting Wavelength (Angstroms) ---  2950 
Final Wavelength (Angstoms) -------  2984 
Wavelength Increment (Angstroms) --  .25 
Filter Wheel #1 Position ---------- (1) Ground quartz diffuser (ND=2.32)
Filter Wheel #2 Position ---------- (1) Neutral Density 0.494



************************************************************
HS scan start time = 05:25:01
Dark Count =  6.2 


Time (GMT)  Wavelength (Ang)  Step Number  Raw Counts  Counts/Second

  325.38        2950.00           1222          58.00       225.81
  325.45        2950.25           1226          51.00       195.29
  325.48        2950.50           1229          58.00       225.81
  325.51        2950.75           1232          57.00       221.45
  325.54        2951.00           1236          59.00       230.17
  325.57        2951.25           1239          58.00       225.81
  325.60        2951.50           1242          56.00       217.09
  325.63        2951.75           1246          55.00       212.73
  325.66        2952.00           1249          53.00       204.01
  325.69        2952.25           1252          50.00       190.93
  325.72        2952.50           1256          53.00       204.01
  325.75        2952.75           1259          51.00       195.29
  325.79        2953.00           1262          50.00       190.93
  325.82        2953.25           1266          47.00       177.86
  325.85        2953.50           1269          49.00       186.57
  325.88        2953.75           1272          52.00       199.65
  325.91        2954.00           1276          57.00       221.45
  325.94        2954.25           1279          61.00       238.89
  325.97        2954.50           1282          56.00       217.09
  326.00        2954.75           1286          54.00       208.37
  326.03        2955.00           1289          53.00       204.01
  326.06        2955.25           1292          54.00       208.37
  326.09        2955.50           1296          50.00       190.93
  326.12        2955.75           1299          55.00       212.73
  326.16        2956.00           1302          59.00       230.17
  326.19        2956.25           1306          53.00       204.01
  326.22        2956.50           1309          52.00       199.65
  326.25        2956.75           1312          51.00       195.29
  326.28        2957.00           1316          55.00       212.73
  326.31        2957.25           1319          54.00       208.37
  326.34        2957.50           1322          50.00       190.93
  326.37        2957.75           1326          58.00       225.81
  326.40        2958.00           1329          55.00       212.73
  326.43        2958.25           1332          59.00       230.17
  326.46        2958.50           1336          52.00       199.65
  326.49        2958.75           1339          52.00       199.65
  326.53        2959.00           1342          55.00       212.73
  326.56        2959.25           1346          57.00       221.45
  326.59        2959.50           1349          65.00       256.32
  326.62        2959.75           1352          72.00       286.84
  326.65        2960.00           1356          88.00       356.59
  326.68        2960.25           1359         113.00       465.57
  326.71        2960.50           1362         146.00       609.43
  326.74        2960.75           1366         193.00       814.32
  326.77        2961.00           1369         212.00       897.15
  326.80        2961.25           1372         250.00      1062.81
  326.83        2961.50           1376         298.00      1272.06
  326.86        2961.75           1379         424.00      1821.37
  326.90        2962.00           1382         823.00      3560.97
  326.93        2962.25           1386        2105.00      9151.60
  326.96        2962.50           1389        3142.00     13675.18
  326.99        2962.75           1392        4246.00     18492.38
  327.02        2963.00           1396        5696.00     24821.44
  327.05        2963.25           1399        6795.00     29620.03
  327.08        2963.50           1402        7977.00     34782.57
  327.11        2963.75           1406        9615.00     41939.40
  327.14        2964.00           1409       10714.00     46742.92
  327.18        2964.25           1412       11980.00     52278.10
  327.21        2964.50           1416       13563.00     59201.83
  327.24        2964.75           1419       14832.00     64754.27
  327.27        2965.00           1422       16149.00     70518.69
  327.30        2965.25           1426       17608.00     76906.98
  327.33        2965.50           1429       18873.00     82447.79
  327.36        2965.75           1432       19852.00     86737.19
  327.39        2966.00           1436       21462.00     93793.63
  327.42        2966.25           1439       22627.00     98901.56
  327.46        2966.50           1442       23479.00    102638.10
  327.49        2966.75           1446       24646.00    107757.60
  327.52        2967.00           1449       25050.00    109530.20
  327.55        2967.25           1452       25216.00    110258.60
  327.58        2967.50           1456       24997.00    109297.70
  327.61        2967.75           1459       25025.00    109420.50
  327.64        2968.00           1462       24934.00    109021.20
  327.67        2968.25           1466       24331.00    106375.60
  327.70        2968.50           1469       23352.00    102081.10
  327.73        2968.75           1472       22309.00     97507.13
  327.77        2969.00           1476       20859.00     91150.39
  327.80        2969.25           1479       19787.00     86452.36
  327.83        2969.50           1482       18697.00     81676.79
  327.86        2969.75           1486       17060.00     74507.25
  327.89        2970.00           1489       15935.00     69581.88
  327.92        2970.25           1492       14844.00     64806.78
  327.95        2970.50           1496       13217.00     57688.24
  327.98        2970.75           1499       12163.00     53078.35
  328.01        2971.00           1502       10880.00     47468.60
  328.05        2971.25           1506        9183.00     40051.58
  328.08        2971.50           1509        8079.00     35228.15
  328.11        2971.75           1513        6706.00     29231.38
  328.14        2972.00           1516        5502.00     23974.52
  328.17        2972.25           1519        4303.00     18741.14
  328.20        2972.50           1523        2929.00     12745.94
  328.23        2972.75           1526        1812.00      7873.70
  328.26        2973.00           1529         888.00      3844.38
  328.29        2973.25           1533         321.00      1372.33
  328.32        2973.50           1536         248.00      1054.09
  328.35        2973.75           1539         195.00       823.04
  328.38        2974.00           1543         169.00       709.69
  328.42        2974.25           1546         125.00       517.88
  328.45        2974.50           1549         100.00       408.90
  328.48        2974.75           1553          74.00       295.56
  328.51        2975.00           1556          57.00       221.45
  328.54        2975.25           1559          67.00       265.04
  328.57        2975.50           1563          55.00       212.73
  328.60        2975.75           1566          49.00       186.57
  328.63        2976.00           1569          51.00       195.29
  328.66        2976.25           1573          54.00       208.37
  328.69        2976.50           1576          49.00       186.57
  328.72        2976.75           1579          55.00       212.73
  328.75        2977.00           1583          50.00       190.93
  328.78        2977.25           1586          50.00       190.93
  328.81        2977.50           1590          49.00       186.57
  328.85        2977.75           1593          51.00       195.29
  328.88        2978.00           1596          47.00       177.86
  328.91        2978.25           1600          42.00       156.06
  328.94        2978.50           1603          48.00       182.22
  328.97        2978.75           1606          56.00       217.09
  329.00        2979.00           1610          60.00       234.53
  329.03        2979.25           1613          50.00       190.93
  329.06        2979.50           1616          50.00       190.93
  329.09        2979.75           1620          51.00       195.29
  329.12        2980.00           1623          52.00       199.65
  329.15        2980.25           1626          47.00       177.86
  329.18        2980.50           1630          52.00       199.65
  329.21        2980.75           1633          58.00       225.81
  329.24        2981.00           1637          49.00       186.57
  329.27        2981.25           1640          58.00       225.81
  329.30        2981.50           1643          47.00       177.86
  329.33        2981.75           1647          48.00       182.22
  329.36        2982.00           1650          49.00       186.57
  329.40        2982.25           1653          57.00       221.45
  329.43        2982.50           1657          46.00       173.50
  329.46        2982.75           1660          49.00       186.57
  329.49        2983.00           1663          55.00       212.73
  329.52        2983.25           1667          49.00       186.57
  329.55        2983.50           1670          50.00       190.93
  329.58        2983.75           1673          52.00       199.65
  329.61        2984.00           1677          46.00       173.50
HS scan finished at 05:29:50
end
************************************************************
  HS Scan of (1) Internal mercury lamp
************************************************************
Integration time is 0.2294 seconds per sample
dh100119Manchester 53.47 2.23 2.804185pr1000
************************************************************
Dead Time -------------------------  3E-08 
Number of Cycles Used -------------  4 
Starting Wavelength (Angstroms) ---  2950 
Final Wavelength (Angstoms) -------  2984 
Wavelength Increment (Angstroms) --  .25 
Filter Wheel #1 Position ---------- (1) Ground quartz diffuser (ND=2.32)
Filter Wheel #2 Position ---------- (1) Neutral Density 0.494



************************************************************
HS scan start time = 17:12:01
Dark Count =  5.5 


Time (GMT)  Wavelength (Ang)  Step Number  Raw Counts  Counts/Second

 1032.38        2950.00           1222          47.00       180.91
 1032.45        2950.25           1226          52.00       202.70
 1032.48        2950.50           1229          55.00       215.78
 1032.51        2950.75           1232          54.00       211.42
 1032.54        2951.00           1236          58.00       228.86
 1032.57        2951.25           1239          51.00       198.34
 1032.60        2951.50           1242          53.00       207.06
 1032.64        2951.75           1246          53.00       207.06
 1032.67        2952.00           1249          52.00       202.70
 1032.70        2952.25           1252          65.00       259.37
 1032.73        2952.50           1256          64.00       255.02
 1032.76        2952.75           1259          49.00       189.63
 1032.79        2953.00           1262          48.00       185.27
 1032.82        2953.25           1266          49.00       189.63
 1032.85        2953.50           1269          53.00       207.06
 1032.88        2953.75           1272          54.00       211.42
 1032.91        2954.00           1276          57.00       224.50
 1032.94        2954.25           1279          49.00       189.63
 1032.98        2954.50           1282          50.00       193.99
 1033.01        2954.75           1286          50.00       193.99
 1033.04        2955.00           1289          57.00       224.50
 1033.07        2955.25           1292          52.00       202.70
 1033.10        2955.50           1296          55.00       215.78
 1033.13        2955.75           1299          60.00       237.58
 1033.16        2956.00           1302          57.00       224.50
 1033.19        2956.25           1306          48.00       185.27
 1033.22        2956.50           1309          56.00       220.14
 1033.25        2956.75           1312          50.00       193.99
 1033.28        2957.00           1316          58.00       228.86
 1033.31        2957.25           1319          53.00       207.06
 1033.34        2957.50           1322          47.00       180.91
 1033.37        2957.75           1326          56.00       220.14
 1033.41        2958.00           1329          54.00       211.42
 1033.44        2958.25           1332          60.00       237.58
 1033.47        2958.50           1336          57.00       224.50
 1033.50        2958.75           1339          55.00       215.78
 1033.53        2959.00           1342          57.00       224.50
 1033.56        2959.25           1346          54.00       211.42
 1033.59        2959.50           1349          55.00       215.78
 1033.62        2959.75           1352          58.00       228.86
 1033.65        2960.00           1356          85.00       346.56
 1033.68        2960.25           1359         112.00       464.26
 1033.71        2960.50           1362         120.00       499.14
 1033.74        2960.75           1366         176.00       743.26
 1033.77        2961.00           1369         198.00       839.17
 1033.80        2961.25           1372         251.00      1070.22
 1033.83        2961.50           1376         304.00      1301.27
 1033.87        2961.75           1379         381.00      1636.96
 1033.90        2962.00           1382         777.00      3363.46
 1033.93        2962.25           1386        1980.00      8609.46
 1033.96        2962.50           1389        3044.00     13250.69
 1033.99        2962.75           1392        4188.00     18242.33
 1034.02        2963.00           1396        5734.00     24990.39
 1034.05        2963.25           1399        6790.00     29601.26
 1034.08        2963.50           1402        7912.00     34501.69
 1034.11        2963.75           1406        9517.00     41514.18
 1034.14        2964.00           1409       10703.00     46697.90
 1034.17        2964.25           1412       11959.00     52189.32
 1034.20        2964.50           1416       13430.00     58623.07
 1034.23        2964.75           1419       14541.00     63483.91
 1034.27        2965.00           1422       15615.00     68184.24
 1034.30        2965.25           1426       17072.00     74562.85
 1034.33        2965.50           1429       18231.00     79638.61
 1034.36        2965.75           1432       19423.00     84860.49
 1034.39        2966.00           1436       21072.00     92087.10
 1034.42        2966.25           1439       22127.00     96712.19
 1034.45        2966.50           1442       23311.00    101904.30
 1034.48        2966.75           1446       24545.00    107317.50
 1034.51        2967.00           1449       24664.00    107839.60
 1034.54        2967.25           1452       24924.00    108980.40
 1034.58        2967.50           1456       25091.00    109713.20
 1034.61        2967.75           1459       24802.00    108445.10
 1034.64        2968.00           1462       24679.00    107905.40
 1034.67        2968.25           1466       24317.00    106317.20
 1034.70        2968.50           1469       23144.00    101171.90
 1034.73        2968.75           1472       22320.00     97558.44
 1034.76        2969.00           1476       20714.00     90517.93
 1034.79        2969.25           1479       19458.00     85013.84
 1034.83        2969.50           1482       18340.00     80116.05
 1034.86        2969.75           1486       16847.00     73577.66
 1034.89        2970.00           1489       15804.00     69011.52
 1034.92        2970.25           1492       14749.00     64394.12
 1034.95        2970.50           1496       13304.00     58071.88
 1034.98        2970.75           1499       11989.00     52320.51
 1035.01        2971.00           1502       10943.00     47747.08
 1035.04        2971.25           1506        9417.00     41077.18
 1035.07        2971.50           1509        8191.00     35720.47
 1035.11        2971.75           1513        6707.00     29238.80
 1035.14        2972.00           1516        5458.00     23785.50
 1035.17        2972.25           1519        4415.00     19232.98
 1035.20        2972.50           1523        2951.00     12844.97
 1035.23        2972.75           1526        1814.00      7885.48
 1035.26        2973.00           1529         863.00      3738.43
 1035.29        2973.25           1533         368.00      1580.28
 1035.32        2973.50           1536         269.00      1148.69
 1035.35        2973.75           1539         225.00       956.87
 1035.38        2974.00           1543         192.00       813.01
 1035.41        2974.25           1546         144.00       603.76
 1035.45        2974.50           1549         109.00       451.18
 1035.48        2974.75           1553          79.00       320.40
 1035.51        2975.00           1556          68.00       272.45
 1035.54        2975.25           1559          54.00       211.42
 1035.57        2975.50           1563          47.00       180.91
 1035.60        2975.75           1566          53.00       207.06
 1035.63        2976.00           1569          57.00       224.50
 1035.66        2976.25           1573          46.00       176.55
 1035.69        2976.50           1576          56.00       220.14
 1035.72        2976.75           1579          55.00       215.78
 1035.75        2977.00           1583          51.00       198.34
 1035.78        2977.25           1586          52.00       202.70
 1035.82        2977.50           1590          47.00       180.91
 1035.85        2977.75           1593          50.00       193.99
 1035.88        2978.00           1596          49.00       189.63
 1035.91        2978.25           1600          52.00       202.70
 1035.94        2978.50           1603          50.00       193.99
 1035.97        2978.75           1606          46.00       176.55
 1036.00        2979.00           1610          48.00       185.27
 1036.03        2979.25           1613          45.00       172.19
 1036.06        2979.50           1616          54.00       211.42
 1036.09        2979.75           1620          57.00       224.50
 1036.12        2980.00           1623          54.00       211.42
 1036.15        2980.25           1626          50.00       193.99
 1036.19        2980.50           1630          48.00       185.27
 1036.22        2980.75           1633          51.00       198.34
 1036.25        2981.00           1637          51.00       198.34
 1036.28        2981.25           1640          46.00       176.55
 1036.31        2981.50           1643          46.00       176.55
 1036.34        2981.75           1647          54.00       211.42
 1036.37        2982.00           1650          47.00       180.91
 1036.40        2982.25           1653          45.00       172.19
 1036.43        2982.50           1657          46.00       176.55
 1036.46        2982.75           1660          52.00       202.70
 1036.49        2983.00           1663          52.00       202.70
 1036.52        2983.25           1667          49.00       189.63
 1036.55        2983.50           1670          52.00       202.70
 1036.59        2983.75           1673          49.00       189.63
 1036.62        2984.00           1677          45.00       172.19
HS scan finished at 17:16:50
end
************************************************************
  HS Scan of (1) Internal mercury lamp
************************************************************
Integration time is 0.2294 seconds per sample
dh100119Manchester 53.47 2.23 2.804185pr1000
************************************************************
Dead Time -------------------------  3E-08 
Number of Cycles Used -------------  4 
Starting Wavelength (Angstroms) ---  2950 
Final Wavelength (Angstoms) -------  2984 
Wavelength Increment (Angstroms) --  .25 
Filter Wheel #1 Position ---------- (1) Ground quartz diffuser (ND=2.32)
Filter Wheel #2 Position ---------- (1) Neutral Density 0.494



************************************************************
HS scan start time = 19:13:18
Dark Count =  4.1 


Time (GMT)  Wavelength (Ang)  Step Number  Raw Counts  Counts/Second

 1153.67        2950.00           1222          50.00       200.09
 1153.74        2950.25           1226          56.00       226.24
 1153.77        2950.50           1229          51.00       204.45
 1153.80        2950.75           1232          56.00       226.24
 1153.83        2951.00           1236          54.00       217.53
 1153.86        2951.25           1239          55.00       221.88
 1153.89        2951.50           1242          64.00       261.12
 1153.92        2951.75           1246          60.00       243.68
 1153.95        2952.00           1249          53.00       213.17
 1153.98        2952.25           1252          60.00       243.68
 1154.01        2952.50           1256          60.00       243.68
 1154.05        2952.75           1259          61.00       248.04
 1154.08        2953.00           1262          49.00       195.73
 1154.11        2953.25           1266          54.00       217.53
 1154.14        2953.50           1269          49.00       195.73
 1154.17        2953.75           1272          51.00       204.45
 1154.20        2954.00           1276          55.00       221.88
 1154.23        2954.25           1279          59.00       239.32
 1154.26        2954.50           1282          52.00       208.81
 1154.29        2954.75           1286          54.00       217.53
 1154.32        2955.00           1289          49.00       195.73
 1154.35        2955.25           1292          51.00       204.45
 1154.38        2955.50           1296          53.00       213.17
 1154.41        2955.75           1299          50.00       200.09
 1154.44        2956.00           1302          49.00       195.73
 1154.47        2956.25           1306          52.00       208.81
 1154.51        2956.50           1309          52.00       208.81
 1154.54        2956.75           1312          57.00       230.60
 1154.57        2957.00           1316          62.00       252.40
 1154.60        2957.25           1319          53.00       213.17
 1154.63        2957.50           1322          52.00       208.81
 1154.66        2957.75           1326          58.00       234.96
 1154.69        2958.00           1329          54.00       217.53
 1154.72        2958.25           1332          54.00       217.53
 1154.75        2958.50           1336          63.00       256.76
 1154.79        2958.75           1339          61.00       248.04
 1154.82        2959.00           1342          56.00       226.24
 1154.85        2959.25           1346          54.00       217.53
 1154.88        2959.50           1349          57.00       230.60
 1154.91        2959.75           1352          59.00       239.32
 1154.94        2960.00           1356          73.00       300.35
 1154.97        2960.25           1359          86.00       357.02
 1155.00        2960.50           1362         109.00       457.29
 1155.03        2960.75           1366         154.00       653.46
 1155.06        2961.00           1369         181.00       771.16
 1155.10        2961.25           1372         207.00       884.50
 1155.13        2961.50           1376         252.00      1080.68
 1155.16        2961.75           1379         348.00      1499.20
 1155.19        2962.00           1382         707.00      3064.36
 1155.22        2962.25           1386        1876.00      8161.98
 1155.25        2962.50           1389        2936.00     12785.64
 1155.28        2962.75           1392        4034.00     17576.40
 1155.31        2963.00           1396        5496.00     23957.49
 1155.34        2963.25           1399        6549.00     28554.97
 1155.37        2963.50           1402        7771.00     33891.90
 1155.41        2963.75           1406        9535.00     41598.96
 1155.44        2964.00           1409       10731.00     46826.42
 1155.47        2964.25           1412       11970.00     52243.55
 1155.50        2964.50           1416       13494.00     58909.17
 1155.53        2964.75           1419       14642.00     63932.01
 1155.56        2965.00           1422       15837.00     69162.10
 1155.59        2965.25           1426       17529.00     76570.20
 1155.62        2965.50           1429       18487.00     80766.08
 1155.65        2965.75           1432       19685.00     86014.61
 1155.68        2966.00           1436       21164.00     92496.51
 1155.72        2966.25           1439       22376.00     97810.13
 1155.75        2966.50           1442       23473.00    102621.00
 1155.78        2966.75           1446       24567.00    107420.20
 1155.81        2967.00           1449       24943.00    109069.90
 1155.84        2967.25           1452       24875.00    108771.50
 1155.87        2967.50           1456       25125.00    109868.50
 1155.90        2967.75           1459       24855.00    108683.80
 1155.93        2968.00           1462       24766.00    108293.30
 1155.96        2968.25           1466       24284.00    106178.60
 1156.00        2968.50           1469       23367.00    102156.10
 1156.03        2968.75           1472       22478.00     98257.39
 1156.06        2969.00           1476       20896.00     91321.78
 1156.09        2969.25           1479       19658.00     85896.30
 1156.12        2969.50           1482       18429.00     80512.02
 1156.15        2969.75           1486       17117.00     74766.04
 1156.18        2970.00           1489       15847.00     69205.88
 1156.21        2970.25           1492       14676.00     64080.79
 1156.24        2970.50           1496       13196.00     57605.57
 1156.28        2970.75           1499       11924.00     52042.40
 1156.31        2971.00           1502       10828.00     47250.46
 1156.34        2971.25           1506        9316.00     40641.94
 1156.37        2971.50           1509        8259.00     36023.66
 1156.40        2971.75           1513        6817.00     29725.28
 1156.43        2972.00           1516        5741.00     25027.07
 1156.46        2972.25           1519        4575.00     19937.38
 1156.49        2972.50           1523        3001.00     13069.20
 1156.52        2972.75           1526        1878.00      8170.70
 1156.55        2973.00           1529         924.00      4010.51
 1156.59        2973.25           1533         397.00      1712.82
 1156.62        2973.50           1536         299.00      1285.58
 1156.65        2973.75           1539         274.00      1176.59
 1156.68        2974.00           1543         227.00       971.69
 1156.71        2974.25           1546         184.00       784.24
 1156.74        2974.50           1549         157.00       666.53
 1156.77        2974.75           1553         114.00       479.08
 1156.80        2975.00           1556          88.00       365.74
 1156.83        2975.25           1559          76.00       313.43
 1156.86        2975.50           1563          67.00       274.20
 1156.89        2975.75           1566          51.00       204.45
 1156.92        2976.00           1569          51.00       204.45
 1156.96        2976.25           1573          45.00       178.29
 1156.99        2976.50           1576          56.00       226.24
 1157.02        2976.75           1579          56.00       226.24
 1157.05        2977.00           1583          47.00       187.01
 1157.08        2977.25           1586          57.00       230.60
 1157.11        2977.50           1590          45.00       178.29
 1157.14        2977.75           1593          42.00       165.21
 1157.17        2978.00           1596          54.00       217.53
 1157.20        2978.25           1600          52.00       208.81
 1157.23        2978.50           1603          46.00       182.65
 1157.26        2978.75           1606          51.00       204.45
 1157.29        2979.00           1610          48.00       191.37
 1157.33        2979.25           1613          50.00       200.09
 1157.36        2979.50           1616          49.00       195.73
 1157.39        2979.75           1620          56.00       226.24
 1157.42        2980.00           1623          50.00       200.09
 1157.45        2980.25           1626          48.00       191.37
 1157.48        2980.50           1630          52.00       208.81
 1157.51        2980.75           1633          47.00       187.01
 1157.54        2981.00           1637          47.00       187.01
 1157.57        2981.25           1640          42.00       165.21
 1157.60        2981.50           1643          48.00       191.37
 1157.63        2981.75           1647          51.00       204.45
 1157.67        2982.00           1650          52.00       208.81
 1157.70        2982.25           1653          54.00       217.53
 1157.73        2982.50           1657          57.00       230.60
 1157.76        2982.75           1660          52.00       208.81
 1157.79        2983.00           1663          43.00       169.57
 1157.82        2983.25           1667          48.00       191.37
 1157.85        2983.50           1670          49.00       195.73
 1157.88        2983.75           1673          47.00       187.01
 1157.91        2984.00           1677          52.00       208.81
HS scan finished at 19:18:08
end
