************************************************************
  HS Scan of (1) Internal mercury lamp
************************************************************
Integration time is 0.2294 seconds per sample
dh210119Manchester 53.47 2.23 2.804185pr1000
************************************************************
Dead Time -------------------------  3E-08 
Number of Cycles Used -------------  4 
Starting Wavelength (Angstroms) ---  2950 
Final Wavelength (Angstoms) -------  2984 
Wavelength Increment (Angstroms) --  .25 
Filter Wheel #1 Position ---------- (1) Ground quartz diffuser (ND=2.32)
Filter Wheel #2 Position ---------- (1) Neutral Density 0.494



************************************************************
HS scan start time = 05:18:23
Dark Count =  6.8 


Time (GMT)  Wavelength (Ang)  Step Number  Raw Counts  Counts/Second

  318.76        2950.00           1222          55.00       210.11
  318.82        2950.25           1226          50.00       188.32
  318.85        2950.50           1229          54.00       205.76
  318.89        2950.75           1232          55.00       210.11
  318.92        2951.00           1236          57.00       218.83
  318.95        2951.25           1239          56.00       214.47
  318.98        2951.50           1242          50.00       188.32
  319.01        2951.75           1246          52.00       197.04
  319.04        2952.00           1249          57.00       218.83
  319.07        2952.25           1252          50.00       188.32
  319.10        2952.50           1256          59.00       227.55
  319.13        2952.75           1259          58.00       223.19
  319.16        2953.00           1262          49.00       183.96
  319.19        2953.25           1266          50.00       188.32
  319.23        2953.50           1269          53.00       201.40
  319.26        2953.75           1272          59.00       227.55
  319.29        2954.00           1276          58.00       223.19
  319.32        2954.25           1279          56.00       214.47
  319.35        2954.50           1282          54.00       205.76
  319.38        2954.75           1286          60.00       231.91
  319.41        2955.00           1289          54.00       205.76
  319.44        2955.25           1292          62.00       240.63
  319.47        2955.50           1296          50.00       188.32
  319.50        2955.75           1299          53.00       201.40
  319.53        2956.00           1302          63.00       244.99
  319.57        2956.25           1306          60.00       231.91
  319.60        2956.50           1309          46.00       170.88
  319.63        2956.75           1312          58.00       223.19
  319.66        2957.00           1316          52.00       197.04
  319.69        2957.25           1319          52.00       197.04
  319.72        2957.50           1322          50.00       188.32
  319.75        2957.75           1326          50.00       188.32
  319.78        2958.00           1329          60.00       231.91
  319.81        2958.25           1332          54.00       205.76
  319.85        2958.50           1336          52.00       197.04
  319.88        2958.75           1339          45.00       166.52
  319.91        2959.00           1342          64.00       249.35
  319.94        2959.25           1346          52.00       197.04
  319.97        2959.50           1349          62.00       240.63
  320.00        2959.75           1352          76.00       301.66
  320.03        2960.00           1356          99.00       401.92
  320.06        2960.25           1359         121.00       497.83
  320.09        2960.50           1362         147.00       611.17
  320.13        2960.75           1366         185.00       776.83
  320.16        2961.00           1369         227.00       959.92
  320.19        2961.25           1372         240.00      1016.60
  320.22        2961.50           1376         289.00      1230.21
  320.25        2961.75           1379         333.00      1422.03
  320.28        2962.00           1382         577.00      2485.80
  320.31        2962.25           1386        1614.00      7007.58
  320.34        2962.50           1389        2761.00     12010.43
  320.37        2962.75           1392        3893.00     16949.33
  320.40        2963.00           1396        5497.00     23950.07
  320.43        2963.25           1399        6656.00     29010.42
  320.47        2963.50           1402        7743.00     33757.80
  320.50        2963.75           1406        9189.00     40075.18
  320.53        2964.00           1409       10491.00     45765.49
  320.56        2964.25           1412       11691.00     51011.75
  320.59        2964.50           1416       13291.00     58009.33
  320.62        2964.75           1419       14425.00     62970.64
  320.65        2965.00           1422       15612.00     68165.41
  320.68        2965.25           1426       17339.00     75726.33
  320.71        2965.50           1429       18540.00     80986.41
  320.75        2965.75           1432       19612.00     85682.91
  320.78        2966.00           1436       21130.00     92335.63
  320.81        2966.25           1439       22265.00     97311.57
  320.84        2966.50           1442       23187.00    101354.80
  320.87        2966.75           1446       24612.00    107605.80
  320.90        2967.00           1449       25185.00    110120.00
  320.93        2967.25           1452       25306.00    110650.90
  320.96        2967.50           1456       25283.00    110550.00
  321.00        2967.75           1459       25343.00    110813.30
  321.03        2968.00           1462       25362.00    110896.70
  321.06        2968.25           1466       24857.00    108680.70
  321.09        2968.50           1469       23705.00    103626.80
  321.12        2968.75           1472       22733.00     99363.75
  321.15        2969.00           1476       21245.00     92839.72
  321.18        2969.25           1479       20235.00     88412.91
  321.21        2969.50           1482       18925.00     82672.97
  321.24        2969.75           1486       17514.00     76492.68
  321.28        2970.00           1489       16397.00     71601.77
  321.31        2970.25           1492       15235.00     66515.34
  321.34        2970.50           1496       13675.00     59689.18
  321.37        2970.75           1499       12520.00     54637.00
  321.40        2971.00           1502       11280.00     49214.72
  321.43        2971.25           1506        9797.00     42732.17
  321.46        2971.50           1509        8527.00     37182.70
  321.49        2971.75           1513        7016.00     30582.54
  321.52        2972.00           1516        5849.00     25486.79
  321.55        2972.25           1519        4696.00     20453.70
  321.58        2972.50           1523        3140.00     13663.84
  321.62        2972.75           1526        2115.00      9192.60
  321.65        2973.00           1529        1023.00      4430.41
  321.68        2973.25           1533         363.00      1552.82
  321.71        2973.50           1536         249.00      1055.83
  321.74        2973.75           1539         219.00       925.05
  321.77        2974.00           1543         178.00       746.31
  321.80        2974.25           1546         142.00       589.37
  321.83        2974.50           1549         101.00       410.64
  321.86        2974.75           1553          74.00       292.94
  321.89        2975.00           1556          64.00       249.35
  321.93        2975.25           1559          48.00       179.60
  321.96        2975.50           1563          52.00       197.04
  321.99        2975.75           1566          56.00       214.47
  322.02        2976.00           1569          50.00       188.32
  322.05        2976.25           1573          54.00       205.76
  322.08        2976.50           1576          56.00       214.47
  322.11        2976.75           1579          46.00       170.88
  322.14        2977.00           1583          56.00       214.47
  322.17        2977.25           1586          52.00       197.04
  322.20        2977.50           1590          48.00       179.60
  322.24        2977.75           1593          51.00       192.68
  322.27        2978.00           1596          53.00       201.40
  322.30        2978.25           1600          54.00       205.76
  322.33        2978.50           1603          49.00       183.96
  322.36        2978.75           1606          48.00       179.60
  322.39        2979.00           1610          56.00       214.47
  322.42        2979.25           1613          45.00       166.52
  322.45        2979.50           1616          52.00       197.04
  322.48        2979.75           1620          57.00       218.83
  322.51        2980.00           1623          58.00       223.19
  322.55        2980.25           1626          51.00       192.68
  322.58        2980.50           1630          51.00       192.68
  322.61        2980.75           1633          53.00       201.40
  322.64        2981.00           1637          52.00       197.04
  322.67        2981.25           1640          52.00       197.04
  322.70        2981.50           1643          49.00       183.96
  322.73        2981.75           1647          54.00       205.76
  322.76        2982.00           1650          45.00       166.52
  322.79        2982.25           1653          57.00       218.83
  322.82        2982.50           1657          50.00       188.32
  322.85        2982.75           1660          47.00       175.24
  322.88        2983.00           1663          51.00       192.68
  322.91        2983.25           1667          42.00       153.44
  322.94        2983.50           1670          54.00       205.76
  322.97        2983.75           1673          48.00       179.60
  323.01        2984.00           1677          45.00       166.52
HS scan finished at 05:23:13
end
************************************************************
  HS Scan of (1) Internal mercury lamp
************************************************************
Integration time is 0.2294 seconds per sample
dh210119Manchester 53.47 2.23 2.750537pr1000
************************************************************
Dead Time -------------------------  3E-08 
Number of Cycles Used -------------  4 
Starting Wavelength (Angstroms) ---  2950 
Final Wavelength (Angstoms) -------  2984 
Wavelength Increment (Angstroms) --  .25 
Filter Wheel #1 Position ---------- (1) Ground quartz diffuser (ND=2.32)
Filter Wheel #2 Position ---------- (1) Neutral Density 0.494



************************************************************
HS scan start time = 17:42:03
Dark Count =  5.2 


Time (GMT)  Wavelength (Ang)  Step Number  Raw Counts  Counts/Second

 1062.42        2950.00           1222          58.00       230.17
 1062.49        2950.25           1226          53.00       208.37
 1062.52        2950.50           1229          53.00       208.37
 1062.55        2950.75           1232          49.00       190.93
 1062.58        2951.00           1236          53.00       208.37
 1062.61        2951.25           1239          60.00       238.89
 1062.64        2951.50           1242          52.00       204.01
 1062.67        2951.75           1246          49.00       190.93
 1062.70        2952.00           1249          51.00       199.65
 1062.74        2952.25           1252          53.00       208.37
 1062.77        2952.50           1256          59.00       234.53
 1062.80        2952.75           1259          50.00       195.29
 1062.83        2953.00           1262          54.00       212.73
 1062.86        2953.25           1266          60.00       238.89
 1062.89        2953.50           1269          52.00       204.01
 1062.92        2953.75           1272          50.00       195.29
 1062.95        2954.00           1276          58.00       230.17
 1062.98        2954.25           1279          54.00       212.73
 1063.01        2954.50           1282          52.00       204.01
 1063.04        2954.75           1286          59.00       234.53
 1063.08        2955.00           1289          54.00       212.73
 1063.11        2955.25           1292          54.00       212.73
 1063.14        2955.50           1296          57.00       225.81
 1063.17        2955.75           1299          55.00       217.09
 1063.20        2956.00           1302          51.00       199.65
 1063.23        2956.25           1306          62.00       247.60
 1063.26        2956.50           1309          61.00       243.25
 1063.29        2956.75           1312          53.00       208.37
 1063.32        2957.00           1316          46.00       177.86
 1063.35        2957.25           1319          51.00       199.65
 1063.38        2957.50           1322          55.00       217.09
 1063.41        2957.75           1326          55.00       217.09
 1063.44        2958.00           1329          53.00       208.37
 1063.48        2958.25           1332          52.00       204.01
 1063.51        2958.50           1336          56.00       221.45
 1063.54        2958.75           1339          52.00       204.01
 1063.57        2959.00           1342          57.00       225.81
 1063.60        2959.25           1346          49.00       190.93
 1063.63        2959.50           1349          58.00       230.17
 1063.66        2959.75           1352          66.00       265.04
 1063.69        2960.00           1356          82.00       334.79
 1063.72        2960.25           1359          98.00       404.54
 1063.75        2960.50           1362         131.00       548.40
 1063.79        2960.75           1366         150.00       631.22
 1063.82        2961.00           1369         189.00       801.24
 1063.85        2961.25           1372         214.00       910.23
 1063.88        2961.50           1376         273.00      1167.43
 1063.91        2961.75           1379         349.00      1498.76
 1063.94        2962.00           1382         684.00      2959.29
 1063.97        2962.25           1386        1862.00      8096.13
 1064.00        2962.50           1389        2881.00     12540.90
 1064.03        2962.75           1392        4067.00     17715.60
 1064.06        2963.00           1396        5510.00     24013.81
 1064.09        2963.25           1399        6611.00     28820.90
 1064.13        2963.50           1402        7641.00     33319.25
 1064.16        2963.75           1406        9243.00     40318.14
 1064.19        2964.00           1409       10451.00     45597.64
 1064.22        2964.25           1412       11675.00     50948.78
 1064.25        2964.50           1416       13209.00     57657.63
 1064.28        2964.75           1419       14319.00     62513.82
 1064.31        2965.00           1422       15429.00     67371.43
 1064.34        2965.25           1426       17153.00     74918.85
 1064.37        2965.50           1429       18211.00     79552.32
 1064.41        2965.75           1432       19173.00     83766.49
 1064.44        2966.00           1436       20930.00     91465.99
 1064.47        2966.25           1439       21821.00     95371.88
 1064.50        2966.50           1442       22939.00    100274.20
 1064.53        2966.75           1446       24146.00    105568.30
 1064.56        2967.00           1449       24300.00    106243.90
 1064.59        2967.25           1452       24442.00    106866.90
 1064.62        2967.50           1456       24431.00    106818.70
 1064.65        2967.75           1459       24579.00    107468.00
 1064.69        2968.00           1462       24394.00    106656.30
 1064.72        2968.25           1466       23712.00    103664.50
 1064.75        2968.50           1469       22761.00     99493.57
 1064.78        2968.75           1472       21870.00     95586.72
 1064.81        2969.00           1476       20220.00     88354.21
 1064.84        2969.25           1479       19254.00     84121.37
 1064.87        2969.50           1482       18322.00     80038.53
 1064.90        2969.75           1486       16538.00     72226.08
 1064.93        2970.00           1489       15502.00     67690.94
 1064.96        2970.25           1492       14413.00     62925.14
 1065.00        2970.50           1496       12977.00     56642.82
 1065.03        2970.75           1499       11747.00     51263.61
 1065.06        2971.00           1502       10560.00     46074.10
 1065.09        2971.25           1506        9056.00     39501.02
 1065.12        2971.50           1509        7978.00     34791.31
 1065.15        2971.75           1513        6425.00     28008.70
 1065.18        2972.00           1516        5432.00     23673.30
 1065.21        2972.25           1519        4352.00     18959.34
 1065.24        2972.50           1523        2901.00     12628.15
 1065.28        2972.75           1526        1844.00      8017.62
 1065.31        2973.00           1529         841.00      3643.82
 1065.34        2973.25           1533         363.00      1559.79
 1065.37        2973.50           1536         253.00      1080.24
 1065.40        2973.75           1539         201.00       853.55
 1065.43        2974.00           1543         179.00       757.65
 1065.46        2974.25           1546         146.00       613.79
 1065.49        2974.50           1549         118.00       491.72
 1065.52        2974.75           1553          89.00       365.30
 1065.55        2975.00           1556          71.00       286.84
 1065.59        2975.25           1559          61.00       243.25
 1065.62        2975.50           1563          58.00       230.17
 1065.65        2975.75           1566          50.00       195.29
 1065.68        2976.00           1569          53.00       208.37
 1065.71        2976.25           1573          56.00       221.45
 1065.74        2976.50           1576          55.00       217.09
 1065.77        2976.75           1579          57.00       225.81
 1065.80        2977.00           1583          55.00       217.09
 1065.83        2977.25           1586          61.00       243.25
 1065.87        2977.50           1590          51.00       199.65
 1065.90        2977.75           1593          51.00       199.65
 1065.93        2978.00           1596          45.00       173.50
 1065.96        2978.25           1600          57.00       225.81
 1065.99        2978.50           1603          50.00       195.29
 1066.02        2978.75           1606          41.00       156.06
 1066.05        2979.00           1610          50.00       195.29
 1066.08        2979.25           1613          55.00       217.09
 1066.11        2979.50           1616          43.00       164.78
 1066.14        2979.75           1620          50.00       195.29
 1066.17        2980.00           1623          45.00       173.50
 1066.21        2980.25           1626          56.00       221.45
 1066.24        2980.50           1630          52.00       204.01
 1066.27        2980.75           1633          48.00       186.57
 1066.30        2981.00           1637          55.00       217.09
 1066.33        2981.25           1640          45.00       173.50
 1066.36        2981.50           1643          51.00       199.65
 1066.39        2981.75           1647          47.00       182.22
 1066.42        2982.00           1650          57.00       225.81
 1066.45        2982.25           1653          54.00       212.73
 1066.49        2982.50           1657          43.00       164.78
 1066.52        2982.75           1660          50.00       195.29
 1066.55        2983.00           1663          55.00       217.09
 1066.58        2983.25           1667          54.00       212.73
 1066.61        2983.50           1670          56.00       221.45
 1066.64        2983.75           1673          45.00       173.50
 1066.67        2984.00           1677          46.00       177.86
HS scan finished at 17:46:53
end
