************************************************************
  HS Scan of (1) Internal mercury lamp
************************************************************
Integration time is 0.2294 seconds per sample
dh270119Manchester 53.47 2.23 2.750537pr1000
************************************************************
Dead Time -------------------------  3E-08 
Number of Cycles Used -------------  4 
Starting Wavelength (Angstroms) ---  2950 
Final Wavelength (Angstoms) -------  2984 
Wavelength Increment (Angstroms) --  .25 
Filter Wheel #1 Position ---------- (1) Ground quartz diffuser (ND=2.32)
Filter Wheel #2 Position ---------- (1) Neutral Density 0.494



************************************************************
HS scan start time = 05:12:16
Dark Count =  7.6 


Time (GMT)  Wavelength (Ang)  Step Number  Raw Counts  Counts/Second

  312.64        2950.00           1222          54.00       202.27
  312.70        2950.25           1226          57.00       215.35
  312.74        2950.50           1229          55.00       206.63
  312.77        2950.75           1232          57.00       215.35
  312.80        2951.00           1236          48.00       176.11
  312.83        2951.25           1239          57.00       215.35
  312.86        2951.50           1242          56.00       210.99
  312.89        2951.75           1246          57.00       215.35
  312.92        2952.00           1249          46.00       167.39
  312.95        2952.25           1252          47.00       171.75
  312.98        2952.50           1256          60.00       228.42
  313.01        2952.75           1259          55.00       206.63
  313.05        2953.00           1262          49.00       180.47
  313.08        2953.25           1266          57.00       215.35
  313.11        2953.50           1269          52.00       193.55
  313.14        2953.75           1272          53.00       197.91
  313.17        2954.00           1276          57.00       215.35
  313.20        2954.25           1279          55.00       206.63
  313.23        2954.50           1282          51.00       189.19
  313.26        2954.75           1286          51.00       189.19
  313.29        2955.00           1289          60.00       228.42
  313.33        2955.25           1292          61.00       232.78
  313.36        2955.50           1296          46.00       167.39
  313.39        2955.75           1299          55.00       206.63
  313.42        2956.00           1302          48.00       176.11
  313.45        2956.25           1306          51.00       189.19
  313.48        2956.50           1309          53.00       197.91
  313.51        2956.75           1312          46.00       167.39
  313.54        2957.00           1316          53.00       197.91
  313.57        2957.25           1319          54.00       202.27
  313.60        2957.50           1322          51.00       189.19
  313.63        2957.75           1326          55.00       206.63
  313.67        2958.00           1329          54.00       202.27
  313.70        2958.25           1332          61.00       232.78
  313.73        2958.50           1336          53.00       197.91
  313.76        2958.75           1339          56.00       210.99
  313.79        2959.00           1342          53.00       197.91
  313.82        2959.25           1346          48.00       176.11
  313.85        2959.50           1349          55.00       206.63
  313.88        2959.75           1352          65.00       250.22
  313.91        2960.00           1356          88.00       350.48
  313.94        2960.25           1359          97.00       389.72
  313.98        2960.50           1362         117.00       476.90
  314.01        2960.75           1366         162.00       673.07
  314.04        2961.00           1369         205.00       860.53
  314.07        2961.25           1372         232.00       978.23
  314.10        2961.50           1376         272.00      1152.61
  314.13        2961.75           1379         324.00      1379.31
  314.16        2962.00           1382         442.00      1893.74
  314.19        2962.25           1386        1255.00      5438.55
  314.22        2962.50           1389        2291.00      9956.77
  314.26        2962.75           1392        3371.00     14668.18
  314.29        2963.00           1396        4936.00     21497.73
  314.32        2963.25           1399        6049.00     26356.49
  314.35        2963.50           1402        7129.00     31072.54
  314.38        2963.75           1406        8673.00     37817.08
  314.41        2964.00           1409       10008.00     43650.85
  314.44        2964.25           1412       11083.00     48349.94
  314.47        2964.50           1416       12725.00     55530.10
  314.50        2964.75           1419       13835.00     60385.67
  314.54        2965.00           1422       15202.00     66367.41
  314.57        2965.25           1426       16764.00     73205.06
  314.60        2965.50           1429       17970.00     78486.25
  314.63        2965.75           1432       19295.00     84290.47
  314.66        2966.00           1436       20828.00     91008.38
  314.69        2966.25           1439       21807.00     95299.98
  314.72        2966.50           1442       22952.00    100320.70
  314.75        2966.75           1446       24279.00    106141.30
  314.78        2967.00           1449       25314.00    110682.50
  314.82        2967.25           1452       25516.00    111569.00
  314.85        2967.50           1456       25786.00    112753.90
  314.88        2967.75           1459       25628.00    112060.50
  314.91        2968.00           1462       25845.00    113012.90
  314.94        2968.25           1466       25432.00    111200.30
  314.97        2968.50           1469       24815.00    108492.90
  315.00        2968.75           1472       23887.00    104421.60
  315.03        2969.00           1476       22476.00     98233.28
  315.06        2969.25           1479       21062.00     92034.06
  315.10        2969.50           1482       20053.00     87611.84
  315.13        2969.75           1486       18378.00     80273.30
  315.16        2970.00           1489       17333.00     75696.56
  315.19        2970.25           1492       16281.00     71090.44
  315.22        2970.50           1496       14664.00     64012.97
  315.25        2970.75           1499       13500.00     58920.10
  315.28        2971.00           1502       12398.00     54099.94
  315.31        2971.25           1506       10649.00     46452.66
  315.35        2971.50           1509        9333.00     40700.93
  315.38        2971.75           1513        7786.00     33942.13
  315.41        2972.00           1516        6704.00     29216.53
  315.44        2972.25           1519        5485.00     23894.19
  315.47        2972.50           1523        4002.00     17421.48
  315.50        2972.75           1526        2835.00     12329.76
  315.53        2973.00           1529        1691.00      7339.89
  315.56        2973.25           1533         577.00      2482.31
  315.59        2973.50           1536         317.00      1348.79
  315.63        2973.75           1539         240.00      1013.11
  315.66        2974.00           1543         181.00       755.90
  315.69        2974.25           1546         150.00       620.76
  315.72        2974.50           1549         128.00       524.86
  315.75        2974.75           1553          87.00       346.12
  315.78        2975.00           1556          70.00       272.02
  315.81        2975.25           1559          55.00       206.63
  315.84        2975.50           1563          47.00       171.75
  315.87        2975.75           1566          62.00       237.14
  315.90        2976.00           1569          53.00       197.91
  315.94        2976.25           1573          58.00       219.71
  315.97        2976.50           1576          44.00       158.68
  316.00        2976.75           1579          53.00       197.91
  316.03        2977.00           1583          55.00       206.63
  316.06        2977.25           1586          51.00       189.19
  316.09        2977.50           1590          46.00       167.39
  316.12        2977.75           1593          52.00       193.55
  316.15        2978.00           1596          57.00       215.35
  316.18        2978.25           1600          48.00       176.11
  316.21        2978.50           1603          50.00       184.83
  316.24        2978.75           1606          48.00       176.11
  316.28        2979.00           1610          44.00       158.68
  316.31        2979.25           1613          58.00       219.71
  316.34        2979.50           1616          47.00       171.75
  316.37        2979.75           1620          48.00       176.11
  316.40        2980.00           1623          47.00       171.75
  316.43        2980.25           1626          47.00       171.75
  316.46        2980.50           1630          49.00       180.47
  316.49        2980.75           1633          49.00       180.47
  316.52        2981.00           1637          54.00       202.27
  316.55        2981.25           1640          52.00       193.55
  316.59        2981.50           1643          49.00       180.47
  316.62        2981.75           1647          50.00       184.83
  316.65        2982.00           1650          47.00       171.75
  316.68        2982.25           1653          50.00       184.83
  316.71        2982.50           1657          50.00       184.83
  316.74        2982.75           1660          40.00       141.24
  316.77        2983.00           1663          51.00       189.19
  316.80        2983.25           1667          45.00       163.03
  316.83        2983.50           1670          42.00       149.96
  316.86        2983.75           1673          51.00       189.19
  316.89        2984.00           1677          44.00       158.68
HS scan finished at 05:17:07
end
************************************************************
  HS Scan of (1) Internal mercury lamp
************************************************************
Integration time is 0.2294 seconds per sample
dh270119Manchester 53.47 2.23 2.750537pr1000
************************************************************
Dead Time -------------------------  3E-08 
Number of Cycles Used -------------  4 
Starting Wavelength (Angstroms) ---  2950 
Final Wavelength (Angstoms) -------  2984 
Wavelength Increment (Angstroms) --  .25 
Filter Wheel #1 Position ---------- (1) Ground quartz diffuser (ND=2.32)
Filter Wheel #2 Position ---------- (1) Neutral Density 0.494



************************************************************
HS scan start time = 17:42:08
Dark Count =  6.4 


Time (GMT)  Wavelength (Ang)  Step Number  Raw Counts  Counts/Second

 1062.50        2950.00           1222          52.00       198.78
 1062.56        2950.25           1226          49.00       185.70
 1062.59        2950.50           1229          57.00       220.58
 1062.62        2950.75           1232          52.00       198.78
 1062.65        2951.00           1236          58.00       224.94
 1062.69        2951.25           1239          60.00       233.65
 1062.72        2951.50           1242          52.00       198.78
 1062.75        2951.75           1246          51.00       194.42
 1062.78        2952.00           1249          53.00       203.14
 1062.81        2952.25           1252          49.00       185.70
 1062.84        2952.50           1256          61.00       238.01
 1062.87        2952.75           1259          49.00       185.70
 1062.90        2953.00           1262          53.00       203.14
 1062.93        2953.25           1266          61.00       238.01
 1062.96        2953.50           1269          50.00       190.06
 1063.00        2953.75           1272          63.00       246.73
 1063.03        2954.00           1276          55.00       211.86
 1063.06        2954.25           1279          52.00       198.78
 1063.09        2954.50           1282          52.00       198.78
 1063.12        2954.75           1286          56.00       216.22
 1063.15        2955.00           1289          53.00       203.14
 1063.18        2955.25           1292          57.00       220.58
 1063.21        2955.50           1296          50.00       190.06
 1063.24        2955.75           1299          53.00       203.14
 1063.27        2956.00           1302          52.00       198.78
 1063.30        2956.25           1306          51.00       194.42
 1063.33        2956.50           1309          55.00       211.86
 1063.37        2956.75           1312          56.00       216.22
 1063.40        2957.00           1316          51.00       194.42
 1063.43        2957.25           1319          56.00       216.22
 1063.46        2957.50           1322          60.00       233.65
 1063.49        2957.75           1326          48.00       181.34
 1063.52        2958.00           1329          56.00       216.22
 1063.55        2958.25           1332          61.00       238.01
 1063.58        2958.50           1336          47.00       176.98
 1063.61        2958.75           1339          55.00       211.86
 1063.64        2959.00           1342          51.00       194.42
 1063.67        2959.25           1346          48.00       181.34
 1063.71        2959.50           1349          51.00       194.42
 1063.74        2959.75           1352          62.00       242.37
 1063.77        2960.00           1356          77.00       307.76
 1063.80        2960.25           1359         110.00       451.62
 1063.83        2960.50           1362         131.00       543.16
 1063.86        2960.75           1366         177.00       743.70
 1063.89        2961.00           1369         199.00       839.60
 1063.92        2961.25           1372         231.00       979.10
 1063.95        2961.50           1376         266.00      1131.69
 1063.98        2961.75           1379         414.00      1776.90
 1064.01        2962.00           1382         793.00      3429.30
 1064.05        2962.25           1386        2075.00      9019.88
 1064.08        2962.50           1389        3119.00     13573.97
 1064.11        2962.75           1392        4281.00     18644.25
 1064.14        2963.00           1396        5721.00     24929.71
 1064.17        2963.25           1399        6868.00     29937.95
 1064.20        2963.50           1402        8278.00     36096.61
 1064.23        2963.75           1406        9899.00     43179.71
 1064.26        2964.00           1409       11212.00     48919.17
 1064.29        2964.25           1412       12311.00     53724.71
 1064.32        2964.50           1416       14083.00     61475.96
 1064.36        2964.75           1419       15092.00     65891.24
 1064.39        2965.00           1422       16394.00     71590.38
 1064.42        2965.25           1426       17832.00     77887.10
 1064.45        2965.50           1429       18992.00     82968.25
 1064.48        2965.75           1432       20357.00     88949.34
 1064.51        2966.00           1436       21824.00     95379.76
 1064.54        2966.25           1439       22944.00    100290.80
 1064.57        2966.50           1442       24036.00    105080.50
 1064.60        2966.75           1446       25327.00    110744.80
 1064.63        2967.00           1449       25540.00    111679.60
 1064.67        2967.25           1452       25685.00    112315.90
 1064.70        2967.50           1456       25719.00    112465.10
 1064.73        2967.75           1459       25364.00    110907.20
 1064.76        2968.00           1462       25534.00    111653.20
 1064.79        2968.25           1466       24900.00    108871.10
 1064.82        2968.50           1469       24010.00    104966.50
 1064.85        2968.75           1472       22805.00     99681.25
 1064.88        2969.00           1476       21440.00     93696.31
 1064.91        2969.25           1479       20121.00     87915.09
 1064.94        2969.50           1482       18929.00     82692.25
 1064.98        2969.75           1486       17393.00     75964.56
 1065.01        2970.00           1489       16200.00     70741.08
 1065.04        2970.25           1492       14974.00     65374.82
 1065.07        2970.50           1496       13357.00     58299.78
 1065.10        2970.75           1499       12275.00     53567.27
 1065.13        2971.00           1502       11123.00     48530.07
 1065.16        2971.25           1506        9568.00     41733.12
 1065.19        2971.50           1509        8455.00     36869.88
 1065.22        2971.75           1513        7009.00     30553.72
 1065.26        2972.00           1516        5721.00     24929.71
 1065.29        2972.25           1519        4570.00     19905.52
 1065.32        2972.50           1523        2917.00     12692.71
 1065.35        2972.75           1526        1781.00      7737.63
 1065.38        2973.00           1529         845.00      3656.02
 1065.41        2973.25           1533         369.00      1580.72
 1065.44        2973.50           1536         279.00      1188.36
 1065.47        2973.75           1539         224.00       948.59
 1065.50        2974.00           1543         181.00       761.13
 1065.53        2974.25           1546         149.00       621.63
 1065.56        2974.50           1549         114.00       469.06
 1065.60        2974.75           1553          81.00       325.20
 1065.63        2975.00           1556          64.00       251.09
 1065.66        2975.25           1559          56.00       216.22
 1065.69        2975.50           1563          53.00       203.14
 1065.72        2975.75           1566          60.00       233.65
 1065.75        2976.00           1569          51.00       194.42
 1065.78        2976.25           1573          47.00       176.98
 1065.81        2976.50           1576          53.00       203.14
 1065.84        2976.75           1579          45.00       168.27
 1065.87        2977.00           1583          51.00       194.42
 1065.91        2977.25           1586          50.00       190.06
 1065.94        2977.50           1590          45.00       168.27
 1065.97        2977.75           1593          56.00       216.22
 1066.00        2978.00           1596          56.00       216.22
 1066.03        2978.25           1600          51.00       194.42
 1066.06        2978.50           1603          53.00       203.14
 1066.09        2978.75           1606          45.00       168.27
 1066.12        2979.00           1610          56.00       216.22
 1066.15        2979.25           1613          45.00       168.27
 1066.18        2979.50           1616          45.00       168.27
 1066.22        2979.75           1620          55.00       211.86
 1066.25        2980.00           1623          56.00       216.22
 1066.28        2980.25           1626          50.00       190.06
 1066.31        2980.50           1630          48.00       181.34
 1066.34        2980.75           1633          56.00       216.22
 1066.37        2981.00           1637          46.00       172.63
 1066.40        2981.25           1640          47.00       176.98
 1066.43        2981.50           1643          44.00       163.91
 1066.46        2981.75           1647          44.00       163.91
 1066.49        2982.00           1650          52.00       198.78
 1066.53        2982.25           1653          48.00       181.34
 1066.56        2982.50           1657          52.00       198.78
 1066.59        2982.75           1660          50.00       190.06
 1066.62        2983.00           1663          49.00       185.70
 1066.65        2983.25           1667          52.00       198.78
 1066.68        2983.50           1670          50.00       190.06
 1066.71        2983.75           1673          48.00       181.34
 1066.74        2984.00           1677          48.00       181.34
HS scan finished at 17:46:58
end
