************************************************************
  HS Scan of (1) Internal mercury lamp
************************************************************
Integration time is 0.2294 seconds per sample
dh240119Manchester 53.47 2.23 2.804185pr1000
************************************************************
Dead Time -------------------------  3E-08 
Number of Cycles Used -------------  4 
Starting Wavelength (Angstroms) ---  2950 
Final Wavelength (Angstoms) -------  2984 
Wavelength Increment (Angstroms) --  .25 
Filter Wheel #1 Position ---------- (1) Ground quartz diffuser (ND=2.32)
Filter Wheel #2 Position ---------- (1) Neutral Density 0.494



************************************************************
HS scan start time = 05:15:31
Dark Count =  6.8 


Time (GMT)  Wavelength (Ang)  Step Number  Raw Counts  Counts/Second

  315.89        2950.00           1222          53.00       201.40
  315.96        2950.25           1226          60.00       231.91
  315.99        2950.50           1229          49.00       183.96
  316.02        2950.75           1232          49.00       183.96
  316.05        2951.00           1236          55.00       210.11
  316.08        2951.25           1239          60.00       231.91
  316.11        2951.50           1242          49.00       183.96
  316.14        2951.75           1246          58.00       223.19
  316.17        2952.00           1249          53.00       201.40
  316.20        2952.25           1252          50.00       188.32
  316.23        2952.50           1256          53.00       201.40
  316.26        2952.75           1259          56.00       214.47
  316.30        2953.00           1262          57.00       218.83
  316.33        2953.25           1266          54.00       205.76
  316.36        2953.50           1269          59.00       227.55
  316.39        2953.75           1272          53.00       201.40
  316.42        2954.00           1276          60.00       231.91
  316.45        2954.25           1279          56.00       214.47
  316.48        2954.50           1282          46.00       170.88
  316.51        2954.75           1286          56.00       214.47
  316.54        2955.00           1289          58.00       223.19
  316.57        2955.25           1292          53.00       201.40
  316.60        2955.50           1296          64.00       249.35
  316.63        2955.75           1299          52.00       197.04
  316.66        2956.00           1302          53.00       201.40
  316.70        2956.25           1306          49.00       183.96
  316.73        2956.50           1309          54.00       205.76
  316.76        2956.75           1312          49.00       183.96
  316.79        2957.00           1316          53.00       201.40
  316.82        2957.25           1319          52.00       197.04
  316.85        2957.50           1322          49.00       183.96
  316.88        2957.75           1326          56.00       214.47
  316.91        2958.00           1329          51.00       192.68
  316.94        2958.25           1332          62.00       240.63
  316.98        2958.50           1336          50.00       188.32
  317.01        2958.75           1339          51.00       192.68
  317.04        2959.00           1342          54.00       205.76
  317.07        2959.25           1346          54.00       205.76
  317.10        2959.50           1349          67.00       262.43
  317.13        2959.75           1352          74.00       292.94
  317.16        2960.00           1356          96.00       388.85
  317.19        2960.25           1359         131.00       541.42
  317.22        2960.50           1362         142.00       589.37
  317.25        2960.75           1366         198.00       833.50
  317.28        2961.00           1369         223.00       942.49
  317.32        2961.25           1372         258.00      1095.07
  317.35        2961.50           1376         304.00      1295.60
  317.38        2961.75           1379         442.00      1897.23
  317.41        2962.00           1382         959.00      4151.35
  317.44        2962.25           1386        2381.00     10352.82
  317.47        2962.50           1389        3588.00     15618.48
  317.50        2962.75           1392        4668.00     20331.49
  317.53        2963.00           1396        6095.00     26560.83
  317.56        2963.25           1399        7331.00     31958.26
  317.60        2963.50           1402        8541.00     37243.86
  317.63        2963.75           1406       10061.00     43885.99
  317.66        2964.00           1409       11265.00     49149.14
  317.69        2964.25           1412       12552.00     54776.95
  317.72        2964.50           1416       14166.00     61837.37
  317.75        2964.75           1419       15296.00     66782.31
  317.78        2965.00           1422       16589.00     72442.36
  317.81        2965.25           1426       17974.00     78507.26
  317.84        2965.50           1429       19397.00     84740.88
  317.88        2965.75           1432       20462.00     89407.75
  317.91        2966.00           1436       21989.00     96101.43
  317.94        2966.25           1439       23045.00    100732.00
  317.97        2966.50           1442       24069.00    105223.50
  318.00        2966.75           1446       25270.00    110493.00
  318.03        2967.00           1449       25540.00    111677.80
  318.06        2967.25           1452       25695.00    112358.10
  318.09        2967.50           1456       25708.00    112415.10
  318.12        2967.75           1459       25512.00    111554.90
  318.16        2968.00           1462       25496.00    111484.70
  318.19        2968.25           1466       24478.00    107017.80
  318.22        2968.50           1469       23691.00    103565.40
  318.25        2968.75           1472       22618.00     98859.46
  318.28        2969.00           1476       20991.00     91726.34
  318.31        2969.25           1479       19815.00     86572.41
  318.34        2969.50           1482       18838.00     82291.84
  318.37        2969.75           1486       17157.00     74929.36
  318.40        2970.00           1489       16013.00     69920.71
  318.44        2970.25           1492       14739.00     64344.67
  318.47        2970.50           1496       13126.00     57287.57
  318.50        2970.75           1499       12016.00     52432.90
  318.53        2971.00           1502       10837.00     47278.00
  318.56        2971.25           1506        9355.00     40800.57
  318.59        2971.50           1509        8138.00     35483.26
  318.62        2971.75           1513        6556.00     28573.74
  318.65        2972.00           1516        5476.00     23858.40
  318.68        2972.25           1519        4202.00     18297.75
  318.72        2972.50           1523        2695.00     11722.52
  318.75        2972.75           1526        1600.00      6946.52
  318.78        2973.00           1529         724.00      3126.71
  318.81        2973.25           1533         325.00      1387.15
  318.84        2973.50           1536         256.00      1086.35
  318.87        2973.75           1539         232.00       981.72
  318.90        2974.00           1543         180.00       755.03
  318.93        2974.25           1546         132.00       545.78
  318.96        2974.50           1549         108.00       441.16
  318.99        2974.75           1553          83.00       332.17
  319.03        2975.00           1556          63.00       244.99
  319.06        2975.25           1559          60.00       231.91
  319.09        2975.50           1563          51.00       192.68
  319.12        2975.75           1566          50.00       188.32
  319.15        2976.00           1569          50.00       188.32
  319.18        2976.25           1573          45.00       166.52
  319.21        2976.50           1576          56.00       214.47
  319.24        2976.75           1579          52.00       197.04
  319.27        2977.00           1583          52.00       197.04
  319.30        2977.25           1586          48.00       179.60
  319.33        2977.50           1590          62.00       240.63
  319.37        2977.75           1593          51.00       192.68
  319.40        2978.00           1596          51.00       192.68
  319.43        2978.25           1600          48.00       179.60
  319.46        2978.50           1603          47.00       175.24
  319.49        2978.75           1606          46.00       170.88
  319.52        2979.00           1610          43.00       157.80
  319.55        2979.25           1613          62.00       240.63
  319.58        2979.50           1616          49.00       183.96
  319.61        2979.75           1620          49.00       183.96
  319.64        2980.00           1623          49.00       183.96
  319.68        2980.25           1626          57.00       218.83
  319.71        2980.50           1630          51.00       192.68
  319.74        2980.75           1633          46.00       170.88
  319.77        2981.00           1637          46.00       170.88
  319.80        2981.25           1640          49.00       183.96
  319.83        2981.50           1643          51.00       192.68
  319.86        2981.75           1647          49.00       183.96
  319.89        2982.00           1650          53.00       201.40
  319.92        2982.25           1653          53.00       201.40
  319.95        2982.50           1657          51.00       192.68
  319.98        2982.75           1660          58.00       223.19
  320.01        2983.00           1663          50.00       188.32
  320.04        2983.25           1667          43.00       157.80
  320.08        2983.50           1670          50.00       188.32
  320.11        2983.75           1673          48.00       179.60
  320.14        2984.00           1677          51.00       192.68
HS scan finished at 05:20:21
end
************************************************************
  HS Scan of (1) Internal mercury lamp
************************************************************
Integration time is 0.2294 seconds per sample
dh240119Manchester 53.47 2.23 2.804185pr1000
************************************************************
Dead Time -------------------------  3E-08 
Number of Cycles Used -------------  4 
Starting Wavelength (Angstroms) ---  2950 
Final Wavelength (Angstoms) -------  2984 
Wavelength Increment (Angstroms) --  .25 
Filter Wheel #1 Position ---------- (1) Ground quartz diffuser (ND=2.32)
Filter Wheel #2 Position ---------- (1) Neutral Density 0.494



************************************************************
HS scan start time = 17:42:03
Dark Count =  7.2 


Time (GMT)  Wavelength (Ang)  Step Number  Raw Counts  Counts/Second

 1062.42        2950.00           1222          63.00       243.25
 1062.48        2950.25           1226          53.00       199.65
 1062.51        2950.50           1229          51.00       190.93
 1062.55        2950.75           1232          56.00       212.73
 1062.58        2951.00           1236          50.00       186.57
 1062.61        2951.25           1239          52.00       195.29
 1062.64        2951.50           1242          61.00       234.53
 1062.67        2951.75           1246          49.00       182.22
 1062.70        2952.00           1249          52.00       195.29
 1062.73        2952.25           1252          61.00       234.53
 1062.76        2952.50           1256          55.00       208.37
 1062.79        2952.75           1259          53.00       199.65
 1062.82        2953.00           1262          47.00       173.50
 1062.85        2953.25           1266          51.00       190.93
 1062.88        2953.50           1269          66.00       256.32
 1062.91        2953.75           1272          61.00       234.53
 1062.95        2954.00           1276          59.00       225.81
 1062.98        2954.25           1279          54.00       204.01
 1063.01        2954.50           1282          58.00       221.45
 1063.04        2954.75           1286          57.00       217.09
 1063.07        2955.00           1289          55.00       208.37
 1063.10        2955.25           1292          54.00       204.01
 1063.13        2955.50           1296          49.00       182.22
 1063.16        2955.75           1299          46.00       169.14
 1063.19        2956.00           1302          56.00       212.73
 1063.22        2956.25           1306          45.00       164.78
 1063.25        2956.50           1309          53.00       199.65
 1063.29        2956.75           1312          53.00       199.65
 1063.32        2957.00           1316          51.00       190.93
 1063.35        2957.25           1319          49.00       182.22
 1063.38        2957.50           1322          45.00       164.78
 1063.41        2957.75           1326          60.00       230.17
 1063.44        2958.00           1329          57.00       217.09
 1063.47        2958.25           1332          62.00       238.89
 1063.50        2958.50           1336          56.00       212.73
 1063.53        2958.75           1339          61.00       234.53
 1063.56        2959.00           1342          52.00       195.29
 1063.59        2959.25           1346          51.00       190.93
 1063.62        2959.50           1349          62.00       238.89
 1063.65        2959.75           1352          75.00       295.56
 1063.68        2960.00           1356          95.00       382.74
 1063.71        2960.25           1359         108.00       439.41
 1063.74        2960.50           1362         138.00       570.19
 1063.78        2960.75           1366         170.00       709.69
 1063.81        2961.00           1369         211.00       888.43
 1063.84        2961.25           1372         248.00      1049.73
 1063.87        2961.50           1376         298.00      1267.70
 1063.90        2961.75           1379         424.00      1817.01
 1063.93        2962.00           1382         825.00      3565.33
 1063.96        2962.25           1386        2133.00      9269.36
 1063.99        2962.50           1389        3230.00     14054.75
 1064.02        2962.75           1392        4347.00     18928.79
 1064.05        2963.00           1396        5726.00     24948.05
 1064.08        2963.25           1399        6994.00     30484.71
 1064.12        2963.50           1402        8372.00     36503.78
 1064.15        2963.75           1406        9957.00     43429.70
 1064.18        2964.00           1409       11193.00     48832.60
 1064.21        2964.25           1412       12398.00     54101.69
 1064.24        2964.50           1416       14101.00     61551.22
 1064.27        2964.75           1419       15210.00     66404.18
 1064.30        2965.00           1422       16462.00     71884.60
 1064.33        2965.25           1426       18086.00     78996.06
 1064.36        2965.50           1429       19098.00     83429.13
 1064.39        2965.75           1432       20192.00     88222.74
 1064.43        2966.00           1436       22048.00     96358.36
 1064.46        2966.25           1439       23063.00    100809.20
 1064.49        2966.50           1442       24093.00    105327.10
 1064.52        2966.75           1446       25108.00    109780.30
 1064.55        2967.00           1449       25349.00    110837.90
 1064.58        2967.25           1452       25481.00    111417.10
 1064.61        2967.50           1456       25555.00    111741.90
 1064.64        2967.75           1459       25452.00    111289.90
 1064.67        2968.00           1462       25231.00    110320.10
 1064.70        2968.25           1466       24619.00    107634.70
 1064.74        2968.50           1469       23663.00    103440.80
 1064.77        2968.75           1472       22521.00     98432.36
 1064.80        2969.00           1476       20797.00     90874.26
 1064.83        2969.25           1479       19787.00     86447.99
 1064.86        2969.50           1482       18734.00     81834.50
 1064.89        2969.75           1486       17131.00     74813.77
 1064.92        2970.00           1489       15787.00     68929.66
 1064.95        2970.25           1492       14829.00     64736.76
 1064.98        2970.50           1496       13172.00     57487.03
 1065.02        2970.75           1499       11956.00     52168.77
 1065.05        2971.00           1502       10829.00     47241.27
 1065.08        2971.25           1506        9257.00     40370.58
 1065.11        2971.50           1509        8153.00     35547.04
 1065.14        2971.75           1513        6599.00     28759.77
 1065.17        2972.00           1516        5437.00     23686.40
 1065.20        2972.25           1519        4294.00     18697.50
 1065.23        2972.50           1523        2671.00     11616.08
 1065.26        2972.75           1526        1585.00      6879.36
 1065.30        2973.00           1529         735.00      3172.93
 1065.33        2973.25           1533         336.00      1433.37
 1065.36        2973.50           1536         258.00      1093.32
 1065.39        2973.75           1539         219.00       923.30
 1065.42        2974.00           1543         190.00       796.88
 1065.45        2974.25           1546         141.00       583.27
 1065.48        2974.50           1549         112.00       456.85
 1065.51        2974.75           1553          73.00       286.84
 1065.54        2975.00           1556          66.00       256.32
 1065.57        2975.25           1559          57.00       217.09
 1065.60        2975.50           1563          52.00       195.29
 1065.63        2975.75           1566          57.00       217.09
 1065.67        2976.00           1569          57.00       217.09
 1065.70        2976.25           1573          51.00       190.93
 1065.73        2976.50           1576          48.00       177.86
 1065.76        2976.75           1579          60.00       230.17
 1065.79        2977.00           1583          54.00       204.01
 1065.82        2977.25           1586          47.00       173.50
 1065.85        2977.50           1590          52.00       195.29
 1065.88        2977.75           1593          52.00       195.29
 1065.91        2978.00           1596          50.00       186.57
 1065.94        2978.25           1600          54.00       204.01
 1065.97        2978.50           1603          49.00       182.22
 1066.00        2978.75           1606          54.00       204.01
 1066.04        2979.00           1610          60.00       230.17
 1066.07        2979.25           1613          56.00       212.73
 1066.10        2979.50           1616          51.00       190.93
 1066.13        2979.75           1620          43.00       156.06
 1066.16        2980.00           1623          47.00       173.50
 1066.19        2980.25           1626          42.00       151.70
 1066.22        2980.50           1630          48.00       177.86
 1066.25        2980.75           1633          45.00       164.78
 1066.28        2981.00           1637          45.00       164.78
 1066.31        2981.25           1640          48.00       177.86
 1066.34        2981.50           1643          51.00       190.93
 1066.37        2981.75           1647          54.00       204.01
 1066.40        2982.00           1650          48.00       177.86
 1066.44        2982.25           1653          50.00       186.57
 1066.47        2982.50           1657          46.00       169.14
 1066.50        2982.75           1660          48.00       177.86
 1066.53        2983.00           1663          51.00       190.93
 1066.56        2983.25           1667          52.00       195.29
 1066.59        2983.50           1670          48.00       177.86
 1066.62        2983.75           1673          46.00       169.14
 1066.65        2984.00           1677          56.00       212.73
HS scan finished at 17:46:52
end
