************************************************************
  HS Scan of (1) Internal mercury lamp
************************************************************
Integration time is 0.2294 seconds per sample
dh200117Manchester 53.47 2.23 2.804185pr1000
************************************************************
Dead Time -------------------------  3E-08 
Number of Cycles Used -------------  4 
Starting Wavelength (Angstroms) ---  2950 
Final Wavelength (Angstoms) -------  2984 
Wavelength Increment (Angstroms) --  .25 
Filter Wheel #1 Position ---------- (1) Ground quartz diffuser (ND=2.32)
Filter Wheel #2 Position ---------- (1) Neutral Density 0.494



************************************************************
HS scan start time = 05:18:43
Dark Count =  6.3 


Time (GMT)  Wavelength (Ang)  Step Number  Raw Counts  Counts/Second

  319.09        2950.00           1222          47.00       177.42
  319.16        2950.25           1226          42.00       155.62
  319.19        2950.50           1229          41.00       151.26
  319.22        2950.75           1232          53.00       203.58
  319.25        2951.00           1236          40.00       146.91
  319.28        2951.25           1239          45.00       168.70
  319.31        2951.50           1242          43.00       159.98
  319.34        2951.75           1246          47.00       177.42
  319.37        2952.00           1249          36.00       129.47
  319.40        2952.25           1252          49.00       186.14
  319.43        2952.50           1256          44.00       164.34
  319.46        2952.75           1259          50.00       190.50
  319.50        2953.00           1262          40.00       146.91
  319.53        2953.25           1266          40.00       146.91
  319.56        2953.50           1269          39.00       142.55
  319.59        2953.75           1272          52.00       199.22
  319.62        2954.00           1276          44.00       164.34
  319.65        2954.25           1279          44.00       164.34
  319.68        2954.50           1282          42.00       155.62
  319.71        2954.75           1286          43.00       159.98
  319.74        2955.00           1289          43.00       159.98
  319.77        2955.25           1292          49.00       186.14
  319.80        2955.50           1296          56.00       216.65
  319.83        2955.75           1299          44.00       164.34
  319.86        2956.00           1302          40.00       146.91
  319.89        2956.25           1306          45.00       168.70
  319.92        2956.50           1309          46.00       173.06
  319.95        2956.75           1312          45.00       168.70
  319.98        2957.00           1316          42.00       155.62
  320.02        2957.25           1319          53.00       203.58
  320.05        2957.50           1322          45.00       168.70
  320.08        2957.75           1326          40.00       146.91
  320.11        2958.00           1329          48.00       181.78
  320.14        2958.25           1332          46.00       173.06
  320.17        2958.50           1336          40.00       146.91
  320.20        2958.75           1339          48.00       181.78
  320.23        2959.00           1342          46.00       173.06
  320.26        2959.25           1346          53.00       203.58
  320.29        2959.50           1349          54.00       207.94
  320.32        2959.75           1352          67.00       264.61
  320.35        2960.00           1356          86.00       347.43
  320.38        2960.25           1359         119.00       491.29
  320.41        2960.50           1362         166.00       696.18
  320.44        2960.75           1366         208.00       879.27
  320.48        2961.00           1369         260.00      1105.97
  320.51        2961.25           1372         313.00      1337.02
  320.54        2961.50           1376         444.00      1908.13
  320.57        2961.75           1379         755.00      3264.05
  320.60        2962.00           1382        1649.00      7162.39
  320.63        2962.25           1386        3608.00     15707.92
  320.66        2962.50           1389        5234.00     22804.18
  320.69        2962.75           1392        6952.00     30305.22
  320.72        2963.00           1396        9110.00     39732.17
  320.75        2963.25           1399       10745.00     46878.01
  320.78        2963.50           1402       12457.00     54363.66
  320.82        2963.75           1406       14636.00     63896.12
  320.85        2964.00           1409       16469.00     71919.18
  320.88        2964.25           1412       18238.00     79665.77
  320.91        2964.50           1416       20480.00     89488.84
  320.94        2964.75           1419       21915.00     95779.18
  320.97        2965.00           1422       23506.00    102756.10
  321.00        2965.25           1426       25981.00    113615.50
  321.03        2965.50           1429       27636.00    120880.90
  321.06        2965.75           1432       29263.00    128026.50
  321.09        2966.00           1436       31656.00    138541.90
  321.13        2966.25           1439       33092.00    144855.20
  321.16        2966.50           1442       34581.00    151404.10
  321.19        2966.75           1446       35659.00    156146.90
  321.22        2967.00           1449       35585.00    155821.30
  321.25        2967.25           1452       35723.00    156428.60
  321.28        2967.50           1456       35673.00    156208.50
  321.31        2967.75           1459       35652.00    156116.10
  321.34        2968.00           1462       35183.00    154052.50
  321.37        2968.25           1466       33751.00    147753.30
  321.41        2968.50           1469       32268.00    141232.30
  321.44        2968.75           1472       30695.00    134318.30
  321.47        2969.00           1476       28520.00    124763.00
  321.50        2969.25           1479       26777.00    117109.50
  321.53        2969.50           1482       25130.00    109880.80
  321.56        2969.75           1486       22779.00     99567.66
  321.59        2970.00           1489       21097.00     92193.16
  321.62        2970.25           1492       19643.00     85820.93
  321.65        2970.50           1496       17429.00     76122.63
  321.68        2970.75           1499       15707.00     68583.43
  321.72        2971.00           1502       14271.00     62298.98
  321.75        2971.25           1506       11971.00     52238.30
  321.78        2971.50           1509       10310.00     44976.52
  321.81        2971.75           1513        8081.00     35236.45
  321.84        2972.00           1516        6494.00     28305.20
  321.87        2972.25           1519        4765.00     20757.04
  321.90        2972.50           1523        2720.00     11833.76
  321.93        2972.75           1526        1477.00      6412.31
  321.96        2973.00           1529         705.00      3046.05
  321.99        2973.25           1533         448.00      1925.57
  322.02        2973.50           1536         370.00      1585.52
  322.06        2973.75           1539         306.00      1306.50
  322.09        2974.00           1543         249.00      1058.01
  322.12        2974.25           1546         197.00       831.32
  322.15        2974.50           1549         155.00       648.23
  322.18        2974.75           1553         109.00       447.70
  322.21        2975.00           1556          73.00       290.76
  322.24        2975.25           1559          56.00       216.65
  322.27        2975.50           1563          50.00       190.50
  322.30        2975.75           1566          52.00       199.22
  322.34        2976.00           1569          47.00       177.42
  322.37        2976.25           1573          48.00       181.78
  322.40        2976.50           1576          45.00       168.70
  322.43        2976.75           1579          47.00       177.42
  322.46        2977.00           1583          48.00       181.78
  322.49        2977.25           1586          43.00       159.98
  322.52        2977.50           1590          47.00       177.42
  322.55        2977.75           1593          50.00       190.50
  322.58        2978.00           1596          39.00       142.55
  322.61        2978.25           1600          40.00       146.91
  322.64        2978.50           1603          51.00       194.86
  322.67        2978.75           1606          45.00       168.70
  322.71        2979.00           1610          50.00       190.50
  322.74        2979.25           1613          44.00       164.34
  322.77        2979.50           1616          40.00       146.91
  322.80        2979.75           1620          49.00       186.14
  322.83        2980.00           1623          43.00       159.98
  322.86        2980.25           1626          42.00       155.62
  322.89        2980.50           1630          40.00       146.91
  322.92        2980.75           1633          42.00       155.62
  322.95        2981.00           1637          50.00       190.50
  322.98        2981.25           1640          52.00       199.22
  323.01        2981.50           1643          49.00       186.14
  323.04        2981.75           1647          42.00       155.62
  323.07        2982.00           1650          42.00       155.62
  323.10        2982.25           1653          44.00       164.34
  323.13        2982.50           1657          43.00       159.98
  323.17        2982.75           1660          41.00       151.26
  323.20        2983.00           1663          35.00       125.11
  323.23        2983.25           1667          40.00       146.91
  323.26        2983.50           1670          44.00       164.34
  323.29        2983.75           1673          44.00       164.34
  323.32        2984.00           1677          47.00       177.42
HS scan finished at 05:23:32
end
************************************************************
  HS Scan of (1) Internal mercury lamp
************************************************************
Integration time is 0.2294 seconds per sample
dh200117Manchester 53.47 2.23 2.750537pr1000
************************************************************
Dead Time -------------------------  3E-08 
Number of Cycles Used -------------  4 
Starting Wavelength (Angstroms) ---  2950 
Final Wavelength (Angstoms) -------  2984 
Wavelength Increment (Angstroms) --  .25 
Filter Wheel #1 Position ---------- (1) Ground quartz diffuser (ND=2.32)
Filter Wheel #2 Position ---------- (1) Neutral Density 0.494



************************************************************
HS scan start time = 17:42:04
Dark Count =  4.6 


Time (GMT)  Wavelength (Ang)  Step Number  Raw Counts  Counts/Second

 1062.44        2950.00           1222          43.00       167.39
 1062.51        2950.25           1226          41.00       158.68
 1062.54        2950.50           1229          43.00       167.39
 1062.57        2950.75           1232          45.00       176.11
 1062.60        2951.00           1236          42.00       163.03
 1062.63        2951.25           1239          42.00       163.03
 1062.66        2951.50           1242          44.00       171.75
 1062.69        2951.75           1246          43.00       167.39
 1062.72        2952.00           1249          41.00       158.68
 1062.75        2952.25           1252          47.00       184.83
 1062.78        2952.50           1256          45.00       176.11
 1062.81        2952.75           1259          45.00       176.11
 1062.84        2953.00           1262          34.00       128.16
 1062.87        2953.25           1266          48.00       189.19
 1062.91        2953.50           1269          37.00       141.24
 1062.94        2953.75           1272          52.00       206.63
 1062.97        2954.00           1276          45.00       176.11
 1063.00        2954.25           1279          41.00       158.68
 1063.03        2954.50           1282          47.00       184.83
 1063.06        2954.75           1286          52.00       206.63
 1063.09        2955.00           1289          40.00       154.32
 1063.12        2955.25           1292          40.00       154.32
 1063.15        2955.50           1296          44.00       171.75
 1063.18        2955.75           1299          43.00       167.39
 1063.21        2956.00           1302          39.00       149.96
 1063.24        2956.25           1306          54.00       215.35
 1063.28        2956.50           1309          39.00       149.96
 1063.31        2956.75           1312          41.00       158.68
 1063.34        2957.00           1316          46.00       180.47
 1063.37        2957.25           1319          43.00       167.39
 1063.40        2957.50           1322          46.00       180.47
 1063.43        2957.75           1326          45.00       176.11
 1063.46        2958.00           1329          52.00       206.63
 1063.49        2958.25           1332          47.00       184.83
 1063.52        2958.50           1336          48.00       189.19
 1063.55        2958.75           1339          50.00       197.91
 1063.59        2959.00           1342          42.00       163.03
 1063.62        2959.25           1346          52.00       206.63
 1063.65        2959.50           1349          52.00       206.63
 1063.68        2959.75           1352          60.00       241.50
 1063.71        2960.00           1356          94.00       389.72
 1063.74        2960.25           1359         127.00       533.57
 1063.77        2960.50           1362         164.00       694.87
 1063.80        2960.75           1366         225.00       960.79
 1063.83        2961.00           1369         279.00      1196.21
 1063.86        2961.25           1372         321.00      1379.31
 1063.89        2961.50           1376         389.00      1675.76
 1063.93        2961.75           1379         514.00      2220.72
 1063.96        2962.00           1382         947.00      4108.61
 1063.99        2962.25           1386        2409.00     10484.55
 1064.02        2962.50           1389        3948.00     17198.93
 1064.05        2962.75           1392        5485.00     23907.29
 1064.08        2963.00           1396        7647.00     33348.08
 1064.11        2963.25           1399        9167.00     39988.67
 1064.14        2963.50           1402       10878.00     47466.85
 1064.17        2963.75           1406       13043.00     56934.13
 1064.20        2964.00           1409       14893.00     65028.23
 1064.23        2964.25           1412       16402.00     71633.28
 1064.26        2964.50           1416       18459.00     80641.25
 1064.29        2964.75           1419       20358.00     88961.61
 1064.33        2965.00           1422       21901.00     95725.25
 1064.36        2965.25           1426       23957.00    104741.90
 1064.39        2965.50           1429       25594.00    111924.50
 1064.42        2965.75           1432       27146.00    118736.90
 1064.45        2966.00           1436       29582.00    129435.40
 1064.48        2966.25           1439       31007.00    135696.90
 1064.51        2966.50           1442       32612.00    142752.20
 1064.54        2966.75           1446       34403.00    150628.60
 1064.57        2967.00           1449       35030.00    153386.90
 1064.60        2967.25           1452       35370.00    154882.80
 1064.64        2967.50           1456       35359.00    154834.40
 1064.67        2967.75           1459       35347.00    154781.60
 1064.70        2968.00           1462       35113.00    153752.00
 1064.73        2968.25           1466       34464.00    150896.90
 1064.76        2968.50           1469       33257.00    145588.30
 1064.79        2968.75           1472       31708.00    138778.00
 1064.82        2969.00           1476       29524.00    129180.60
 1064.85        2969.25           1479       28140.00    123101.60
 1064.88        2969.50           1482       26434.00    115611.30
 1064.92        2969.75           1486       24075.00    105259.50
 1064.95        2970.00           1489       22631.00     98926.12
 1064.98        2970.25           1492       21173.00     92533.77
 1065.01        2970.50           1496       19048.00     83221.47
 1065.04        2970.75           1499       17278.00     75468.85
 1065.07        2971.00           1502       15696.00     68542.72
 1065.10        2971.25           1506       13733.00     59952.55
 1065.13        2971.50           1509       11884.00     51865.30
 1065.16        2971.75           1513        9635.00     42033.80
 1065.20        2972.00           1516        8057.00     35139.03
 1065.23        2972.25           1519        6393.00     27871.60
 1065.26        2972.50           1523        4503.00     19620.96
 1065.29        2972.75           1526        2797.00     12177.07
 1065.32        2973.00           1529        1365.00      5931.31
 1065.35        2973.25           1533         512.00      2212.00
 1065.38        2973.50           1536         344.00      1479.58
 1065.41        2973.75           1539         279.00      1196.21
 1065.44        2974.00           1543         220.00       939.00
 1065.47        2974.25           1546         154.00       651.28
 1065.50        2974.50           1549         128.00       537.93
 1065.53        2974.75           1553          87.00       359.20
 1065.57        2975.00           1556          66.00       267.66
 1065.60        2975.25           1559          56.00       224.06
 1065.63        2975.50           1563          43.00       167.39
 1065.66        2975.75           1566          45.00       176.11
 1065.69        2976.00           1569          41.00       158.68
 1065.72        2976.25           1573          48.00       189.19
 1065.75        2976.50           1576          43.00       167.39
 1065.78        2976.75           1579          42.00       163.03
 1065.81        2977.00           1583          42.00       163.03
 1065.84        2977.25           1586          49.00       193.55
 1065.87        2977.50           1590          47.00       184.83
 1065.90        2977.75           1593          52.00       206.63
 1065.93        2978.00           1596          43.00       167.39
 1065.96        2978.25           1600          45.00       176.11
 1065.99        2978.50           1603          45.00       176.11
 1066.02        2978.75           1606          42.00       163.03
 1066.05        2979.00           1610          41.00       158.68
 1066.09        2979.25           1613          44.00       171.75
 1066.12        2979.50           1616          42.00       163.03
 1066.15        2979.75           1620          42.00       163.03
 1066.18        2980.00           1623          45.00       176.11
 1066.21        2980.25           1626          43.00       167.39
 1066.24        2980.50           1630          48.00       189.19
 1066.27        2980.75           1633          49.00       193.55
 1066.30        2981.00           1637          45.00       176.11
 1066.33        2981.25           1640          38.00       145.60
 1066.36        2981.50           1643          41.00       158.68
 1066.39        2981.75           1647          39.00       149.96
 1066.42        2982.00           1650          41.00       158.68
 1066.45        2982.25           1653          42.00       163.03
 1066.49        2982.50           1657          48.00       189.19
 1066.52        2982.75           1660          42.00       163.03
 1066.55        2983.00           1663          46.00       180.47
 1066.58        2983.25           1667          46.00       180.47
 1066.61        2983.50           1670          39.00       149.96
 1066.64        2983.75           1673          43.00       167.39
 1066.67        2984.00           1677          51.00       202.27
HS scan finished at 17:46:53
end
