************************************************************
  HS Scan of (1) Internal mercury lamp
************************************************************
Integration time is 0.2294 seconds per sample
dh270117Manchester 53.47 2.23 2.750537pr1000
************************************************************
Dead Time -------------------------  3E-08 
Number of Cycles Used -------------  4 
Starting Wavelength (Angstroms) ---  2950 
Final Wavelength (Angstoms) -------  2984 
Wavelength Increment (Angstroms) --  .25 
Filter Wheel #1 Position ---------- (1) Ground quartz diffuser (ND=2.32)
Filter Wheel #2 Position ---------- (1) Neutral Density 0.494



************************************************************
HS scan start time = 05:11:36
Dark Count =  6.8 


Time (GMT)  Wavelength (Ang)  Step Number  Raw Counts  Counts/Second

  311.98        2950.00           1222          45.00       166.52
  312.04        2950.25           1226          42.00       153.44
  312.07        2950.50           1229          39.00       140.37
  312.10        2950.75           1232          44.00       162.16
  312.13        2951.00           1236          48.00       179.60
  312.17        2951.25           1239          39.00       140.37
  312.20        2951.50           1242          41.00       149.09
  312.23        2951.75           1246          45.00       166.52
  312.26        2952.00           1249          42.00       153.44
  312.29        2952.25           1252          38.00       136.01
  312.32        2952.50           1256          42.00       153.44
  312.35        2952.75           1259          37.00       131.65
  312.38        2953.00           1262          42.00       153.44
  312.41        2953.25           1266          45.00       166.52
  312.44        2953.50           1269          47.00       175.24
  312.47        2953.75           1272          48.00       179.60
  312.50        2954.00           1276          53.00       201.40
  312.54        2954.25           1279          48.00       179.60
  312.57        2954.50           1282          39.00       140.37
  312.60        2954.75           1286          48.00       179.60
  312.63        2955.00           1289          39.00       140.37
  312.66        2955.25           1292          46.00       170.88
  312.69        2955.50           1296          43.00       157.80
  312.72        2955.75           1299          47.00       175.24
  312.75        2956.00           1302          46.00       170.88
  312.78        2956.25           1306          50.00       188.32
  312.81        2956.50           1309          49.00       183.96
  312.84        2956.75           1312          33.00       114.21
  312.88        2957.00           1316          40.00       144.73
  312.91        2957.25           1319          39.00       140.37
  312.94        2957.50           1322          50.00       188.32
  312.97        2957.75           1326          61.00       236.27
  313.00        2958.00           1329          49.00       183.96
  313.03        2958.25           1332          43.00       157.80
  313.06        2958.50           1336          47.00       175.24
  313.09        2958.75           1339          45.00       166.52
  313.12        2959.00           1342          46.00       170.88
  313.15        2959.25           1346          51.00       192.68
  313.18        2959.50           1349          50.00       188.32
  313.21        2959.75           1352          71.00       279.86
  313.24        2960.00           1356          92.00       371.41
  313.28        2960.25           1359         130.00       537.06
  313.31        2960.50           1362         172.00       720.16
  313.34        2960.75           1366         222.00       938.13
  313.37        2961.00           1369         282.00      1199.69
  313.40        2961.25           1372         326.00      1391.51
  313.43        2961.50           1376         394.00      1687.97
  313.46        2961.75           1379         574.00      2472.72
  313.49        2962.00           1382        1106.00      4792.32
  313.53        2962.25           1386        2768.00     12040.97
  313.56        2962.50           1389        4352.00     18952.36
  313.59        2962.75           1392        5791.00     25233.57
  313.62        2963.00           1396        7810.00     34050.46
  313.65        2963.25           1399        9319.00     40643.25
  313.68        2963.50           1402       11114.00     48488.98
  313.71        2963.75           1406       13640.00     59536.07
  313.74        2964.00           1409       15358.00     67053.68
  313.77        2964.25           1412       17246.00     75319.08
  313.81        2964.50           1416       19280.00     84228.27
  313.84        2964.75           1419       20921.00     91419.52
  313.87        2965.00           1422       22445.00     98100.84
  313.90        2965.25           1426       24787.00    108373.60
  313.93        2965.50           1429       26304.00    115031.00
  313.96        2965.75           1432       27978.00    122380.50
  313.99        2966.00           1436       30290.00    132536.40
  314.02        2966.25           1439       31821.00    139265.00
  314.05        2966.50           1442       33418.00    146286.60
  314.08        2966.75           1446       34904.00    152822.80
  314.11        2967.00           1449       35474.00    155330.70
  314.14        2967.25           1452       35599.00    155880.70
  314.18        2967.50           1456       35656.00    156131.50
  314.21        2967.75           1459       35670.00    156193.10
  314.24        2968.00           1462       35353.00    154798.30
  314.27        2968.25           1466       34573.00    151366.70
  314.30        2968.50           1469       33349.00    145983.20
  314.33        2968.75           1472       32027.00    140170.60
  314.36        2969.00           1476       29598.00    129496.00
  314.39        2969.25           1479       28265.00    123640.90
  314.42        2969.50           1482       26538.00    116058.10
  314.46        2969.75           1486       24252.00    106026.30
  314.49        2970.00           1489       22816.00     99727.74
  314.52        2970.25           1492       21084.00     92133.99
  314.55        2970.50           1496       18942.00     82747.44
  314.58        2970.75           1499       17351.00     75778.88
  314.61        2971.00           1502       15689.00     68502.45
  314.64        2971.25           1506       13607.00     59391.70
  314.67        2971.50           1509       11862.00     51759.48
  314.70        2971.75           1513        9922.00     43278.48
  314.74        2972.00           1516        8295.00     36169.13
  314.77        2972.25           1519        6626.00     28879.42
  314.80        2972.50           1523        4425.00     19270.95
  314.83        2972.75           1526        2812.00     12232.91
  314.86        2973.00           1529        1430.00      6205.17
  314.89        2973.25           1533         531.00      2285.25
  314.92        2973.50           1536         326.00      1391.51
  314.95        2973.75           1539         273.00      1160.46
  314.98        2974.00           1543         242.00      1025.31
  315.01        2974.25           1546         160.00       667.84
  315.04        2974.50           1549         127.00       523.98
  315.08        2974.75           1553          97.00       393.20
  315.11        2975.00           1556          71.00       279.86
  315.14        2975.25           1559          58.00       223.19
  315.17        2975.50           1563          49.00       183.96
  315.20        2975.75           1566          45.00       166.52
  315.23        2976.00           1569          50.00       188.32
  315.26        2976.25           1573          51.00       192.68
  315.29        2976.50           1576          41.00       149.09
  315.32        2976.75           1579          45.00       166.52
  315.35        2977.00           1583          47.00       175.24
  315.38        2977.25           1586          45.00       166.52
  315.41        2977.50           1590          45.00       166.52
  315.45        2977.75           1593          44.00       162.16
  315.48        2978.00           1596          50.00       188.32
  315.51        2978.25           1600          56.00       214.47
  315.54        2978.50           1603          46.00       170.88
  315.57        2978.75           1606          47.00       175.24
  315.60        2979.00           1610          39.00       140.37
  315.63        2979.25           1613          49.00       183.96
  315.66        2979.50           1616          46.00       170.88
  315.69        2979.75           1620          42.00       153.44
  315.72        2980.00           1623          46.00       170.88
  315.75        2980.25           1626          40.00       144.73
  315.79        2980.50           1630          40.00       144.73
  315.82        2980.75           1633          40.00       144.73
  315.85        2981.00           1637          41.00       149.09
  315.88        2981.25           1640          44.00       162.16
  315.91        2981.50           1643          39.00       140.37
  315.94        2981.75           1647          42.00       153.44
  315.97        2982.00           1650          40.00       144.73
  316.00        2982.25           1653          47.00       175.24
  316.03        2982.50           1657          45.00       166.52
  316.06        2982.75           1660          49.00       183.96
  316.09        2983.00           1663          37.00       131.65
  316.12        2983.25           1667          48.00       179.60
  316.15        2983.50           1670          37.00       131.65
  316.19        2983.75           1673          45.00       166.52
  316.22        2984.00           1677          43.00       157.80
HS scan finished at 05:16:26
end
************************************************************
  HS Scan of (1) Internal mercury lamp
************************************************************
Integration time is 0.2294 seconds per sample
dh270117Manchester 53.47 2.23 2.750537pr1000
************************************************************
Dead Time -------------------------  3E-08 
Number of Cycles Used -------------  4 
Starting Wavelength (Angstroms) ---  2950 
Final Wavelength (Angstoms) -------  2984 
Wavelength Increment (Angstroms) --  .25 
Filter Wheel #1 Position ---------- (1) Ground quartz diffuser (ND=2.32)
Filter Wheel #2 Position ---------- (1) Neutral Density 0.494



************************************************************
HS scan start time = 17:42:01
Dark Count =  4.8 


Time (GMT)  Wavelength (Ang)  Step Number  Raw Counts  Counts/Second

 1062.39        2950.00           1222          45.00       175.24
 1062.45        2950.25           1226          47.00       183.96
 1062.48        2950.50           1229          39.00       149.09
 1062.52        2950.75           1232          45.00       175.24
 1062.55        2951.00           1236          43.00       166.52
 1062.58        2951.25           1239          50.00       197.04
 1062.61        2951.50           1242          43.00       166.52
 1062.64        2951.75           1246          45.00       175.24
 1062.67        2952.00           1249          42.00       162.16
 1062.70        2952.25           1252          48.00       188.32
 1062.73        2952.50           1256          43.00       166.52
 1062.76        2952.75           1259          41.00       157.80
 1062.79        2953.00           1262          42.00       162.16
 1062.82        2953.25           1266          46.00       179.60
 1062.85        2953.50           1269          47.00       183.96
 1062.88        2953.75           1272          42.00       162.16
 1062.91        2954.00           1276          46.00       179.60
 1062.94        2954.25           1279          49.00       192.68
 1062.97        2954.50           1282          43.00       166.52
 1063.00        2954.75           1286          42.00       162.16
 1063.04        2955.00           1289          47.00       183.96
 1063.07        2955.25           1292          53.00       210.11
 1063.10        2955.50           1296          40.00       153.44
 1063.13        2955.75           1299          43.00       166.52
 1063.16        2956.00           1302          42.00       162.16
 1063.19        2956.25           1306          39.00       149.09
 1063.22        2956.50           1309          46.00       179.60
 1063.25        2956.75           1312          43.00       166.52
 1063.28        2957.00           1316          47.00       183.96
 1063.31        2957.25           1319          41.00       157.80
 1063.35        2957.50           1322          42.00       162.16
 1063.38        2957.75           1326          44.00       170.88
 1063.41        2958.00           1329          45.00       175.24
 1063.44        2958.25           1332          42.00       162.16
 1063.47        2958.50           1336          55.00       218.83
 1063.50        2958.75           1339          50.00       197.04
 1063.53        2959.00           1342          39.00       149.09
 1063.56        2959.25           1346          48.00       188.32
 1063.59        2959.50           1349          58.00       231.91
 1063.62        2959.75           1352          69.00       279.86
 1063.65        2960.00           1356         105.00       436.80
 1063.68        2960.25           1359         131.00       550.14
 1063.71        2960.50           1362         171.00       724.51
 1063.75        2960.75           1366         235.00      1003.52
 1063.78        2961.00           1369         268.00      1147.38
 1063.81        2961.25           1372         334.00      1435.11
 1063.84        2961.50           1376         426.00      1836.20
 1063.87        2961.75           1379         612.00      2647.12
 1063.90        2962.00           1382        1243.00      5398.43
 1063.93        2962.25           1386        2808.00     12224.19
 1063.96        2962.50           1389        4347.00     18939.27
 1063.99        2962.75           1392        5923.00     25818.60
 1064.03        2963.00           1396        8008.00     34924.11
 1064.06        2963.25           1399        9640.00     42054.77
 1064.09        2963.50           1402       11415.00     49813.71
 1064.12        2963.75           1406       13447.00     58700.49
 1064.15        2964.00           1409       15310.00     66852.35
 1064.18        2964.25           1412       16841.00     73554.46
 1064.21        2964.50           1416       19232.00     84026.72
 1064.24        2964.75           1419       21040.00     91949.90
 1064.27        2965.00           1422       22577.00     98688.44
 1064.30        2965.25           1426       24703.00    108013.80
 1064.34        2965.50           1429       26244.00    114776.40
 1064.37        2965.75           1432       27790.00    121563.70
 1064.40        2966.00           1436       30021.00    131363.20
 1064.43        2966.25           1439       31469.00    137726.60
 1064.46        2966.50           1442       32990.00    144413.30
 1064.49        2966.75           1446       34666.00    151784.60
 1064.52        2967.00           1449       35241.00    154314.30
 1064.55        2967.25           1452       35535.00    155607.90
 1064.58        2967.50           1456       35626.00    156008.30
 1064.62        2967.75           1459       35551.00    155678.30
 1064.65        2968.00           1462       35405.00    155035.90
 1064.68        2968.25           1466       34383.00    150539.70
 1064.71        2968.50           1469       33138.00    145064.10
 1064.74        2968.75           1472       31453.00    137656.20
 1064.77        2969.00           1476       29338.00    128362.60
 1064.80        2969.25           1479       27912.00    122099.50
 1064.83        2969.50           1482       26267.00    114877.40
 1064.86        2969.75           1486       24257.00    106057.10
 1064.90        2970.00           1489       22516.00     98420.94
 1064.93        2970.25           1492       20893.00     91305.56
 1064.96        2970.50           1496       18705.00     81717.96
 1064.99        2970.75           1499       17021.00     74342.61
 1065.02        2971.00           1502       15263.00     66646.63
 1065.05        2971.25           1506       13197.00     57606.89
 1065.08        2971.50           1509       11529.00     50312.15
 1065.11        2971.75           1513        9467.00     41298.74
 1065.14        2972.00           1516        7650.00     33360.31
 1065.17        2972.25           1519        6125.00     26700.54
 1065.21        2972.50           1523        4044.00     17616.98
 1065.24        2972.75           1526        2510.00     10924.24
 1065.27        2973.00           1529        1177.00      5110.64
 1065.30        2973.25           1533         456.00      1966.99
 1065.33        2973.50           1536         340.00      1461.27
 1065.36        2973.75           1539         281.00      1204.05
 1065.39        2974.00           1543         221.00       942.49
 1065.42        2974.25           1546         186.00       789.91
 1065.45        2974.50           1549         123.00       515.27
 1065.48        2974.75           1553          84.00       345.25
 1065.51        2975.00           1556          65.00       262.43
 1065.55        2975.25           1559          50.00       197.04
 1065.58        2975.50           1563          45.00       175.24
 1065.61        2975.75           1566          42.00       162.16
 1065.64        2976.00           1569          44.00       170.88
 1065.67        2976.25           1573          43.00       166.52
 1065.70        2976.50           1576          45.00       175.24
 1065.73        2976.75           1579          51.00       201.40
 1065.76        2977.00           1583          50.00       197.04
 1065.79        2977.25           1586          49.00       192.68
 1065.82        2977.50           1590          46.00       179.60
 1065.86        2977.75           1593          43.00       166.52
 1065.89        2978.00           1596          46.00       179.60
 1065.92        2978.25           1600          46.00       179.60
 1065.95        2978.50           1603          49.00       192.68
 1065.98        2978.75           1606          46.00       179.60
 1066.01        2979.00           1610          42.00       162.16
 1066.04        2979.25           1613          40.00       153.44
 1066.07        2979.50           1616          47.00       183.96
 1066.10        2979.75           1620          39.00       149.09
 1066.13        2980.00           1623          48.00       188.32
 1066.16        2980.25           1626          48.00       188.32
 1066.20        2980.50           1630          49.00       192.68
 1066.23        2980.75           1633          44.00       170.88
 1066.26        2981.00           1637          41.00       157.80
 1066.29        2981.25           1640          42.00       162.16
 1066.32        2981.50           1643          50.00       197.04
 1066.35        2981.75           1647          42.00       162.16
 1066.38        2982.00           1650          50.00       197.04
 1066.41        2982.25           1653          43.00       166.52
 1066.44        2982.50           1657          40.00       153.44
 1066.47        2982.75           1660          43.00       166.52
 1066.50        2983.00           1663          38.00       144.73
 1066.53        2983.25           1667          48.00       188.32
 1066.57        2983.50           1670          40.00       153.44
 1066.60        2983.75           1673          37.00       140.37
 1066.63        2984.00           1677          38.00       144.73
HS scan finished at 17:46:51
end
