************************************************************
  HS Scan of (1) Internal mercury lamp
************************************************************
Integration time is 0.2294 seconds per sample
dh280119Manchester 53.47 2.23 2.750537pr1000
************************************************************
Dead Time -------------------------  3E-08 
Number of Cycles Used -------------  4 
Starting Wavelength (Angstroms) ---  2950 
Final Wavelength (Angstoms) -------  2984 
Wavelength Increment (Angstroms) --  .25 
Filter Wheel #1 Position ---------- (1) Ground quartz diffuser (ND=2.32)
Filter Wheel #2 Position ---------- (1) Neutral Density 0.494



************************************************************
HS scan start time = 05:11:07
Dark Count =  7 


Time (GMT)  Wavelength (Ang)  Step Number  Raw Counts  Counts/Second

  311.49        2950.00           1222          56.00       213.60
  311.56        2950.25           1226          56.00       213.60
  311.59        2950.50           1229          54.00       204.88
  311.62        2950.75           1232          55.00       209.24
  311.65        2951.00           1236          62.00       239.76
  311.68        2951.25           1239          46.00       170.01
  311.71        2951.50           1242          58.00       222.32
  311.74        2951.75           1246          50.00       187.45
  311.77        2952.00           1249          60.00       231.04
  311.80        2952.25           1252          57.00       217.96
  311.83        2952.50           1256          51.00       191.81
  311.87        2952.75           1259          48.00       178.73
  311.90        2953.00           1262          56.00       213.60
  311.93        2953.25           1266          55.00       209.24
  311.96        2953.50           1269          65.00       252.84
  311.99        2953.75           1272          54.00       204.88
  312.02        2954.00           1276          58.00       222.32
  312.05        2954.25           1279          60.00       231.04
  312.08        2954.50           1282          55.00       209.24
  312.11        2954.75           1286          58.00       222.32
  312.14        2955.00           1289          45.00       165.65
  312.17        2955.25           1292          59.00       226.68
  312.21        2955.50           1296          58.00       222.32
  312.24        2955.75           1299          57.00       217.96
  312.27        2956.00           1302          56.00       213.60
  312.30        2956.25           1306          52.00       196.17
  312.33        2956.50           1309          53.00       200.52
  312.36        2956.75           1312          58.00       222.32
  312.39        2957.00           1316          55.00       209.24
  312.42        2957.25           1319          54.00       204.88
  312.45        2957.50           1322          59.00       226.68
  312.48        2957.75           1326          47.00       174.37
  312.51        2958.00           1329          54.00       204.88
  312.54        2958.25           1332          58.00       222.32
  312.57        2958.50           1336          56.00       213.60
  312.60        2958.75           1339          53.00       200.52
  312.63        2959.00           1342          55.00       209.24
  312.67        2959.25           1346          62.00       239.76
  312.70        2959.50           1349          65.00       252.84
  312.73        2959.75           1352          79.00       313.87
  312.76        2960.00           1356         115.00       470.80
  312.79        2960.25           1359         141.00       584.14
  312.82        2960.50           1362         179.00       749.80
  312.85        2960.75           1366         202.00       850.07
  312.88        2961.00           1369         227.00       959.05
  312.91        2961.25           1372         260.00      1102.91
  312.94        2961.50           1376         313.00      1333.97
  312.98        2961.75           1379         492.00      2114.35
  313.01        2962.00           1382        1102.00      4774.01
  313.04        2962.25           1386        2477.00     10770.70
  313.07        2962.50           1389        3594.00     15643.78
  313.10        2962.75           1392        4762.00     20740.89
  313.13        2963.00           1396        6238.00     27184.32
  313.16        2963.25           1399        7414.00     32319.91
  313.19        2963.50           1402        8607.00     37531.34
  313.22        2963.75           1406       10156.00     44300.34
  313.26        2964.00           1409       11401.00     49742.89
  313.29        2964.25           1412       12565.00     54832.94
  313.32        2964.50           1416       14168.00     61845.24
  313.35        2964.75           1419       15435.00     67389.81
  313.38        2965.00           1422       16496.00     72034.31
  313.41        2965.25           1426       18127.00     79176.52
  313.44        2965.50           1429       19500.00     85191.30
  313.47        2965.75           1432       20556.00     89818.85
  313.51        2966.00           1436       22170.00     96894.16
  313.54        2966.25           1439       23220.00    101498.70
  313.57        2966.50           1442       24215.00    105863.20
  313.60        2966.75           1446       25435.00    111216.10
  313.63        2967.00           1449       25702.00    112387.90
  313.66        2967.25           1452       25575.00    111830.50
  313.69        2967.50           1456       25900.00    113256.90
  313.72        2967.75           1459       25674.00    112265.00
  313.75        2968.00           1462       25759.00    112638.10
  313.79        2968.25           1466       24709.00    108030.50
  313.82        2968.50           1469       23567.00    103020.60
  313.85        2968.75           1472       22504.00     98358.68
  313.88        2969.00           1476       20986.00     91703.56
  313.91        2969.25           1479       19813.00     86562.78
  313.94        2969.50           1482       18846.00     82326.01
  313.97        2969.75           1486       17202.00     75125.53
  314.00        2970.00           1489       16119.00     70383.85
  314.03        2970.25           1492       14951.00     65271.54
  314.07        2970.50           1496       13293.00     58017.20
  314.10        2970.75           1499       12182.00     53157.94
  314.13        2971.00           1502       10940.00     47727.40
  314.16        2971.25           1506        9260.00     40384.56
  314.19        2971.50           1509        8121.00     35408.12
  314.22        2971.75           1513        6507.00     28358.91
  314.25        2972.00           1516        5365.00     23372.97
  314.28        2972.25           1519        4231.00     18423.43
  314.31        2972.50           1523        2607.00     11337.77
  314.34        2972.75           1526        1517.00      6583.69
  314.38        2973.00           1529         649.00      2798.84
  314.41        2973.25           1533         312.00      1329.61
  314.44        2973.50           1536         247.00      1046.24
  314.47        2973.75           1539         199.00       836.99
  314.50        2974.00           1543         164.00       684.41
  314.53        2974.25           1546         129.00       531.83
  314.56        2974.50           1549          90.00       361.82
  314.59        2974.75           1553          74.00       292.07
  314.62        2975.00           1556          61.00       235.40
  314.65        2975.25           1559          63.00       244.12
  314.68        2975.50           1563          54.00       204.88
  314.72        2975.75           1566          56.00       213.60
  314.75        2976.00           1569          48.00       178.73
  314.78        2976.25           1573          52.00       196.17
  314.81        2976.50           1576          48.00       178.73
  314.84        2976.75           1579          56.00       213.60
  314.87        2977.00           1583          50.00       187.45
  314.90        2977.25           1586          52.00       196.17
  314.93        2977.50           1590          51.00       191.81
  314.96        2977.75           1593          44.00       161.29
  314.99        2978.00           1596          49.00       183.09
  315.03        2978.25           1600          51.00       191.81
  315.06        2978.50           1603          52.00       196.17
  315.09        2978.75           1606          50.00       187.45
  315.12        2979.00           1610          52.00       196.17
  315.15        2979.25           1613          59.00       226.68
  315.18        2979.50           1616          51.00       191.81
  315.21        2979.75           1620          51.00       191.81
  315.24        2980.00           1623          53.00       200.52
  315.27        2980.25           1626          48.00       178.73
  315.30        2980.50           1630          44.00       161.29
  315.33        2980.75           1633          47.00       174.37
  315.36        2981.00           1637          50.00       187.45
  315.40        2981.25           1640          46.00       170.01
  315.43        2981.50           1643          53.00       200.52
  315.46        2981.75           1647          59.00       226.68
  315.49        2982.00           1650          45.00       165.65
  315.52        2982.25           1653          49.00       183.09
  315.55        2982.50           1657          45.00       165.65
  315.58        2982.75           1660          49.00       183.09
  315.61        2983.00           1663          47.00       174.37
  315.64        2983.25           1667          51.00       191.81
  315.67        2983.50           1670          46.00       170.01
  315.70        2983.75           1673          54.00       204.88
  315.74        2984.00           1677          51.00       191.81
HS scan finished at 05:15:57
end
************************************************************
  HS Scan of (1) Internal mercury lamp
************************************************************
Integration time is 0.2294 seconds per sample
dh280119Manchester 53.47 2.23 2.750537pr1000
************************************************************
Dead Time -------------------------  3E-08 
Number of Cycles Used -------------  4 
Starting Wavelength (Angstroms) ---  2950 
Final Wavelength (Angstoms) -------  2984 
Wavelength Increment (Angstroms) --  .25 
Filter Wheel #1 Position ---------- (1) Ground quartz diffuser (ND=2.32)
Filter Wheel #2 Position ---------- (1) Neutral Density 0.494



************************************************************
HS scan start time = 17:42:05
Dark Count =  5.3 


Time (GMT)  Wavelength (Ang)  Step Number  Raw Counts  Counts/Second

 1062.45        2950.00           1222          54.00       212.29
 1062.52        2950.25           1226          56.00       221.01
 1062.55        2950.50           1229          57.00       225.37
 1062.58        2950.75           1232          50.00       194.86
 1062.61        2951.00           1236          54.00       212.29
 1062.64        2951.25           1239          53.00       207.94
 1062.67        2951.50           1242          60.00       238.45
 1062.70        2951.75           1246          50.00       194.86
 1062.73        2952.00           1249          58.00       229.73
 1062.76        2952.25           1252          59.00       234.09
 1062.80        2952.50           1256          53.00       207.94
 1062.83        2952.75           1259          55.00       216.65
 1062.86        2953.00           1262          53.00       207.94
 1062.89        2953.25           1266          49.00       190.50
 1062.92        2953.50           1269          56.00       221.01
 1062.95        2953.75           1272          55.00       216.65
 1062.98        2954.00           1276          59.00       234.09
 1063.01        2954.25           1279          55.00       216.65
 1063.04        2954.50           1282          65.00       260.25
 1063.08        2954.75           1286          54.00       212.29
 1063.11        2955.00           1289          53.00       207.94
 1063.14        2955.25           1292          51.00       199.22
 1063.17        2955.50           1296          55.00       216.65
 1063.20        2955.75           1299          54.00       212.29
 1063.23        2956.00           1302          43.00       164.34
 1063.26        2956.25           1306          55.00       216.65
 1063.29        2956.50           1309          49.00       190.50
 1063.32        2956.75           1312          56.00       221.01
 1063.36        2957.00           1316          54.00       212.29
 1063.39        2957.25           1319          50.00       194.86
 1063.42        2957.50           1322          54.00       212.29
 1063.45        2957.75           1326          56.00       221.01
 1063.48        2958.00           1329          59.00       234.09
 1063.51        2958.25           1332          54.00       212.29
 1063.54        2958.50           1336          52.00       203.58
 1063.57        2958.75           1339          64.00       255.89
 1063.60        2959.00           1342          58.00       229.73
 1063.63        2959.25           1346          51.00       199.22
 1063.67        2959.50           1349          61.00       242.81
 1063.70        2959.75           1352          66.00       264.61
 1063.73        2960.00           1356          80.00       325.64
 1063.76        2960.25           1359         116.00       482.57
 1063.79        2960.50           1362         147.00       617.71
 1063.82        2960.75           1366         170.00       717.98
 1063.85        2961.00           1369         208.00       883.63
 1063.88        2961.25           1372         244.00      1040.57
 1063.91        2961.50           1376         309.00      1323.94
 1063.95        2961.75           1379         499.00      2152.28
 1063.98        2962.00           1382        1019.00      4419.51
 1064.01        2962.25           1386        2366.00     10293.94
 1064.04        2962.50           1389        3480.00     15153.79
 1064.07        2962.75           1392        4578.00     19945.24
 1064.10        2963.00           1396        6091.00     26549.91
 1064.13        2963.25           1399        7204.00     31410.14
 1064.16        2963.50           1402        8447.00     36839.74
 1064.19        2963.75           1406       10097.00     44049.89
 1064.23        2964.00           1409       11376.00     49641.01
 1064.26        2964.25           1412       12719.00     55513.91
 1064.29        2964.50           1416       14245.00     62189.59
 1064.32        2964.75           1419       15331.00     66942.06
 1064.35        2965.00           1422       16695.00     72913.02
 1064.38        2965.25           1426       18434.00     80528.66
 1064.41        2965.50           1429       19372.00     84637.91
 1064.44        2965.75           1432       20674.00     90343.49
 1064.47        2966.00           1436       22145.00     96791.99
 1064.50        2966.25           1439       23407.00    102326.30
 1064.54        2966.50           1442       24422.00    106778.70
 1064.57        2966.75           1446       25462.00    111342.10
 1064.60        2967.00           1449       25484.00    111438.60
 1064.63        2967.25           1452       25480.00    111421.10
 1064.66        2967.50           1456       25462.00    111342.10
 1064.69        2967.75           1459       25508.00    111544.00
 1064.72        2968.00           1462       25370.00    110938.40
 1064.75        2968.25           1466       24538.00    107287.70
 1064.78        2968.50           1469       23458.00    102550.00
 1064.82        2968.75           1472       22400.00     97910.09
 1064.85        2969.00           1476       20911.00     91382.27
 1064.88        2969.25           1479       19447.00     84966.52
 1064.91        2969.50           1482       18493.00     80787.10
 1064.94        2969.75           1486       16788.00     73320.21
 1064.97        2970.00           1489       15835.00     69148.10
 1065.00        2970.25           1492       14711.00     64228.70
 1065.03        2970.50           1496       13036.00     56900.46
 1065.06        2970.75           1499       11813.00     51551.77
 1065.09        2971.00           1502       10687.00     46628.83
 1065.13        2971.25           1506        9176.00     40024.93
 1065.16        2971.50           1509        7988.00     34834.56
 1065.19        2971.75           1513        6356.00     27706.98
 1065.22        2972.00           1516        5224.00     22764.89
 1065.25        2972.25           1519        4097.00     17846.08
 1065.28        2972.50           1523        2523.00     10978.77
 1065.31        2972.75           1526        1439.00      6250.95
 1065.34        2973.00           1529         615.00      2658.02
 1065.37        2973.25           1533         331.00      1419.85
 1065.40        2973.50           1536         253.00      1079.81
 1065.43        2973.75           1539         224.00       953.38
 1065.47        2974.00           1543         188.00       796.44
 1065.50        2974.25           1546         136.00       569.76
 1065.53        2974.50           1549         123.00       513.09
 1065.56        2974.75           1553          82.00       334.35
 1065.59        2975.00           1556          73.00       295.12
 1065.62        2975.25           1559          61.00       242.81
 1065.65        2975.50           1563          54.00       212.29
 1065.68        2975.75           1566          43.00       164.34
 1065.71        2976.00           1569          56.00       221.01
 1065.74        2976.25           1573          54.00       212.29
 1065.77        2976.50           1576          47.00       181.78
 1065.81        2976.75           1579          47.00       181.78
 1065.84        2977.00           1583          54.00       212.29
 1065.87        2977.25           1586          61.00       242.81
 1065.90        2977.50           1590          55.00       216.65
 1065.93        2977.75           1593          50.00       194.86
 1065.96        2978.00           1596          50.00       194.86
 1065.99        2978.25           1600          49.00       190.50
 1066.02        2978.50           1603          57.00       225.37
 1066.06        2978.75           1606          51.00       199.22
 1066.09        2979.00           1610          53.00       207.94
 1066.12        2979.25           1613          44.00       168.70
 1066.15        2979.50           1616          55.00       216.65
 1066.18        2979.75           1620          43.00       164.34
 1066.21        2980.00           1623          47.00       181.78
 1066.24        2980.25           1626          47.00       181.78
 1066.27        2980.50           1630          51.00       199.22
 1066.30        2980.75           1633          58.00       229.73
 1066.33        2981.00           1637          57.00       225.37
 1066.37        2981.25           1640          52.00       203.58
 1066.40        2981.50           1643          47.00       181.78
 1066.43        2981.75           1647          43.00       164.34
 1066.46        2982.00           1650          42.00       159.98
 1066.49        2982.25           1653          48.00       186.14
 1066.52        2982.50           1657          52.00       203.58
 1066.55        2982.75           1660          53.00       207.94
 1066.58        2983.00           1663          44.00       168.70
 1066.62        2983.25           1667          54.00       212.29
 1066.65        2983.50           1670          48.00       186.14
 1066.68        2983.75           1673          49.00       190.50
 1066.71        2984.00           1677          51.00       199.22
HS scan finished at 17:46:55
end
