************************************************************
  HS Scan of (1) Internal mercury lamp
************************************************************
Integration time is 0.2294 seconds per sample
dh280117Manchester 53.47 2.23 2.750537pr1000
************************************************************
Dead Time -------------------------  3E-08 
Number of Cycles Used -------------  4 
Starting Wavelength (Angstroms) ---  2950 
Final Wavelength (Angstoms) -------  2984 
Wavelength Increment (Angstroms) --  .25 
Filter Wheel #1 Position ---------- (1) Ground quartz diffuser (ND=2.32)
Filter Wheel #2 Position ---------- (1) Neutral Density 0.494



************************************************************
HS scan start time = 05:10:26
Dark Count =  6.3 


Time (GMT)  Wavelength (Ang)  Step Number  Raw Counts  Counts/Second

  310.80        2950.00           1222          44.00       164.34
  310.86        2950.25           1226          49.00       186.14
  310.90        2950.50           1229          42.00       155.62
  310.93        2950.75           1232          42.00       155.62
  310.96        2951.00           1236          45.00       168.70
  310.99        2951.25           1239          43.00       159.98
  311.02        2951.50           1242          44.00       164.34
  311.05        2951.75           1246          52.00       199.22
  311.08        2952.00           1249          53.00       203.58
  311.11        2952.25           1252          49.00       186.14
  311.14        2952.50           1256          41.00       151.26
  311.17        2952.75           1259          42.00       155.62
  311.21        2953.00           1262          39.00       142.55
  311.24        2953.25           1266          45.00       168.70
  311.27        2953.50           1269          41.00       151.26
  311.30        2953.75           1272          47.00       177.42
  311.33        2954.00           1276          41.00       151.26
  311.36        2954.25           1279          47.00       177.42
  311.39        2954.50           1282          48.00       181.78
  311.42        2954.75           1286          43.00       159.98
  311.45        2955.00           1289          46.00       173.06
  311.48        2955.25           1292          48.00       181.78
  311.51        2955.50           1296          45.00       168.70
  311.55        2955.75           1299          41.00       151.26
  311.58        2956.00           1302          45.00       168.70
  311.61        2956.25           1306          47.00       177.42
  311.64        2956.50           1309          48.00       181.78
  311.67        2956.75           1312          55.00       212.29
  311.70        2957.00           1316          36.00       129.47
  311.73        2957.25           1319          42.00       155.62
  311.76        2957.50           1322          45.00       168.70
  311.79        2957.75           1326          43.00       159.98
  311.82        2958.00           1329          44.00       164.34
  311.85        2958.25           1332          46.00       173.06
  311.89        2958.50           1336          42.00       155.62
  311.92        2958.75           1339          43.00       159.98
  311.95        2959.00           1342          51.00       194.86
  311.98        2959.25           1346          46.00       173.06
  312.01        2959.50           1349          49.00       186.14
  312.04        2959.75           1352          59.00       229.73
  312.07        2960.00           1356          80.00       321.28
  312.10        2960.25           1359         111.00       456.41
  312.13        2960.50           1362         150.00       626.43
  312.16        2960.75           1366         201.00       848.76
  312.20        2961.00           1369         254.00      1079.81
  312.23        2961.25           1372         296.00      1262.91
  312.26        2961.50           1376         363.00      1555.00
  312.29        2961.75           1379         552.00      2378.98
  312.32        2962.00           1382         987.00      4275.61
  312.35        2962.25           1386        2509.00     10913.34
  312.38        2962.50           1389        4101.00     17859.17
  312.41        2962.75           1392        5492.00     23930.43
  312.44        2963.00           1396        7564.00     32978.12
  312.48        2963.25           1399        9080.00     39601.08
  312.51        2963.50           1402       10836.00     47275.82
  312.54        2963.75           1406       13057.00     56987.94
  312.57        2964.00           1409       14787.00     64556.91
  312.60        2964.25           1412       16596.00     72475.19
  312.63        2964.50           1416       19032.00     83143.93
  312.66        2964.75           1419       20708.00     90488.12
  312.69        2965.00           1422       22489.00     98295.99
  312.72        2965.25           1426       24639.00    107726.40
  312.76        2965.50           1429       26286.00    114954.20
  312.79        2965.75           1432       27987.00    122422.20
  312.82        2966.00           1436       30134.00    131853.10
  312.85        2966.25           1439       31553.00    138089.20
  312.88        2966.50           1442       33022.00    144547.40
  312.91        2966.75           1446       35032.00    153388.20
  312.94        2967.00           1449       35870.00    157075.40
  312.97        2967.25           1452       36009.00    157687.10
  313.00        2967.50           1456       36049.00    157863.10
  313.04        2967.75           1459       35919.00    157291.00
  313.07        2968.00           1462       35839.00    156939.00
  313.10        2968.25           1466       35298.00    154558.50
  313.13        2968.50           1469       34208.00    149763.40
  313.16        2968.75           1472       32623.00    142793.10
  313.19        2969.00           1476       30631.00    134037.00
  313.22        2969.25           1479       28891.00    126392.50
  313.25        2969.50           1482       27546.00    120485.70
  313.28        2969.75           1486       25388.00    111013.00
  313.32        2970.00           1489       23448.00    102501.70
  313.35        2970.25           1492       21914.00     95774.79
  313.38        2970.50           1496       19706.00     86096.99
  313.41        2970.75           1499       18020.00     78710.93
  313.44        2971.00           1502       16285.00     71113.63
  313.47        2971.25           1506       14003.00     61126.38
  313.50        2971.50           1509       12256.00     53484.62
  313.53        2971.75           1513       10286.00     44871.62
  313.56        2972.00           1516        8579.00     37412.06
  313.60        2972.25           1519        7028.00     30637.13
  313.63        2972.50           1523        4907.00     21376.83
  313.66        2972.75           1526        3468.00     15097.07
  313.69        2973.00           1529        2142.00      9312.54
  313.72        2973.25           1533         744.00      3216.09
  313.75        2973.50           1536         384.00      1646.55
  313.78        2973.75           1539         304.00      1297.78
  313.81        2974.00           1543         245.00      1040.57
  313.84        2974.25           1546         201.00       848.76
  313.87        2974.50           1549         143.00       595.91
  313.91        2974.75           1553          96.00       391.02
  313.94        2975.00           1556          61.00       238.45
  313.97        2975.25           1559          57.00       221.01
  314.00        2975.50           1563          63.00       247.17
  314.03        2975.75           1566          50.00       190.50
  314.06        2976.00           1569          39.00       142.55
  314.09        2976.25           1573          47.00       177.42
  314.12        2976.50           1576          45.00       168.70
  314.15        2976.75           1579          45.00       168.70
  314.18        2977.00           1583          42.00       155.62
  314.21        2977.25           1586          49.00       186.14
  314.24        2977.50           1590          45.00       168.70
  314.27        2977.75           1593          50.00       190.50
  314.31        2978.00           1596          48.00       181.78
  314.34        2978.25           1600          52.00       199.22
  314.37        2978.50           1603          51.00       194.86
  314.40        2978.75           1606          49.00       186.14
  314.43        2979.00           1610          66.00       260.25
  314.46        2979.25           1613          44.00       164.34
  314.49        2979.50           1616          39.00       142.55
  314.52        2979.75           1620          47.00       177.42
  314.55        2980.00           1623          44.00       164.34
  314.58        2980.25           1626          45.00       168.70
  314.61        2980.50           1630          39.00       142.55
  314.64        2980.75           1633          48.00       181.78
  314.67        2981.00           1637          49.00       186.14
  314.71        2981.25           1640          43.00       159.98
  314.74        2981.50           1643          45.00       168.70
  314.77        2981.75           1647          44.00       164.34
  314.80        2982.00           1650          44.00       164.34
  314.83        2982.25           1653          42.00       155.62
  314.86        2982.50           1657          43.00       159.98
  314.89        2982.75           1660          42.00       155.62
  314.92        2983.00           1663          40.00       146.91
  314.95        2983.25           1667          44.00       164.34
  314.98        2983.50           1670          44.00       164.34
  315.02        2983.75           1673          52.00       199.22
  315.05        2984.00           1677          45.00       168.70
HS scan finished at 05:15:16
end
************************************************************
  HS Scan of (1) Internal mercury lamp
************************************************************
Integration time is 0.2294 seconds per sample
dh280117Manchester 53.47 2.23 2.750537pr1000
************************************************************
Dead Time -------------------------  3E-08 
Number of Cycles Used -------------  4 
Starting Wavelength (Angstroms) ---  2950 
Final Wavelength (Angstoms) -------  2984 
Wavelength Increment (Angstroms) --  .25 
Filter Wheel #1 Position ---------- (1) Ground quartz diffuser (ND=2.32)
Filter Wheel #2 Position ---------- (1) Neutral Density 0.494



************************************************************
HS scan start time = 17:42:02
Dark Count =  9.3 


Time (GMT)  Wavelength (Ang)  Step Number  Raw Counts  Counts/Second

 1062.40        2950.00           1222          49.00       173.06
 1062.47        2950.25           1226          47.00       164.34
 1062.50        2950.50           1229          45.00       155.62
 1062.53        2950.75           1232          40.00       133.83
 1062.56        2951.00           1236          49.00       173.06
 1062.59        2951.25           1239          41.00       138.19
 1062.62        2951.50           1242          42.00       142.55
 1062.65        2951.75           1246          46.00       159.98
 1062.68        2952.00           1249          49.00       173.06
 1062.71        2952.25           1252          49.00       173.06
 1062.74        2952.50           1256          42.00       142.55
 1062.77        2952.75           1259          45.00       155.62
 1062.80        2953.00           1262          43.00       146.91
 1062.83        2953.25           1266          44.00       151.26
 1062.87        2953.50           1269          53.00       190.50
 1062.90        2953.75           1272          45.00       155.62
 1062.93        2954.00           1276          43.00       146.91
 1062.96        2954.25           1279          45.00       155.62
 1062.99        2954.50           1282          50.00       177.42
 1063.02        2954.75           1286          44.00       151.26
 1063.05        2955.00           1289          44.00       151.26
 1063.08        2955.25           1292          42.00       142.55
 1063.11        2955.50           1296          46.00       159.98
 1063.14        2955.75           1299          46.00       159.98
 1063.17        2956.00           1302          46.00       159.98
 1063.20        2956.25           1306          49.00       173.06
 1063.23        2956.50           1309          38.00       125.11
 1063.26        2956.75           1312          46.00       159.98
 1063.29        2957.00           1316          38.00       125.11
 1063.32        2957.25           1319          45.00       155.62
 1063.35        2957.50           1322          44.00       151.26
 1063.39        2957.75           1326          50.00       177.42
 1063.42        2958.00           1329          45.00       155.62
 1063.45        2958.25           1332          42.00       142.55
 1063.48        2958.50           1336          41.00       138.19
 1063.51        2958.75           1339          42.00       142.55
 1063.54        2959.00           1342          47.00       164.34
 1063.57        2959.25           1346          46.00       159.98
 1063.60        2959.50           1349          52.00       186.14
 1063.63        2959.75           1352          75.00       286.40
 1063.66        2960.00           1356         106.00       421.54
 1063.69        2960.25           1359         135.00       547.96
 1063.73        2960.50           1362         172.00       709.26
 1063.76        2960.75           1366         229.00       957.74
 1063.79        2961.00           1369         276.00      1162.64
 1063.82        2961.25           1372         323.00      1367.54
 1063.85        2961.50           1376         403.00      1716.30
 1063.88        2961.75           1379         571.00      2448.74
 1063.91        2962.00           1382        1156.00      4999.44
 1063.94        2962.25           1386        2847.00     12374.69
 1063.97        2962.50           1389        4416.00     19220.76
 1064.00        2962.75           1392        5999.00     26130.77
 1064.03        2963.00           1396        8134.00     35454.87
 1064.07        2963.25           1399        9756.00     42542.06
 1064.10        2963.50           1402       11311.00     49339.33
 1064.13        2963.75           1406       13710.00     59831.37
 1064.16        2964.00           1409       15330.00     66920.19
 1064.19        2964.25           1412       17079.00     74576.86
 1064.22        2964.50           1416       19299.00     84300.55
 1064.25        2964.75           1419       20935.00     91469.92
 1064.28        2965.00           1422       22436.00     98050.42
 1064.31        2965.25           1426       24664.00    107822.90
 1064.34        2965.50           1429       26383.00    115366.80
 1064.37        2965.75           1432       27838.00    121754.70
 1064.40        2966.00           1436       30073.00    131571.90
 1064.44        2966.25           1439       31852.00    139390.30
 1064.47        2966.50           1442       33371.00    146068.90
 1064.50        2966.75           1446       34833.00    152499.50
 1064.53        2967.00           1449       35374.00    154879.70
 1064.56        2967.25           1452       35707.00    156344.90
 1064.59        2967.50           1456       35576.00    155768.50
 1064.62        2967.75           1459       35576.00    155768.50
 1064.65        2968.00           1462       35407.00    155024.90
 1064.68        2968.25           1466       34480.00    150946.60
 1064.71        2968.50           1469       33239.00    145488.50
 1064.75        2968.75           1472       31630.00    138414.50
 1064.78        2969.00           1476       29459.00    128874.40
 1064.81        2969.25           1479       28014.00    122527.60
 1064.84        2969.50           1482       26107.00    114155.30
 1064.87        2969.75           1486       23865.00    104317.70
 1064.90        2970.00           1489       22348.00     97664.55
 1064.93        2970.25           1492       20822.00     90974.63
 1064.96        2970.50           1496       18793.00     82083.76
 1065.00        2970.75           1499       17032.00     74371.06
 1065.03        2971.00           1502       15347.00     66994.59
 1065.06        2971.25           1506       13313.00     58094.63
 1065.09        2971.50           1509       11690.00     50996.44
 1065.12        2971.75           1513        9430.00     41117.39
 1065.15        2972.00           1516        7669.00     33423.65
 1065.18        2972.25           1519        6139.00     26742.02
 1065.21        2972.50           1523        3892.00     16934.06
 1065.24        2972.75           1526        2423.00     10525.12
 1065.27        2973.00           1529        1143.00      4942.76
 1065.31        2973.25           1533         422.00      1799.14
 1065.34        2973.50           1536         316.00      1337.02
 1065.37        2973.75           1539         282.00      1188.80
 1065.40        2974.00           1543         216.00       901.07
 1065.43        2974.25           1546         164.00       674.38
 1065.46        2974.50           1549         119.00       478.21
 1065.49        2974.75           1553          75.00       286.40
 1065.52        2975.00           1556          58.00       212.29
 1065.55        2975.25           1559          58.00       212.29
 1065.58        2975.50           1563          48.00       168.70
 1065.61        2975.75           1566          50.00       177.42
 1065.65        2976.00           1569          50.00       177.42
 1065.68        2976.25           1573          45.00       155.62
 1065.71        2976.50           1576          43.00       146.91
 1065.74        2976.75           1579          49.00       173.06
 1065.77        2977.00           1583          50.00       177.42
 1065.80        2977.25           1586          48.00       168.70
 1065.83        2977.50           1590          49.00       173.06
 1065.86        2977.75           1593          48.00       168.70
 1065.89        2978.00           1596          48.00       168.70
 1065.92        2978.25           1600          50.00       177.42
 1065.96        2978.50           1603          64.00       238.45
 1065.99        2978.75           1606          49.00       173.06
 1066.02        2979.00           1610          40.00       133.83
 1066.05        2979.25           1613          41.00       138.19
 1066.08        2979.50           1616          43.00       146.91
 1066.11        2979.75           1620          44.00       151.26
 1066.14        2980.00           1623          37.00       120.75
 1066.17        2980.25           1626          44.00       151.26
 1066.20        2980.50           1630          47.00       164.34
 1066.23        2980.75           1633          38.00       125.11
 1066.26        2981.00           1637          48.00       168.70
 1066.30        2981.25           1640          43.00       146.91
 1066.33        2981.50           1643          51.00       181.78
 1066.36        2981.75           1647          42.00       142.55
 1066.39        2982.00           1650          49.00       173.06
 1066.42        2982.25           1653          40.00       133.83
 1066.45        2982.50           1657          43.00       146.91
 1066.48        2982.75           1660          44.00       151.26
 1066.51        2983.00           1663          37.00       120.75
 1066.54        2983.25           1667          45.00       155.62
 1066.57        2983.50           1670          45.00       155.62
 1066.61        2983.75           1673          38.00       125.11
 1066.64        2984.00           1677          40.00       133.83
HS scan finished at 17:46:51
end
