************************************************************
  HS Scan of (1) Internal mercury lamp
************************************************************
Integration time is 0.2294 seconds per sample
dh230119Manchester 53.47 2.23 2.750537pr1000
************************************************************
Dead Time -------------------------  3E-08 
Number of Cycles Used -------------  4 
Starting Wavelength (Angstroms) ---  2950 
Final Wavelength (Angstoms) -------  2984 
Wavelength Increment (Angstroms) --  .25 
Filter Wheel #1 Position ---------- (1) Ground quartz diffuser (ND=2.32)
Filter Wheel #2 Position ---------- (1) Neutral Density 0.494



************************************************************
HS scan start time = 05:17:45
Dark Count =  5.6 


Time (GMT)  Wavelength (Ang)  Step Number  Raw Counts  Counts/Second

  318.12        2950.00           1222          57.00       224.06
  318.18        2950.25           1226          51.00       197.91
  318.22        2950.50           1229          61.00       241.50
  318.25        2950.75           1232          53.00       206.63
  318.28        2951.00           1236          52.00       202.27
  318.31        2951.25           1239          52.00       202.27
  318.34        2951.50           1242          51.00       197.91
  318.37        2951.75           1246          57.00       224.06
  318.40        2952.00           1249          54.00       210.99
  318.43        2952.25           1252          52.00       202.27
  318.46        2952.50           1256          55.00       215.35
  318.49        2952.75           1259          57.00       224.06
  318.52        2953.00           1262          66.00       263.30
  318.56        2953.25           1266          57.00       224.06
  318.59        2953.50           1269          51.00       197.91
  318.62        2953.75           1272          54.00       210.99
  318.65        2954.00           1276          59.00       232.78
  318.68        2954.25           1279          54.00       210.99
  318.71        2954.50           1282          47.00       180.47
  318.74        2954.75           1286          58.00       228.42
  318.77        2955.00           1289          56.00       219.71
  318.80        2955.25           1292          55.00       215.35
  318.84        2955.50           1296          54.00       210.99
  318.87        2955.75           1299          62.00       245.86
  318.90        2956.00           1302          51.00       197.91
  318.93        2956.25           1306          49.00       189.19
  318.96        2956.50           1309          53.00       206.63
  318.99        2956.75           1312          53.00       206.63
  319.02        2957.00           1316          50.00       193.55
  319.05        2957.25           1319          52.00       202.27
  319.08        2957.50           1322          58.00       228.42
  319.11        2957.75           1326          57.00       224.06
  319.15        2958.00           1329          58.00       228.42
  319.18        2958.25           1332          52.00       202.27
  319.21        2958.50           1336          56.00       219.71
  319.24        2958.75           1339          49.00       189.19
  319.27        2959.00           1342          55.00       215.35
  319.30        2959.25           1346          55.00       215.35
  319.33        2959.50           1349          63.00       250.22
  319.36        2959.75           1352          60.00       237.14
  319.39        2960.00           1356          78.00       315.61
  319.42        2960.25           1359         105.00       433.31
  319.46        2960.50           1362         120.00       498.70
  319.49        2960.75           1366         163.00       686.15
  319.52        2961.00           1369         188.00       795.14
  319.55        2961.25           1372         227.00       965.15
  319.58        2961.50           1376         289.00      1235.44
  319.61        2961.75           1379         404.00      1736.79
  319.64        2962.00           1382         883.00      3825.20
  319.67        2962.25           1386        2157.00      9381.02
  319.71        2962.50           1389        3310.00     14410.76
  319.74        2962.75           1392        4465.00     19450.75
  319.77        2963.00           1396        5941.00     25893.69
  319.80        2963.25           1399        7209.00     31430.67
  319.83        2963.50           1402        8467.00     36925.80
  319.86        2963.75           1406       10005.00     43646.48
  319.89        2964.00           1409       11195.00     48848.35
  319.92        2964.25           1412       12419.00     54200.53
  319.95        2964.50           1416       13998.00     61107.57
  319.99        2964.75           1419       15024.00     65597.15
  320.02        2965.00           1422       16403.00     71633.28
  320.05        2965.25           1426       18028.00     78749.03
  320.08        2965.50           1429       19249.00     84097.69
  320.11        2965.75           1432       20502.00     89588.33
  320.14        2966.00           1436       22062.00     96426.77
  320.17        2966.25           1439       23072.00    100855.70
  320.20        2966.50           1442       24009.00    104965.60
  320.23        2966.75           1446       25239.00    110362.20
  320.27        2967.00           1449       25612.00    111999.10
  320.30        2967.25           1452       25471.00    111380.30
  320.33        2967.50           1456       25546.00    111709.40
  320.36        2967.75           1459       25487.00    111450.50
  320.39        2968.00           1462       25336.00    110787.90
  320.42        2968.25           1466       24489.00    107071.40
  320.45        2968.50           1469       23399.00    102289.90
  320.48        2968.75           1472       22252.00     97259.83
  320.51        2969.00           1476       20779.00     90802.38
  320.55        2969.25           1479       19539.00     85368.31
  320.58        2969.50           1482       18451.00     80601.82
  320.61        2969.75           1486       16908.00     73844.32
  320.64        2970.00           1489       15758.00     68809.73
  320.67        2970.25           1492       14697.00     64166.12
  320.70        2970.50           1496       13283.00     57979.58
  320.73        2970.75           1499       11984.00     52298.21
  320.76        2971.00           1502       10871.00     47431.88
  320.79        2971.25           1506        9158.00     39944.97
  320.83        2971.50           1509        7871.00     34322.16
  320.86        2971.75           1513        6406.00     27923.99
  320.89        2972.00           1516        5243.00     22846.52
  320.92        2972.25           1519        4115.00     17923.32
  320.95        2972.50           1523        2713.00     11806.28
  320.98        2972.75           1526        1619.00      7034.62
  321.01        2973.00           1529         779.00      3371.75
  321.04        2973.25           1533         370.00      1588.57
  321.07        2973.50           1536         282.00      1204.93
  321.11        2973.75           1539         235.00      1000.03
  321.14        2974.00           1543         206.00       873.61
  321.17        2974.25           1546         178.00       751.54
  321.20        2974.50           1549         136.00       568.45
  321.23        2974.75           1553          92.00       376.64
  321.26        2975.00           1556          77.00       311.25
  321.29        2975.25           1559          60.00       237.14
  321.32        2975.50           1563          59.00       232.78
  321.35        2975.75           1566          52.00       202.27
  321.38        2976.00           1569          55.00       215.35
  321.42        2976.25           1573          51.00       197.91
  321.45        2976.50           1576          50.00       193.55
  321.48        2976.75           1579          56.00       219.71
  321.51        2977.00           1583          43.00       163.03
  321.54        2977.25           1586          52.00       202.27
  321.57        2977.50           1590          45.00       171.75
  321.60        2977.75           1593          56.00       219.71
  321.63        2978.00           1596          52.00       202.27
  321.66        2978.25           1600          55.00       215.35
  321.69        2978.50           1603          54.00       210.99
  321.72        2978.75           1606          51.00       197.91
  321.75        2979.00           1610          50.00       193.55
  321.78        2979.25           1613          51.00       197.91
  321.81        2979.50           1616          53.00       206.63
  321.85        2979.75           1620          51.00       197.91
  321.88        2980.00           1623          47.00       180.47
  321.91        2980.25           1626          51.00       197.91
  321.94        2980.50           1630          57.00       224.06
  321.97        2980.75           1633          51.00       197.91
  322.00        2981.00           1637          48.00       184.83
  322.03        2981.25           1640          50.00       193.55
  322.06        2981.50           1643          50.00       193.55
  322.09        2981.75           1647          48.00       184.83
  322.12        2982.00           1650          51.00       197.91
  322.15        2982.25           1653          53.00       206.63
  322.18        2982.50           1657          47.00       180.47
  322.21        2982.75           1660          46.00       176.11
  322.24        2983.00           1663          47.00       180.47
  322.27        2983.25           1667          50.00       193.55
  322.30        2983.50           1670          47.00       180.47
  322.33        2983.75           1673          48.00       184.83
  322.37        2984.00           1677          48.00       184.83
HS scan finished at 05:22:35
end
************************************************************
  HS Scan of (1) Internal mercury lamp
************************************************************
Integration time is 0.2294 seconds per sample
dh230119Manchester 53.47 2.23 2.750537pr1000
************************************************************
Dead Time -------------------------  3E-08 
Number of Cycles Used -------------  4 
Starting Wavelength (Angstroms) ---  2950 
Final Wavelength (Angstoms) -------  2984 
Wavelength Increment (Angstroms) --  .25 
Filter Wheel #1 Position ---------- (1) Ground quartz diffuser (ND=2.32)
Filter Wheel #2 Position ---------- (1) Neutral Density 0.494



************************************************************
HS scan start time = 17:42:01
Dark Count =  8 


Time (GMT)  Wavelength (Ang)  Step Number  Raw Counts  Counts/Second

 1062.38        2950.00           1222          53.00       196.17
 1062.45        2950.25           1226          57.00       213.60
 1062.48        2950.50           1229          64.00       244.12
 1062.51        2950.75           1232          56.00       209.24
 1062.54        2951.00           1236          50.00       183.09
 1062.57        2951.25           1239          62.00       235.40
 1062.60        2951.50           1242          55.00       204.88
 1062.63        2951.75           1246          54.00       200.52
 1062.66        2952.00           1249          54.00       200.52
 1062.69        2952.25           1252          54.00       200.52
 1062.72        2952.50           1256          55.00       204.88
 1062.75        2952.75           1259          45.00       161.29
 1062.79        2953.00           1262          49.00       178.73
 1062.82        2953.25           1266          54.00       200.52
 1062.85        2953.50           1269          59.00       222.32
 1062.88        2953.75           1272          62.00       235.40
 1062.91        2954.00           1276          50.00       183.09
 1062.94        2954.25           1279          59.00       222.32
 1062.97        2954.50           1282          63.00       239.76
 1063.00        2954.75           1286          54.00       200.52
 1063.03        2955.00           1289          56.00       209.24
 1063.06        2955.25           1292          55.00       204.88
 1063.09        2955.50           1296          46.00       165.65
 1063.13        2955.75           1299          49.00       178.73
 1063.16        2956.00           1302          50.00       183.09
 1063.19        2956.25           1306          55.00       204.88
 1063.22        2956.50           1309          46.00       165.65
 1063.25        2956.75           1312          55.00       204.88
 1063.28        2957.00           1316          47.00       170.01
 1063.31        2957.25           1319          55.00       204.88
 1063.34        2957.50           1322          51.00       187.45
 1063.37        2957.75           1326          57.00       213.60
 1063.40        2958.00           1329          59.00       222.32
 1063.44        2958.25           1332          60.00       226.68
 1063.47        2958.50           1336          46.00       165.65
 1063.50        2958.75           1339          61.00       231.04
 1063.53        2959.00           1342          55.00       204.88
 1063.56        2959.25           1346          60.00       226.68
 1063.59        2959.50           1349          58.00       217.96
 1063.62        2959.75           1352          69.00       265.91
 1063.65        2960.00           1356          89.00       353.10
 1063.68        2960.25           1359         114.00       462.08
 1063.72        2960.50           1362         144.00       592.86
 1063.75        2960.75           1366         178.00       741.08
 1063.78        2961.00           1369         207.00       867.50
 1063.81        2961.25           1372         244.00      1028.80
 1063.84        2961.50           1376         301.00      1277.29
 1063.87        2961.75           1379         434.00      1857.12
 1063.90        2962.00           1382         937.00      4050.19
 1063.93        2962.25           1386        2216.00      9627.89
 1063.96        2962.50           1389        3296.00     14339.21
 1063.99        2962.75           1392        4462.00     19427.19
 1064.02        2963.00           1396        6005.00     26162.64
 1064.05        2963.25           1399        7134.00     31092.63
 1064.09        2963.50           1402        8251.00     35971.67
 1064.12        2963.75           1406        9974.00     43500.50
 1064.15        2964.00           1409       11317.00     49371.24
 1064.18        2964.25           1412       12492.00     54509.30
 1064.21        2964.50           1416       14131.00     61678.98
 1064.24        2964.75           1419       15288.00     66742.05
 1064.27        2965.00           1422       16458.00     71863.57
 1064.30        2965.25           1426       18099.00     79049.50
 1064.33        2965.50           1429       19317.00     84385.11
 1064.36        2965.75           1432       20553.00     89801.33
 1064.40        2966.00           1436       22005.00     96166.32
 1064.43        2966.25           1439       23036.00    100687.30
 1064.46        2966.50           1442       24106.00    105380.60
 1064.49        2966.75           1446       25208.00    110215.60
 1064.52        2967.00           1449       25412.00    111110.80
 1064.55        2967.25           1452       25417.00    111132.80
 1064.58        2967.50           1456       25396.00    111040.60
 1064.61        2967.75           1459       25351.00    110843.10
 1064.64        2968.00           1462       25424.00    111163.50
 1064.67        2968.25           1466       24599.00    107543.50
 1064.71        2968.50           1469       23551.00    102946.10
 1064.74        2968.75           1472       22565.00     98621.79
 1064.77        2969.00           1476       20971.00     91633.42
 1064.80        2969.25           1479       19782.00     86422.56
 1064.83        2969.50           1482       18542.00     80989.93
 1064.86        2969.75           1486       16952.00     74026.46
 1064.89        2970.00           1489       15809.00     69022.46
 1064.92        2970.25           1492       14760.00     64431.31
 1064.95        2970.50           1496       13074.00     57054.86
 1064.98        2970.75           1499       11943.00     52108.42
 1065.01        2971.00           1502       10876.00     47443.24
 1065.05        2971.25           1506        9386.00     40930.79
 1065.08        2971.50           1509        8086.00     35250.86
 1065.11        2971.75           1513        6631.00     28896.01
 1065.14        2972.00           1516        5533.00     24101.99
 1065.17        2972.25           1519        4453.00     19387.91
 1065.20        2972.50           1523        2828.00     12297.47
 1065.23        2972.75           1526        1630.00      7072.12
 1065.26        2973.00           1529         720.00      3104.04
 1065.29        2973.25           1533         333.00      1416.80
 1065.33        2973.50           1536         253.00      1068.04
 1065.36        2973.75           1539         229.00       963.41
 1065.39        2974.00           1543         185.00       771.60
 1065.42        2974.25           1546         139.00       571.06
 1065.45        2974.50           1549         115.00       466.44
 1065.48        2974.75           1553          79.00       309.51
 1065.51        2975.00           1556          69.00       265.91
 1065.54        2975.25           1559          61.00       231.04
 1065.57        2975.50           1563          55.00       204.88
 1065.61        2975.75           1566          48.00       174.37
 1065.64        2976.00           1569          57.00       213.60
 1065.67        2976.25           1573          49.00       178.73
 1065.70        2976.50           1576          55.00       204.88
 1065.73        2976.75           1579          48.00       174.37
 1065.76        2977.00           1583          50.00       183.09
 1065.79        2977.25           1586          50.00       183.09
 1065.82        2977.50           1590          52.00       191.81
 1065.85        2977.75           1593          51.00       187.45
 1065.88        2978.00           1596          47.00       170.01
 1065.91        2978.25           1600          49.00       178.73
 1065.94        2978.50           1603          59.00       222.32
 1065.98        2978.75           1606          44.00       156.93
 1066.01        2979.00           1610          52.00       191.81
 1066.04        2979.25           1613          52.00       191.81
 1066.07        2979.50           1616          52.00       191.81
 1066.10        2979.75           1620          43.00       152.57
 1066.13        2980.00           1623          63.00       239.76
 1066.16        2980.25           1626          54.00       200.52
 1066.19        2980.50           1630          46.00       165.65
 1066.22        2980.75           1633          54.00       200.52
 1066.25        2981.00           1637          61.00       231.04
 1066.28        2981.25           1640          51.00       187.45
 1066.32        2981.50           1643          44.00       156.93
 1066.35        2981.75           1647          54.00       200.52
 1066.38        2982.00           1650          49.00       178.73
 1066.41        2982.25           1653          49.00       178.73
 1066.44        2982.50           1657          50.00       183.09
 1066.47        2982.75           1660          50.00       183.09
 1066.50        2983.00           1663          48.00       174.37
 1066.53        2983.25           1667          51.00       187.45
 1066.56        2983.50           1670          68.00       261.55
 1066.59        2983.75           1673          62.00       235.40
 1066.63        2984.00           1677          53.00       196.17
HS scan finished at 17:46:50
end
