************************************************************
  HS Scan of (1) Internal mercury lamp
************************************************************
Integration time is 0.2294 seconds per sample
dh290119Manchester 53.47 2.23 2.750537pr1000
************************************************************
Dead Time -------------------------  3E-08 
Number of Cycles Used -------------  4 
Starting Wavelength (Angstroms) ---  2950 
Final Wavelength (Angstoms) -------  2984 
Wavelength Increment (Angstroms) --  .25 
Filter Wheel #1 Position ---------- (1) Ground quartz diffuser (ND=2.32)
Filter Wheel #2 Position ---------- (1) Neutral Density 0.494



************************************************************
HS scan start time = 05:09:53
Dark Count =  7.4 


Time (GMT)  Wavelength (Ang)  Step Number  Raw Counts  Counts/Second

  310.26        2950.00           1222          60.00       229.30
  310.32        2950.25           1226          58.00       220.58
  310.36        2950.50           1229          59.00       224.94
  310.39        2950.75           1232          52.00       194.42
  310.42        2951.00           1236          56.00       211.86
  310.45        2951.25           1239          49.00       181.34
  310.48        2951.50           1242          55.00       207.50
  310.51        2951.75           1246          50.00       185.70
  310.54        2952.00           1249          55.00       207.50
  310.57        2952.25           1252          60.00       229.30
  310.60        2952.50           1256          52.00       194.42
  310.63        2952.75           1259          58.00       220.58
  310.66        2953.00           1262          61.00       233.65
  310.69        2953.25           1266          58.00       220.58
  310.72        2953.50           1269          49.00       181.34
  310.76        2953.75           1272          52.00       194.42
  310.79        2954.00           1276          51.00       190.06
  310.82        2954.25           1279          57.00       216.22
  310.85        2954.50           1282          52.00       194.42
  310.88        2954.75           1286          51.00       190.06
  310.91        2955.00           1289          57.00       216.22
  310.94        2955.25           1292          54.00       203.14
  310.97        2955.50           1296          68.00       264.17
  311.00        2955.75           1299          55.00       207.50
  311.03        2956.00           1302          64.00       246.73
  311.06        2956.25           1306          51.00       190.06
  311.09        2956.50           1309          51.00       190.06
  311.12        2956.75           1312          50.00       185.70
  311.16        2957.00           1316          56.00       211.86
  311.19        2957.25           1319          56.00       211.86
  311.22        2957.50           1322          54.00       203.14
  311.25        2957.75           1326          54.00       203.14
  311.28        2958.00           1329          52.00       194.42
  311.31        2958.25           1332          56.00       211.86
  311.34        2958.50           1336          46.00       168.27
  311.37        2958.75           1339          54.00       203.14
  311.40        2959.00           1342          53.00       198.78
  311.43        2959.25           1346          56.00       211.86
  311.46        2959.50           1349          64.00       246.73
  311.49        2959.75           1352          57.00       216.22
  311.52        2960.00           1356          85.00       338.28
  311.55        2960.25           1359          96.00       386.23
  311.59        2960.50           1362         126.00       517.01
  311.62        2960.75           1366         161.00       669.59
  311.65        2961.00           1369         194.00       813.45
  311.68        2961.25           1372         226.00       952.95
  311.71        2961.50           1376         293.00      1245.03
  311.74        2961.75           1379         411.00      1759.47
  311.77        2962.00           1382         888.00      3839.15
  311.80        2962.25           1386        2136.00      9281.57
  311.83        2962.50           1389        3239.00     14093.14
  311.86        2962.75           1392        4422.00     19255.24
  311.89        2963.00           1396        5992.00     26108.50
  311.92        2963.25           1399        7224.00     31488.32
  311.95        2963.50           1402        8349.00     36402.42
  311.99        2963.75           1406        9828.00     42865.03
  312.02        2964.00           1409       11210.00     48906.06
  312.05        2964.25           1412       12458.00     54363.22
  312.08        2964.50           1416       14243.00     62171.65
  312.11        2964.75           1419       15391.00     67195.48
  312.14        2965.00           1422       16503.00     72063.21
  312.17        2965.25           1426       18242.00     79678.47
  312.20        2965.50           1429       19375.00     84641.86
  312.23        2965.75           1432       20546.00     89773.28
  312.26        2966.00           1436       21990.00     96103.18
  312.30        2966.25           1439       23180.00    101321.50
  312.33        2966.50           1442       24314.00    106295.70
  312.36        2966.75           1446       25430.00    111192.40
  312.39        2967.00           1449       25610.00    111982.40
  312.42        2967.25           1452       25594.00    111912.20
  312.45        2967.50           1456       25857.00    113066.40
  312.48        2967.75           1459       25696.00    112359.80
  312.51        2968.00           1462       25535.00    111653.20
  312.54        2968.25           1466       24817.00    108502.60
  312.58        2968.50           1469       23790.00    103997.00
  312.61        2968.75           1472       22810.00     99698.81
  312.64        2969.00           1476       21277.00     92977.38
  312.67        2969.25           1479       19938.00     87108.77
  312.70        2969.50           1482       18939.00     82731.68
  312.73        2969.75           1486       17338.00     75719.32
  312.76        2970.00           1489       16076.00     70193.87
  312.79        2970.25           1492       15020.00     65571.76
  312.82        2970.50           1496       13522.00     59017.21
  312.86        2970.75           1499       12222.00     53331.12
  312.89        2971.00           1502       11126.00     48538.81
  312.92        2971.25           1506        9463.00     41269.90
  312.95        2971.50           1509        8274.00     36074.77
  312.98        2971.75           1513        6673.00     29082.03
  313.01        2972.00           1516        5565.00     24244.31
  313.04        2972.25           1519        4505.00     19617.47
  313.07        2972.50           1523        2921.00     12705.80
  313.10        2972.75           1526        1760.00      7641.68
  313.13        2973.00           1529         792.00      3420.58
  313.16        2973.25           1533         384.00      1641.75
  313.20        2973.50           1536         289.00      1227.60
  313.23        2973.75           1539         243.00      1027.06
  313.26        2974.00           1543         209.00       878.84
  313.29        2974.25           1546         173.00       721.90
  313.32        2974.50           1549         128.00       525.73
  313.35        2974.75           1553         115.00       469.06
  313.38        2975.00           1556          81.00       320.84
  313.41        2975.25           1559          62.00       238.01
  313.44        2975.50           1563          87.00       347.00
  313.47        2975.75           1566          58.00       220.58
  313.50        2976.00           1569          52.00       194.42
  313.53        2976.25           1573          48.00       176.98
  313.57        2976.50           1576          59.00       224.94
  313.60        2976.75           1579          57.00       216.22
  313.63        2977.00           1583          52.00       194.42
  313.66        2977.25           1586          51.00       190.06
  313.69        2977.50           1590          50.00       185.70
  313.72        2977.75           1593          57.00       216.22
  313.75        2978.00           1596          45.00       163.91
  313.78        2978.25           1600          54.00       203.14
  313.81        2978.50           1603          59.00       224.94
  313.84        2978.75           1606          52.00       194.42
  313.87        2979.00           1610          54.00       203.14
  313.91        2979.25           1613          52.00       194.42
  313.94        2979.50           1616          58.00       220.58
  313.97        2979.75           1620          59.00       224.94
  314.00        2980.00           1623          45.00       163.91
  314.03        2980.25           1626          48.00       176.98
  314.06        2980.50           1630          60.00       229.30
  314.09        2980.75           1633          50.00       185.70
  314.12        2981.00           1637          47.00       172.63
  314.15        2981.25           1640          50.00       185.70
  314.19        2981.50           1643          58.00       220.58
  314.22        2981.75           1647          47.00       172.63
  314.25        2982.00           1650          46.00       168.27
  314.28        2982.25           1653          49.00       181.34
  314.31        2982.50           1657          45.00       163.91
  314.34        2982.75           1660          52.00       194.42
  314.37        2983.00           1663          54.00       203.14
  314.40        2983.25           1667          44.00       159.55
  314.43        2983.50           1670          51.00       190.06
  314.46        2983.75           1673          51.00       190.06
  314.50        2984.00           1677          57.00       216.22
HS scan finished at 05:14:43
end
************************************************************
  HS Scan of (1) Internal mercury lamp
************************************************************
Integration time is 0.2294 seconds per sample
dh290119Manchester 53.47 2.23 2.750537pr1000
************************************************************
Dead Time -------------------------  3E-08 
Number of Cycles Used -------------  4 
Starting Wavelength (Angstroms) ---  2950 
Final Wavelength (Angstoms) -------  2984 
Wavelength Increment (Angstroms) --  .25 
Filter Wheel #1 Position ---------- (1) Ground quartz diffuser (ND=2.32)
Filter Wheel #2 Position ---------- (1) Neutral Density 0.494



************************************************************
HS scan start time = 17:42:14
Dark Count =  6.4 


Time (GMT)  Wavelength (Ang)  Step Number  Raw Counts  Counts/Second

 1062.60        2950.00           1222          52.00       198.78
 1062.67        2950.25           1226          50.00       190.06
 1062.70        2950.50           1229          54.00       207.50
 1062.73        2950.75           1232          61.00       238.01
 1062.76        2951.00           1236          53.00       203.14
 1062.79        2951.25           1239          61.00       238.01
 1062.83        2951.50           1242          56.00       216.22
 1062.86        2951.75           1246          54.00       207.50
 1062.89        2952.00           1249          62.00       242.37
 1062.92        2952.25           1252          52.00       198.78
 1062.95        2952.50           1256          51.00       194.42
 1062.98        2952.75           1259          55.00       211.86
 1063.01        2953.00           1262          53.00       203.14
 1063.04        2953.25           1266          56.00       216.22
 1063.07        2953.50           1269          59.00       229.30
 1063.10        2953.75           1272          50.00       190.06
 1063.14        2954.00           1276          55.00       211.86
 1063.17        2954.25           1279          53.00       203.14
 1063.20        2954.50           1282          54.00       207.50
 1063.23        2954.75           1286          55.00       211.86
 1063.26        2955.00           1289          64.00       251.09
 1063.29        2955.25           1292          54.00       207.50
 1063.32        2955.50           1296          55.00       211.86
 1063.35        2955.75           1299          53.00       203.14
 1063.38        2956.00           1302          66.00       259.81
 1063.41        2956.25           1306          53.00       203.14
 1063.44        2956.50           1309          57.00       220.58
 1063.48        2956.75           1312          54.00       207.50
 1063.51        2957.00           1316          56.00       216.22
 1063.54        2957.25           1319          48.00       181.34
 1063.57        2957.50           1322          53.00       203.14
 1063.60        2957.75           1326          56.00       216.22
 1063.63        2958.00           1329          51.00       194.42
 1063.66        2958.25           1332          54.00       207.50
 1063.69        2958.50           1336          51.00       194.42
 1063.72        2958.75           1339          60.00       233.65
 1063.76        2959.00           1342          53.00       203.14
 1063.79        2959.25           1346          66.00       259.81
 1063.82        2959.50           1349          53.00       203.14
 1063.85        2959.75           1352          66.00       259.81
 1063.88        2960.00           1356          94.00       381.87
 1063.91        2960.25           1359         115.00       473.42
 1063.94        2960.50           1362         132.00       547.52
 1063.97        2960.75           1366         177.00       743.70
 1064.00        2961.00           1369         209.00       883.20
 1064.03        2961.25           1372         245.00      1040.14
 1064.06        2961.50           1376         305.00      1301.71
 1064.10        2961.75           1379         432.00      1855.38
 1064.13        2962.00           1382         887.00      3839.15
 1064.16        2962.25           1386        2117.00      9203.06
 1064.19        2962.50           1389        3256.00     14171.67
 1064.22        2962.75           1392        4426.00     19277.06
 1064.25        2963.00           1396        5780.00     25187.29
 1064.28        2963.25           1399        7029.00     30641.06
 1064.31        2963.50           1402        8261.00     36022.34
 1064.34        2963.75           1406        9888.00     43131.62
 1064.37        2964.00           1409       11253.00     49098.42
 1064.41        2964.25           1412       12534.00     54699.98
 1064.44        2964.50           1416       14079.00     61458.46
 1064.47        2964.75           1419       15216.00     66433.93
 1064.50        2965.00           1422       16524.00     72159.53
 1064.53        2965.25           1426       18267.00     79792.35
 1064.56        2965.50           1429       19295.00     84295.74
 1064.59        2965.75           1432       20501.00     89580.43
 1064.62        2966.00           1436       22233.00     97173.02
 1064.65        2966.25           1439       23187.00    101356.60
 1064.69        2966.50           1442       24175.00    105690.30
 1064.72        2966.75           1446       25411.00    111113.50
 1064.75        2967.00           1449       25791.00    112781.10
 1064.78        2967.25           1452       25692.00    112346.60
 1064.81        2967.50           1456       25642.00    112127.20
 1064.84        2967.75           1459       25754.00    112618.70
 1064.87        2968.00           1462       25594.00    111916.50
 1064.90        2968.25           1466       24640.00    107730.40
 1064.93        2968.50           1469       23874.00    104369.90
 1064.97        2968.75           1472       22702.00     99229.56
 1065.00        2969.00           1476       21216.00     92714.37
 1065.03        2969.25           1479       20087.00     87766.09
 1065.06        2969.50           1482       19053.00     83235.49
 1065.09        2969.75           1486       17337.00     75719.32
 1065.12        2970.00           1489       16117.00     70377.74
 1065.15        2970.25           1492       15064.00     65768.70
 1065.18        2970.50           1496       13385.00     58422.27
 1065.21        2970.75           1499       12246.00     53440.45
 1065.24        2971.00           1502       10961.00     47821.83
 1065.28        2971.25           1506        9404.00     41016.43
 1065.31        2971.50           1509        8178.00     35659.75
 1065.34        2971.75           1513        6713.00     29261.08
 1065.37        2972.00           1516        5568.00     24261.77
 1065.40        2972.25           1519        4492.00     19565.10
 1065.43        2972.50           1523        2987.00     12998.09
 1065.46        2972.75           1526        1839.00      7990.58
 1065.49        2973.00           1529         786.00      3398.78
 1065.52        2973.25           1533         336.00      1436.85
 1065.55        2973.50           1536         256.00      1088.09
 1065.59        2973.75           1539         226.00       957.31
 1065.62        2974.00           1543         184.00       774.21
 1065.65        2974.25           1546         143.00       595.48
 1065.68        2974.50           1549         124.00       512.65
 1065.71        2974.75           1553          80.00       320.84
 1065.74        2975.00           1556          59.00       229.30
 1065.77        2975.25           1559          58.00       224.94
 1065.80        2975.50           1563          60.00       233.65
 1065.83        2975.75           1566          56.00       216.22
 1065.86        2976.00           1569          55.00       211.86
 1065.89        2976.25           1573          54.00       207.50
 1065.92        2976.50           1576          54.00       207.50
 1065.96        2976.75           1579          50.00       190.06
 1065.99        2977.00           1583          57.00       220.58
 1066.02        2977.25           1586          55.00       211.86
 1066.05        2977.50           1590          54.00       207.50
 1066.08        2977.75           1593          49.00       185.70
 1066.11        2978.00           1596          57.00       220.58
 1066.14        2978.25           1600          48.00       181.34
 1066.17        2978.50           1603          52.00       198.78
 1066.20        2978.75           1606          42.00       155.19
 1066.24        2979.00           1610          58.00       224.94
 1066.27        2979.25           1613          53.00       203.14
 1066.30        2979.50           1616          49.00       185.70
 1066.33        2979.75           1620          55.00       211.86
 1066.36        2980.00           1623          50.00       190.06
 1066.39        2980.25           1626          49.00       185.70
 1066.42        2980.50           1630          52.00       198.78
 1066.45        2980.75           1633          56.00       216.22
 1066.48        2981.00           1637          50.00       190.06
 1066.51        2981.25           1640          59.00       229.30
 1066.54        2981.50           1643          50.00       190.06
 1066.58        2981.75           1647          48.00       181.34
 1066.61        2982.00           1650          43.00       159.55
 1066.64        2982.25           1653          43.00       159.55
 1066.68        2982.50           1657          46.00       172.63
 1066.71        2982.75           1660          40.00       146.47
 1066.74        2983.00           1663          46.00       172.63
 1066.78        2983.25           1667          49.00       185.70
 1066.81        2983.50           1670          44.00       163.91
 1066.84        2983.75           1673          45.00       168.27
 1066.87        2984.00           1677          54.00       207.50
HS scan finished at 17:47:05
end
