************************************************************
  HS Scan of (1) Internal mercury lamp
************************************************************
Integration time is 0.2294 seconds per sample
dh220118Manchester 53.47 2.23 2.804185pr1000
************************************************************
Dead Time -------------------------  3E-08 
Number of Cycles Used -------------  4 
Starting Wavelength (Angstroms) ---  2950 
Final Wavelength (Angstoms) -------  2984 
Wavelength Increment (Angstroms) --  .25 
Filter Wheel #1 Position ---------- (1) Ground quartz diffuser (ND=2.32)
Filter Wheel #2 Position ---------- (1) Neutral Density 0.494



************************************************************
HS scan start time = 05:17:12
Dark Count =  6.9 


Time (GMT)  Wavelength (Ang)  Step Number  Raw Counts  Counts/Second

  317.57        2950.00           1222          60.00       231.48
  317.63        2950.25           1226          56.00       214.04
  317.67        2950.50           1229          57.00       218.40
  317.70        2950.75           1232          71.00       279.43
  317.73        2951.00           1236          59.00       227.12
  317.76        2951.25           1239          62.00       240.19
  317.79        2951.50           1242          61.00       235.83
  317.82        2951.75           1246          56.00       214.04
  317.85        2952.00           1249          54.00       205.32
  317.88        2952.25           1252          58.00       222.76
  317.91        2952.50           1256          62.00       240.19
  317.94        2952.75           1259          74.00       292.50
  317.97        2953.00           1262          61.00       235.83
  318.00        2953.25           1266          66.00       257.63
  318.03        2953.50           1269          65.00       253.27
  318.06        2953.75           1272          57.00       218.40
  318.10        2954.00           1276          67.00       261.99
  318.13        2954.25           1279          61.00       235.83
  318.16        2954.50           1282          59.00       227.12
  318.19        2954.75           1286          66.00       257.63
  318.22        2955.00           1289          55.00       209.68
  318.25        2955.25           1292          54.00       205.32
  318.28        2955.50           1296          62.00       240.19
  318.31        2955.75           1299          67.00       261.99
  318.34        2956.00           1302          64.00       248.91
  318.37        2956.25           1306          64.00       248.91
  318.40        2956.50           1309          65.00       253.27
  318.44        2956.75           1312          68.00       266.35
  318.47        2957.00           1316          59.00       227.12
  318.50        2957.25           1319          65.00       253.27
  318.53        2957.50           1322          61.00       235.83
  318.56        2957.75           1326          53.00       200.96
  318.59        2958.00           1329          55.00       209.68
  318.62        2958.25           1332          58.00       222.76
  318.65        2958.50           1336          64.00       248.91
  318.68        2958.75           1339          60.00       231.48
  318.71        2959.00           1342          63.00       244.55
  318.74        2959.25           1346          63.00       244.55
  318.77        2959.50           1349          73.00       288.15
  318.80        2959.75           1352          80.00       318.66
  318.83        2960.00           1356         102.00       414.56
  318.86        2960.25           1359         147.00       610.73
  318.90        2960.50           1362         192.00       806.91
  318.93        2960.75           1366         218.00       920.25
  318.96        2961.00           1369         261.00      1107.71
  318.99        2961.25           1372         311.00      1325.68
  319.02        2961.50           1376         417.00      1787.80
  319.05        2961.75           1379         788.00      3405.32
  319.08        2962.00           1382        1686.00      7321.14
  319.11        2962.25           1386        3589.00     15622.40
  319.14        2962.50           1389        5054.00     22015.85
  319.17        2962.75           1392        6353.00     27686.90
  319.20        2963.00           1396        8399.00     36623.04
  319.23        2963.25           1399        9926.00     43295.52
  319.26        2963.50           1402       11493.00     50145.57
  319.30        2963.75           1406       13610.00     59404.38
  319.33        2964.00           1409       15129.00     66050.99
  319.36        2964.25           1412       16831.00     73501.48
  319.39        2964.50           1416       18709.00     81726.28
  319.42        2964.75           1419       20345.00     88894.56
  319.45        2965.00           1422       21565.00     94242.09
  319.48        2965.25           1426       23774.00    103929.00
  319.51        2965.50           1429       25115.00    109812.40
  319.54        2965.75           1432       26521.00    115983.10
  319.58        2966.00           1436       28635.00    125265.40
  319.61        2966.25           1439       30170.00    132008.70
  319.64        2966.50           1442       31293.00    136943.80
  319.67        2966.75           1446       32489.00    142201.30
  319.70        2967.00           1449       32749.00    143344.40
  319.73        2967.25           1452       32643.00    142878.40
  319.76        2967.50           1456       32683.00    143054.20
  319.79        2967.75           1459       32810.00    143612.60
  319.83        2968.00           1462       32304.00    141387.90
  319.86        2968.25           1466       31096.00    136077.90
  319.89        2968.50           1469       29551.00    129289.10
  319.92        2968.75           1472       28102.00    122924.60
  319.95        2969.00           1476       26193.00    114543.30
  319.98        2969.25           1479       24740.00    108166.90
  320.01        2969.50           1482       23353.00    102082.40
  320.04        2969.75           1486       21436.00     93676.58
  320.07        2970.00           1489       19878.00     86848.04
  320.11        2970.25           1492       18407.00     80403.40
  320.14        2970.50           1496       16361.00     71443.72
  320.17        2970.75           1499       14757.00     64422.99
  320.20        2971.00           1502       13227.00     57728.93
  320.23        2971.25           1506       11127.00     48545.37
  320.26        2971.50           1509        9660.00     42133.00
  320.29        2971.75           1513        7703.00     33582.64
  320.32        2972.00           1516        6342.00     27638.86
  320.35        2972.25           1519        4884.00     21273.82
  320.38        2972.50           1523        2878.00     12520.40
  320.42        2972.75           1526        1502.00      6518.71
  320.45        2973.00           1529         676.00      2916.99
  320.48        2973.25           1533         369.00      1578.54
  320.51        2973.50           1536         308.00      1312.61
  320.54        2973.75           1539         260.00      1103.35
  320.57        2974.00           1543         236.00       998.72
  320.60        2974.25           1546         175.00       732.80
  320.63        2974.50           1549         137.00       567.14
  320.66        2974.75           1553         104.00       423.28
  320.69        2975.00           1556          77.00       305.58
  320.73        2975.25           1559          68.00       266.35
  320.76        2975.50           1563          58.00       222.76
  320.79        2975.75           1566          54.00       205.32
  320.82        2976.00           1569          60.00       231.48
  320.85        2976.25           1573          57.00       218.40
  320.88        2976.50           1576          70.00       275.07
  320.91        2976.75           1579          54.00       205.32
  320.94        2977.00           1583          55.00       209.68
  320.97        2977.25           1586          48.00       179.16
  321.00        2977.50           1590          71.00       279.43
  321.03        2977.75           1593          57.00       218.40
  321.06        2978.00           1596          58.00       222.76
  321.09        2978.25           1600          54.00       205.32
  321.13        2978.50           1603          53.00       200.96
  321.16        2978.75           1606          60.00       231.48
  321.19        2979.00           1610          56.00       214.04
  321.22        2979.25           1613          50.00       187.88
  321.25        2979.50           1616          59.00       227.12
  321.28        2979.75           1620          58.00       222.76
  321.31        2980.00           1623          46.00       170.45
  321.34        2980.25           1626          58.00       222.76
  321.37        2980.50           1630          51.00       192.24
  321.40        2980.75           1633          56.00       214.04
  321.43        2981.00           1637          57.00       218.40
  321.46        2981.25           1640          59.00       227.12
  321.50        2981.50           1643          59.00       227.12
  321.53        2981.75           1647          49.00       183.52
  321.56        2982.00           1650          55.00       209.68
  321.59        2982.25           1653          58.00       222.76
  321.62        2982.50           1657          52.00       196.60
  321.65        2982.75           1660          54.00       205.32
  321.68        2983.00           1663          54.00       205.32
  321.71        2983.25           1667          52.00       196.60
  321.74        2983.50           1670          52.00       196.60
  321.77        2983.75           1673          48.00       179.16
  321.80        2984.00           1677          54.00       205.32
HS scan finished at 05:22:01
end
************************************************************
  HS Scan of (1) Internal mercury lamp
************************************************************
Integration time is 0.2294 seconds per sample
dh220118Manchester 53.47 2.23 2.804185pr1000
************************************************************
Dead Time -------------------------  3E-08 
Number of Cycles Used -------------  4 
Starting Wavelength (Angstroms) ---  2950 
Final Wavelength (Angstoms) -------  2984 
Wavelength Increment (Angstroms) --  .25 
Filter Wheel #1 Position ---------- (1) Ground quartz diffuser (ND=2.32)
Filter Wheel #2 Position ---------- (1) Neutral Density 0.494



************************************************************
HS scan start time = 17:42:03
Dark Count =  5.8 


Time (GMT)  Wavelength (Ang)  Step Number  Raw Counts  Counts/Second

 1062.43        2950.00           1222          60.00       236.27
 1062.49        2950.25           1226          57.00       223.19
 1062.52        2950.50           1229          62.00       244.99
 1062.56        2950.75           1232          64.00       253.71
 1062.59        2951.00           1236          64.00       253.71
 1062.62        2951.25           1239          54.00       210.11
 1062.65        2951.50           1242          60.00       236.27
 1062.68        2951.75           1246          63.00       249.35
 1062.71        2952.00           1249          65.00       258.07
 1062.74        2952.25           1252          56.00       218.83
 1062.77        2952.50           1256          64.00       253.71
 1062.80        2952.75           1259          61.00       240.63
 1062.83        2953.00           1262          74.00       297.30
 1062.87        2953.25           1266          74.00       297.30
 1062.90        2953.50           1269          66.00       262.43
 1062.93        2953.75           1272          62.00       244.99
 1062.96        2954.00           1276          57.00       223.19
 1062.99        2954.25           1279          60.00       236.27
 1063.02        2954.50           1282          64.00       253.71
 1063.05        2954.75           1286          60.00       236.27
 1063.08        2955.00           1289          63.00       249.35
 1063.11        2955.25           1292          60.00       236.27
 1063.14        2955.50           1296          64.00       253.71
 1063.17        2955.75           1299          61.00       240.63
 1063.20        2956.00           1302          61.00       240.63
 1063.23        2956.25           1306          51.00       197.04
 1063.26        2956.50           1309          67.00       266.79
 1063.29        2956.75           1312          56.00       218.83
 1063.33        2957.00           1316          58.00       227.55
 1063.36        2957.25           1319          66.00       262.43
 1063.39        2957.50           1322          58.00       227.55
 1063.42        2957.75           1326          60.00       236.27
 1063.45        2958.00           1329          63.00       249.35
 1063.48        2958.25           1332          61.00       240.63
 1063.51        2958.50           1336          72.00       288.58
 1063.54        2958.75           1339          65.00       258.07
 1063.57        2959.00           1342          56.00       218.83
 1063.60        2959.25           1346          67.00       266.79
 1063.63        2959.50           1349          70.00       279.86
 1063.66        2959.75           1352          85.00       345.25
 1063.69        2960.00           1356         115.00       476.03
 1063.73        2960.25           1359         147.00       615.53
 1063.76        2960.50           1362         194.00       820.42
 1063.79        2960.75           1366         236.00      1003.52
 1063.82        2961.00           1369         285.00      1217.13
 1063.85        2961.25           1372         300.00      1282.53
 1063.88        2961.50           1376         382.00      1640.01
 1063.91        2961.75           1379         553.00      2385.52
 1063.94        2962.00           1382        1161.00      5036.51
 1063.97        2962.25           1386        2779.00     12093.32
 1064.00        2962.50           1389        4182.00     18214.83
 1064.03        2962.75           1392        5568.00     24264.39
 1064.06        2963.00           1396        7649.00     33351.58
 1064.10        2963.25           1399        9252.00     40354.85
 1064.13        2963.50           1402       10776.00     47015.70
 1064.16        2963.75           1406       12609.00     55030.62
 1064.19        2964.00           1409       14177.00     61889.88
 1064.22        2964.25           1412       15754.00     68791.35
 1064.25        2964.50           1416       17572.00     76751.06
 1064.28        2964.75           1419       19059.00     83264.40
 1064.31        2965.00           1422       20646.00     90218.57
 1064.34        2965.25           1426       22674.00     99109.41
 1064.37        2965.50           1429       24216.00    105872.80
 1064.40        2965.75           1432       25713.00    112441.40
 1064.44        2966.00           1436       27824.00    121708.60
 1064.47        2966.25           1439       29193.00    127721.20
 1064.50        2966.50           1442       30481.00    133380.10
 1064.53        2966.75           1446       32088.00    140443.10
 1064.56        2967.00           1449       32468.00    142113.80
 1064.59        2967.25           1452       32320.00    141463.10
 1064.62        2967.50           1456       32455.00    142056.60
 1064.65        2967.75           1459       32563.00    142531.40
 1064.68        2968.00           1462       32233.00    141080.60
 1064.71        2968.25           1466       31477.00    137757.30
 1064.75        2968.50           1469       30190.00    132101.40
 1064.78        2968.75           1472       28809.00    126034.50
 1064.81        2969.00           1476       26775.00    117102.90
 1064.84        2969.25           1479       25161.00    110019.00
 1064.87        2969.50           1482       23765.00    103894.40
 1064.90        2969.75           1486       21707.00     94869.46
 1064.93        2970.00           1489       20308.00     88737.22
 1064.96        2970.25           1492       18987.00     82948.97
 1064.99        2970.50           1496       16934.00     73957.29
 1065.03        2970.75           1499       15474.00     67565.77
 1065.06        2971.00           1502       13920.00     60765.43
 1065.09        2971.25           1506       12026.00     52481.00
 1065.12        2971.50           1509       10502.00     45817.95
 1065.15        2971.75           1513        8332.00     36335.14
 1065.18        2972.00           1516        6897.00     30067.22
 1065.21        2972.25           1519        5393.00     23500.44
 1065.24        2972.50           1523        3411.00     14850.56
 1065.27        2972.75           1526        1989.00      8647.40
 1065.31        2973.00           1529         896.00      3881.01
 1065.34        2973.25           1533         419.00      1801.32
 1065.37        2973.50           1536         301.00      1286.89
 1065.40        2973.75           1539         270.00      1151.74
 1065.43        2974.00           1543         212.00       898.89
 1065.46        2974.25           1546         156.00       654.76
 1065.49        2974.50           1549         114.00       471.67
 1065.52        2974.75           1553          84.00       340.89
 1065.55        2975.00           1556          70.00       279.86
 1065.58        2975.25           1559          60.00       236.27
 1065.61        2975.50           1563          65.00       258.07
 1065.64        2975.75           1566          62.00       244.99
 1065.67        2976.00           1569          57.00       223.19
 1065.71        2976.25           1573          53.00       205.76
 1065.74        2976.50           1576          52.00       201.40
 1065.77        2976.75           1579          60.00       236.27
 1065.80        2977.00           1583          55.00       214.47
 1065.83        2977.25           1586          55.00       214.47
 1065.86        2977.50           1590          61.00       240.63
 1065.89        2977.75           1593          58.00       227.55
 1065.92        2978.00           1596          59.00       231.91
 1065.95        2978.25           1600          68.00       271.14
 1065.98        2978.50           1603          63.00       249.35
 1066.01        2978.75           1606          67.00       266.79
 1066.05        2979.00           1610          57.00       223.19
 1066.08        2979.25           1613          62.00       244.99
 1066.11        2979.50           1616          55.00       214.47
 1066.14        2979.75           1620          57.00       223.19
 1066.17        2980.00           1623          56.00       218.83
 1066.20        2980.25           1626          57.00       223.19
 1066.23        2980.50           1630          54.00       210.11
 1066.26        2980.75           1633          67.00       266.79
 1066.29        2981.00           1637          61.00       240.63
 1066.32        2981.25           1640          53.00       205.76
 1066.35        2981.50           1643          58.00       227.55
 1066.38        2981.75           1647          55.00       214.47
 1066.41        2982.00           1650          63.00       249.35
 1066.45        2982.25           1653          54.00       210.11
 1066.48        2982.50           1657          56.00       218.83
 1066.51        2982.75           1660          49.00       188.32
 1066.54        2983.00           1663          50.00       192.68
 1066.57        2983.25           1667          55.00       214.47
 1066.60        2983.50           1670          55.00       214.47
 1066.63        2983.75           1673          55.00       214.47
 1066.66        2984.00           1677          56.00       218.83
HS scan finished at 17:46:53
end
