************************************************************
  HS Scan of (1) Internal mercury lamp
************************************************************
Integration time is 0.2294 seconds per sample
dh250119Manchester 53.47 2.23 2.804185pr1000
************************************************************
Dead Time -------------------------  3E-08 
Number of Cycles Used -------------  4 
Starting Wavelength (Angstroms) ---  2950 
Final Wavelength (Angstoms) -------  2984 
Wavelength Increment (Angstroms) --  .25 
Filter Wheel #1 Position ---------- (1) Ground quartz diffuser (ND=2.32)
Filter Wheel #2 Position ---------- (1) Neutral Density 0.494



************************************************************
HS scan start time = 05:14:33
Dark Count =  4.6 


Time (GMT)  Wavelength (Ang)  Step Number  Raw Counts  Counts/Second

  314.92        2950.00           1222          57.00       228.42
  314.99        2950.25           1226          57.00       228.42
  315.02        2950.50           1229          53.00       210.99
  315.05        2950.75           1232          60.00       241.50
  315.08        2951.00           1236          51.00       202.27
  315.11        2951.25           1239          51.00       202.27
  315.15        2951.50           1242          52.00       206.63
  315.18        2951.75           1246          50.00       197.91
  315.21        2952.00           1249          56.00       224.06
  315.24        2952.25           1252          61.00       245.86
  315.27        2952.50           1256          50.00       197.91
  315.30        2952.75           1259          54.00       215.35
  315.33        2953.00           1262          50.00       197.91
  315.36        2953.25           1266          50.00       197.91
  315.39        2953.50           1269          55.00       219.71
  315.42        2953.75           1272          48.00       189.19
  315.45        2954.00           1276          60.00       241.50
  315.49        2954.25           1279          55.00       219.71
  315.52        2954.50           1282          54.00       215.35
  315.55        2954.75           1286          63.00       254.58
  315.58        2955.00           1289          63.00       254.58
  315.61        2955.25           1292          54.00       215.35
  315.64        2955.50           1296          54.00       215.35
  315.67        2955.75           1299          60.00       241.50
  315.70        2956.00           1302          54.00       215.35
  315.73        2956.25           1306          49.00       193.55
  315.76        2956.50           1309          56.00       224.06
  315.79        2956.75           1312          61.00       245.86
  315.82        2957.00           1316          53.00       210.99
  315.85        2957.25           1319          58.00       232.78
  315.88        2957.50           1322          53.00       210.99
  315.91        2957.75           1326          56.00       224.06
  315.94        2958.00           1329          53.00       210.99
  315.98        2958.25           1332          44.00       171.75
  316.01        2958.50           1336          53.00       210.99
  316.04        2958.75           1339          56.00       224.06
  316.07        2959.00           1342          52.00       206.63
  316.10        2959.25           1346          53.00       210.99
  316.13        2959.50           1349          68.00       276.38
  316.16        2959.75           1352          80.00       328.69
  316.19        2960.00           1356         105.00       437.67
  316.22        2960.25           1359         125.00       524.86
  316.25        2960.50           1362         138.00       581.53
  316.29        2960.75           1366         187.00       795.14
  316.32        2961.00           1369         222.00       947.72
  316.35        2961.25           1372         242.00      1034.91
  316.38        2961.50           1376         318.00      1366.23
  316.41        2961.75           1379         507.00      2190.20
  316.44        2962.00           1382        1118.00      4854.24
  316.47        2962.25           1386        2521.00     10973.10
  316.50        2962.50           1389        3685.00     16051.32
  316.53        2962.75           1392        4886.00     21292.59
  316.58        2963.00           1396        6387.00     27845.40
  316.62        2963.25           1399        7519.00     32789.00
  316.66        2963.50           1402        8711.00     37996.21
  316.69        2963.75           1406       10164.00     44345.80
  316.72        2964.00           1409       11448.00     49958.87
  316.75        2964.25           1412       12582.00     54917.79
  316.78        2964.50           1416       14048.00     61330.71
  316.81        2964.75           1419       15372.00     67124.57
  316.84        2965.00           1422       16636.00     72657.78
  316.88        2965.25           1426       18288.00     79892.22
  316.91        2965.50           1429       19465.00     85048.46
  316.94        2965.75           1432       20482.00     89505.06
  316.97        2966.00           1436       22180.00     96948.52
  317.00        2966.25           1439       23284.00    101789.90
  317.03        2966.50           1442       24325.00    106356.20
  317.06        2966.75           1446       25268.00    110493.80
  317.09        2967.00           1449       25541.00    111691.90
  317.12        2967.25           1452       25588.00    111898.10
  317.16        2967.50           1456       25513.00    111569.00
  317.19        2967.75           1459       25350.00    110853.70
  317.22        2968.00           1462       25302.00    110643.00
  317.25        2968.25           1466       24498.00    107115.30
  317.28        2968.50           1469       23245.00    101618.80
  317.31        2968.75           1472       22294.00     97448.38
  317.34        2969.00           1476       20767.00     90754.16
  317.37        2969.25           1479       19652.00     85867.82
  317.40        2969.50           1482       18547.00     81026.71
  317.44        2969.75           1486       16952.00     74041.36
  317.47        2970.00           1489       15672.00     68437.68
  317.50        2970.25           1492       14707.00     64214.27
  317.53        2970.50           1496       12929.00     56435.49
  317.56        2970.75           1499       11801.00     51502.36
  317.59        2971.00           1502       10576.00     46146.67
  317.62        2971.25           1506        9069.00     39560.44
  317.65        2971.50           1509        7988.00     34837.61
  317.68        2971.75           1513        6322.00     27561.58
  317.72        2972.00           1516        5146.00     22427.47
  317.75        2972.25           1519        3945.00     17185.84
  317.78        2972.50           1523        2457.00     10693.93
  317.81        2972.75           1526        1423.00      6184.23
  317.84        2973.00           1529         623.00      2695.95
  317.87        2973.25           1533         317.00      1361.87
  317.90        2973.50           1536         273.00      1170.05
  317.93        2973.75           1539         209.00       891.04
  317.96        2974.00           1543         179.00       760.26
  318.00        2974.25           1546         151.00       638.20
  318.03        2974.50           1549         113.00       472.54
  318.06        2974.75           1553          80.00       328.69
  318.09        2975.00           1556          63.00       254.58
  318.12        2975.25           1559          55.00       219.71
  318.15        2975.50           1563          51.00       202.27
  318.18        2975.75           1566          52.00       206.63
  318.21        2976.00           1569          52.00       206.63
  318.24        2976.25           1573          56.00       224.06
  318.27        2976.50           1576          54.00       215.35
  318.30        2976.75           1579          45.00       176.11
  318.33        2977.00           1583          45.00       176.11
  318.37        2977.25           1586          51.00       202.27
  318.40        2977.50           1590          49.00       193.55
  318.43        2977.75           1593          59.00       237.14
  318.46        2978.00           1596          50.00       197.91
  318.49        2978.25           1600          55.00       219.71
  318.52        2978.50           1603          54.00       215.35
  318.55        2978.75           1606          52.00       206.63
  318.58        2979.00           1610          56.00       224.06
  318.61        2979.25           1613          50.00       197.91
  318.64        2979.50           1616          53.00       210.99
  318.67        2979.75           1620          56.00       224.06
  318.71        2980.00           1623          53.00       210.99
  318.74        2980.25           1626          47.00       184.83
  318.77        2980.50           1630          49.00       193.55
  318.80        2980.75           1633          49.00       193.55
  318.83        2981.00           1637          54.00       215.35
  318.86        2981.25           1640          55.00       219.71
  318.89        2981.50           1643          54.00       215.35
  318.92        2981.75           1647          48.00       189.19
  318.95        2982.00           1650          56.00       224.06
  318.98        2982.25           1653          53.00       210.99
  319.02        2982.50           1657          57.00       228.42
  319.05        2982.75           1660          47.00       184.83
  319.08        2983.00           1663          44.00       171.75
  319.11        2983.25           1667          52.00       206.63
  319.14        2983.50           1670          49.00       193.55
  319.17        2983.75           1673          48.00       189.19
  319.20        2984.00           1677          47.00       184.83
HS scan finished at 05:19:25
end
************************************************************
  HS Scan of (1) Internal mercury lamp
************************************************************
Integration time is 0.2294 seconds per sample
dh250119Manchester 53.47 2.23 2.804185pr1000
************************************************************
Dead Time -------------------------  3E-08 
Number of Cycles Used -------------  4 
Starting Wavelength (Angstroms) ---  2950 
Final Wavelength (Angstoms) -------  2984 
Wavelength Increment (Angstroms) --  .25 
Filter Wheel #1 Position ---------- (1) Ground quartz diffuser (ND=2.32)
Filter Wheel #2 Position ---------- (1) Neutral Density 0.494



************************************************************
HS scan start time = 18:15:41
Dark Count =  7.3 


Time (GMT)  Wavelength (Ang)  Step Number  Raw Counts  Counts/Second

 1096.05        2950.00           1222          55.00       207.94
 1096.11        2950.25           1226          50.00       186.14
 1096.15        2950.50           1229          48.00       177.42
 1096.18        2950.75           1232          54.00       203.58
 1096.21        2951.00           1236          55.00       207.94
 1096.24        2951.25           1239          54.00       203.58
 1096.27        2951.50           1242          52.00       194.86
 1096.30        2951.75           1246          52.00       194.86
 1096.33        2952.00           1249          45.00       164.34
 1096.36        2952.25           1252          54.00       203.58
 1096.39        2952.50           1256          58.00       221.01
 1096.42        2952.75           1259          54.00       203.58
 1096.45        2953.00           1262          50.00       186.14
 1096.48        2953.25           1266          52.00       194.86
 1096.51        2953.50           1269          58.00       221.01
 1096.54        2953.75           1272          60.00       229.73
 1096.58        2954.00           1276          55.00       207.94
 1096.61        2954.25           1279          59.00       225.37
 1096.64        2954.50           1282          54.00       203.58
 1096.67        2954.75           1286          52.00       194.86
 1096.70        2955.00           1289          56.00       212.29
 1096.73        2955.25           1292          70.00       273.32
 1096.76        2955.50           1296          54.00       203.58
 1096.79        2955.75           1299          54.00       203.58
 1096.82        2956.00           1302          56.00       212.29
 1096.85        2956.25           1306          54.00       203.58
 1096.89        2956.50           1309          49.00       181.78
 1096.92        2956.75           1312          51.00       190.50
 1096.95        2957.00           1316          62.00       238.45
 1096.98        2957.25           1319          57.00       216.65
 1097.01        2957.50           1322          54.00       203.58
 1097.04        2957.75           1326          57.00       216.65
 1097.07        2958.00           1329          58.00       221.01
 1097.10        2958.25           1332          51.00       190.50
 1097.13        2958.50           1336          48.00       177.42
 1097.16        2958.75           1339          54.00       203.58
 1097.20        2959.00           1342          57.00       216.65
 1097.23        2959.25           1346          66.00       255.89
 1097.26        2959.50           1349          65.00       251.53
 1097.29        2959.75           1352          72.00       282.04
 1097.32        2960.00           1356          82.00       325.64
 1097.35        2960.25           1359         113.00       460.77
 1097.38        2960.50           1362         137.00       565.40
 1097.41        2960.75           1366         168.00       700.54
 1097.44        2961.00           1369         193.00       809.52
 1097.47        2961.25           1372         227.00       957.74
 1097.51        2961.50           1376         289.00      1228.03
 1097.54        2961.75           1379         362.00      1546.28
 1097.57        2962.00           1382         751.00      3242.25
 1097.60        2962.25           1386        1900.00      8252.70
 1097.63        2962.50           1389        2973.00     12933.09
 1097.66        2962.75           1392        4118.00     17929.00
 1097.69        2963.00           1396        5701.00     24838.47
 1097.72        2963.25           1399        6911.00     30121.81
 1097.75        2963.50           1402        7968.00     34738.45
 1097.79        2963.75           1406        9680.00     42218.65
 1097.82        2964.00           1409       10830.00     47245.21
 1097.85        2964.25           1412       11994.00     52334.51
 1097.88        2964.50           1416       13562.00     59192.65
 1097.91        2964.75           1419       14777.00     64508.77
 1097.94        2965.00           1422       16067.00     70154.91
 1097.97        2965.25           1426       17568.00     76726.97
 1098.00        2965.50           1429       18762.00     81956.71
 1098.03        2965.75           1432       19857.00     86754.27
 1098.07        2966.00           1436       21410.00     93560.84
 1098.10        2966.25           1439       22551.00     98563.46
 1098.13        2966.50           1442       23557.00    102975.40
 1098.16        2966.75           1446       24902.00    108876.00
 1098.19        2967.00           1449       25304.00    110640.00
 1098.22        2967.25           1452       25498.00    111491.30
 1098.25        2967.50           1456       25519.00    111583.50
 1098.28        2967.75           1459       25443.00    111249.90
 1098.31        2968.00           1462       25233.00    110328.40
 1098.34        2968.25           1466       24657.00    107801.00
 1098.38        2968.50           1469       23832.00    104181.70
 1098.41        2968.75           1472       22661.00     99045.83
 1098.44        2969.00           1476       20975.00     91654.02
 1098.47        2969.25           1479       19880.00     86855.05
 1098.50        2969.50           1482       18850.00     82342.21
 1098.53        2969.75           1486       17374.00     75877.41
 1098.56        2970.00           1489       16207.00     70767.78
 1098.59        2970.25           1492       15075.00     65812.90
 1098.62        2970.50           1496       13396.00     58466.46
 1098.65        2970.75           1499       12266.00     53523.98
 1098.69        2971.00           1502       10914.00     47612.43
 1098.72        2971.25           1506        9420.00     41082.43
 1098.75        2971.50           1509        8267.00     36044.63
 1098.78        2971.75           1513        6879.00     29982.06
 1098.81        2972.00           1516        5746.00     25034.93
 1098.84        2972.25           1519        4610.00     20076.17
 1098.87        2972.50           1523        3063.00     13325.73
 1098.90        2972.75           1526        1947.00      8457.68
 1098.94        2973.00           1529         949.00      4105.56
 1098.97        2973.25           1533         370.00      1581.16
 1099.00        2973.50           1536         262.00      1110.32
 1099.03        2973.75           1539         220.00       927.23
 1099.06        2974.00           1543         169.00       704.90
 1099.09        2974.25           1546         130.00       534.88
 1099.12        2974.50           1549         105.00       425.90
 1099.15        2974.75           1553          73.00       286.40
 1099.18        2975.00           1556          67.00       260.25
 1099.22        2975.25           1559          54.00       203.58
 1099.25        2975.50           1563          59.00       225.37
 1099.28        2975.75           1566          54.00       203.58
 1099.31        2976.00           1569          49.00       181.78
 1099.34        2976.25           1573          52.00       194.86
 1099.37        2976.50           1576          59.00       225.37
 1099.40        2976.75           1579          58.00       221.01
 1099.43        2977.00           1583          52.00       194.86
 1099.46        2977.25           1586          50.00       186.14
 1099.49        2977.50           1590          52.00       194.86
 1099.52        2977.75           1593          51.00       190.50
 1099.55        2978.00           1596          53.00       199.22
 1099.59        2978.25           1600          57.00       216.65
 1099.62        2978.50           1603          45.00       164.34
 1099.65        2978.75           1606          57.00       216.65
 1099.68        2979.00           1610          53.00       199.22
 1099.71        2979.25           1613          49.00       181.78
 1099.74        2979.50           1616          57.00       216.65
 1099.77        2979.75           1620          44.00       159.98
 1099.80        2980.00           1623          48.00       177.42
 1099.83        2980.25           1626          53.00       199.22
 1099.86        2980.50           1630          60.00       229.73
 1099.89        2980.75           1633          49.00       181.78
 1099.93        2981.00           1637          52.00       194.86
 1099.96        2981.25           1640          52.00       194.86
 1099.99        2981.50           1643          44.00       159.98
 1100.02        2981.75           1647          51.00       190.50
 1100.05        2982.00           1650          47.00       173.06
 1100.08        2982.25           1653          44.00       159.98
 1100.11        2982.50           1657          52.00       194.86
 1100.14        2982.75           1660          51.00       190.50
 1100.17        2983.00           1663          55.00       207.94
 1100.20        2983.25           1667          44.00       159.98
 1100.23        2983.50           1670          50.00       186.14
 1100.26        2983.75           1673          57.00       216.65
 1100.30        2984.00           1677          46.00       168.70
HS scan finished at 18:20:31
end
