************************************************************
  HS Scan of (1) Internal mercury lamp
************************************************************
Integration time is 0.2294 seconds per sample
dh250117Manchester 53.47 2.23 2.750537pr1000
************************************************************
Dead Time -------------------------  3E-08 
Number of Cycles Used -------------  4 
Starting Wavelength (Angstroms) ---  2950 
Final Wavelength (Angstoms) -------  2984 
Wavelength Increment (Angstroms) --  .25 
Filter Wheel #1 Position ---------- (1) Ground quartz diffuser (ND=2.32)
Filter Wheel #2 Position ---------- (1) Neutral Density 0.494



************************************************************
HS scan start time = 05:13:55
Dark Count =  6 


Time (GMT)  Wavelength (Ang)  Step Number  Raw Counts  Counts/Second

  314.29        2950.00           1222          49.00       187.45
  314.35        2950.25           1226          42.00       156.93
  314.38        2950.50           1229          49.00       187.45
  314.41        2950.75           1232          43.00       161.29
  314.44        2951.00           1236          45.00       170.01
  314.47        2951.25           1239          43.00       161.29
  314.51        2951.50           1242          43.00       161.29
  314.54        2951.75           1246          41.00       152.57
  314.57        2952.00           1249          44.00       165.65
  314.60        2952.25           1252          48.00       183.09
  314.63        2952.50           1256          48.00       183.09
  314.66        2952.75           1259          49.00       187.45
  314.69        2953.00           1262          51.00       196.17
  314.72        2953.25           1266          48.00       183.09
  314.75        2953.50           1269          44.00       165.65
  314.78        2953.75           1272          49.00       187.45
  314.81        2954.00           1276          43.00       161.29
  314.84        2954.25           1279          35.00       126.42
  314.87        2954.50           1282          46.00       174.37
  314.90        2954.75           1286          42.00       156.93
  314.93        2955.00           1289          43.00       161.29
  314.96        2955.25           1292          48.00       183.09
  314.99        2955.50           1296          51.00       196.17
  315.03        2955.75           1299          47.00       178.73
  315.06        2956.00           1302          37.00       135.14
  315.09        2956.25           1306          44.00       165.65
  315.12        2956.50           1309          45.00       170.01
  315.15        2956.75           1312          49.00       187.45
  315.18        2957.00           1316          44.00       165.65
  315.21        2957.25           1319          44.00       165.65
  315.24        2957.50           1322          48.00       183.09
  315.27        2957.75           1326          53.00       204.88
  315.30        2958.00           1329          44.00       165.65
  315.33        2958.25           1332          45.00       170.01
  315.36        2958.50           1336          53.00       204.88
  315.40        2958.75           1339          49.00       187.45
  315.43        2959.00           1342          44.00       165.65
  315.46        2959.25           1346          47.00       178.73
  315.49        2959.50           1349          49.00       187.45
  315.52        2959.75           1352          72.00       287.71
  315.55        2960.00           1356          88.00       357.46
  315.58        2960.25           1359         124.00       514.39
  315.61        2960.50           1362         157.00       658.25
  315.64        2960.75           1366         197.00       832.63
  315.67        2961.00           1369         249.00      1059.32
  315.70        2961.25           1372         307.00      1312.17
  315.74        2961.50           1376         446.00      1918.16
  315.77        2961.75           1379         762.00      3295.88
  315.80        2962.00           1382        1521.00      6605.49
  315.83        2962.25           1386        3305.00     14387.20
  315.86        2962.50           1389        4873.00     21229.73
  315.89        2962.75           1392        6463.00     28171.14
  315.92        2963.00           1396        8590.00     37461.43
  315.95        2963.25           1399       10143.00     44247.89
  315.98        2963.50           1402       11862.00     51762.98
  316.01        2963.75           1406       14036.00     61272.08
  316.05        2964.00           1409       15738.00     68720.44
  316.08        2964.25           1412       17547.00     76640.71
  316.11        2964.50           1416       19938.00     87114.91
  316.14        2964.75           1419       21676.00     94732.66
  316.17        2965.00           1422       23451.00    102516.20
  316.20        2965.25           1426       25366.00    110917.70
  316.23        2965.50           1429       26824.00    117317.10
  316.26        2965.75           1432       28757.00    125805.20
  316.29        2966.00           1436       30981.00    135576.50
  316.32        2966.25           1439       32323.00    141475.40
  316.35        2966.50           1442       33975.00    148739.80
  316.39        2966.75           1446       35262.00    154401.40
  316.42        2967.00           1449       35716.00    156399.10
  316.45        2967.25           1452       35573.00    155769.80
  316.48        2967.50           1456       35741.00    156509.10
  316.51        2967.75           1459       35516.00    155519.00
  316.54        2968.00           1462       35445.00    155206.60
  316.57        2968.25           1466       34183.00    149654.70
  316.60        2968.50           1469       32785.00    143506.60
  316.63        2968.75           1472       31305.00    137000.40
  316.67        2969.00           1476       29302.00    128199.20
  316.70        2969.25           1479       27748.00    121374.00
  316.73        2969.50           1482       26114.00    114200.50
  316.76        2969.75           1486       23907.00    104516.40
  316.79        2970.00           1489       22186.00     96968.69
  316.82        2970.25           1492       20568.00     89875.84
  316.85        2970.50           1496       18394.00     80350.38
  316.88        2970.75           1499       16763.00     73207.69
  316.91        2971.00           1502       15039.00     65661.03
  316.94        2971.25           1506       12884.00     56232.54
  316.98        2971.50           1509       11133.00     48575.53
  317.01        2971.75           1513        8953.00     39047.46
  317.04        2972.00           1516        7349.00     32040.38
  317.07        2972.25           1519        5759.00     25097.36
  317.10        2972.50           1523        3780.00     16459.74
  317.13        2972.75           1526        2296.00      9985.55
  317.16        2973.00           1529        1109.00      4808.89
  317.19        2973.25           1533         481.00      2070.75
  317.22        2973.50           1536         350.00      1499.63
  317.25        2973.75           1539         290.00      1238.06
  317.29        2974.00           1543         251.00      1068.04
  317.32        2974.25           1546         187.00       789.03
  317.35        2974.50           1549         142.00       592.86
  317.38        2974.75           1553          91.00       370.54
  317.41        2975.00           1556          73.00       292.07
  317.44        2975.25           1559          59.00       231.04
  317.47        2975.50           1563          48.00       183.09
  317.50        2975.75           1566          46.00       174.37
  317.53        2976.00           1569          48.00       183.09
  317.56        2976.25           1573          43.00       161.29
  317.59        2976.50           1576          55.00       213.60
  317.62        2976.75           1579          44.00       165.65
  317.65        2977.00           1583          44.00       165.65
  317.68        2977.25           1586          45.00       170.01
  317.72        2977.50           1590          50.00       191.81
  317.75        2977.75           1593          44.00       165.65
  317.78        2978.00           1596          49.00       187.45
  317.81        2978.25           1600          42.00       156.93
  317.84        2978.50           1603          49.00       187.45
  317.87        2978.75           1606          50.00       191.81
  317.90        2979.00           1610          44.00       165.65
  317.93        2979.25           1613          48.00       183.09
  317.96        2979.50           1616          44.00       165.65
  317.99        2979.75           1620          41.00       152.57
  318.02        2980.00           1623          45.00       170.01
  318.05        2980.25           1626          45.00       170.01
  318.08        2980.50           1630          41.00       152.57
  318.11        2980.75           1633          46.00       174.37
  318.14        2981.00           1637          47.00       178.73
  318.18        2981.25           1640          51.00       196.17
  318.21        2981.50           1643          37.00       135.14
  318.24        2981.75           1647          49.00       187.45
  318.27        2982.00           1650          45.00       170.01
  318.30        2982.25           1653          43.00       161.29
  318.33        2982.50           1657          44.00       165.65
  318.36        2982.75           1660          41.00       152.57
  318.39        2983.00           1663          42.00       156.93
  318.42        2983.25           1667          42.00       156.93
  318.45        2983.50           1670          43.00       161.29
  318.48        2983.75           1673          44.00       165.65
  318.52        2984.00           1677          37.00       135.14
HS scan finished at 05:18:44
end
************************************************************
  HS Scan of (1) Internal mercury lamp
************************************************************
Integration time is 0.2294 seconds per sample
dh250117Manchester 53.47 2.23 2.750537pr1000
************************************************************
Dead Time -------------------------  3E-08 
Number of Cycles Used -------------  4 
Starting Wavelength (Angstroms) ---  2950 
Final Wavelength (Angstoms) -------  2984 
Wavelength Increment (Angstroms) --  .25 
Filter Wheel #1 Position ---------- (1) Ground quartz diffuser (ND=2.32)
Filter Wheel #2 Position ---------- (1) Neutral Density 0.494



************************************************************
HS scan start time = 17:42:01
Dark Count =  6.5 


Time (GMT)  Wavelength (Ang)  Step Number  Raw Counts  Counts/Second

 1062.38        2950.00           1222          41.00       150.39
 1062.45        2950.25           1226          49.00       185.27
 1062.48        2950.50           1229          43.00       159.11
 1062.51        2950.75           1232          40.00       146.03
 1062.54        2951.00           1236          44.00       163.47
 1062.57        2951.25           1239          40.00       146.03
 1062.60        2951.50           1242          46.00       172.19
 1062.63        2951.75           1246          42.00       154.75
 1062.66        2952.00           1249          48.00       180.91
 1062.69        2952.25           1252          50.00       189.63
 1062.72        2952.50           1256          42.00       154.75
 1062.76        2952.75           1259          49.00       185.27
 1062.79        2953.00           1262          45.00       167.83
 1062.82        2953.25           1266          47.00       176.55
 1062.85        2953.50           1269          49.00       185.27
 1062.88        2953.75           1272          49.00       185.27
 1062.91        2954.00           1276          45.00       167.83
 1062.94        2954.25           1279          44.00       163.47
 1062.97        2954.50           1282          42.00       154.75
 1063.00        2954.75           1286          41.00       150.39
 1063.03        2955.00           1289          41.00       150.39
 1063.06        2955.25           1292          45.00       167.83
 1063.09        2955.50           1296          43.00       159.11
 1063.12        2955.75           1299          42.00       154.75
 1063.16        2956.00           1302          44.00       163.47
 1063.19        2956.25           1306          45.00       167.83
 1063.22        2956.50           1309          46.00       172.19
 1063.25        2956.75           1312          40.00       146.03
 1063.28        2957.00           1316          42.00       154.75
 1063.31        2957.25           1319          42.00       154.75
 1063.34        2957.50           1322          49.00       185.27
 1063.37        2957.75           1326          46.00       172.19
 1063.40        2958.00           1329          44.00       163.47
 1063.43        2958.25           1332          47.00       176.55
 1063.46        2958.50           1336          44.00       163.47
 1063.49        2958.75           1339          42.00       154.75
 1063.53        2959.00           1342          45.00       167.83
 1063.56        2959.25           1346          42.00       154.75
 1063.59        2959.50           1349          59.00       228.86
 1063.62        2959.75           1352          80.00       320.40
 1063.65        2960.00           1356         116.00       477.34
 1063.68        2960.25           1359         141.00       586.32
 1063.71        2960.50           1362         177.00       743.26
 1063.74        2960.75           1366         231.00       978.67
 1063.77        2961.00           1369         278.00      1183.56
 1063.80        2961.25           1372         324.00      1384.10
 1063.84        2961.50           1376         390.00      1671.84
 1063.87        2961.75           1379         610.00      2630.98
 1063.90        2962.00           1382        1191.00      5164.27
 1063.93        2962.25           1386        2908.00     12653.02
 1063.96        2962.50           1389        4335.00     18879.48
 1063.99        2962.75           1392        5970.00     26016.38
 1064.02        2963.00           1396        8080.00     35231.20
 1064.05        2963.25           1399        9654.00     42108.53
 1064.08        2963.50           1402       11369.00     49605.15
 1064.11        2963.75           1406       13478.00     58828.67
 1064.14        2964.00           1409       15398.00     67230.06
 1064.17        2964.25           1412       16907.00     73836.00
 1064.21        2964.50           1416       18976.00     82897.71
 1064.24        2964.75           1419       20765.00     90737.08
 1064.27        2965.00           1422       22372.00     97782.06
 1064.30        2965.25           1426       24582.00    107475.50
 1064.33        2965.50           1429       26206.00    114602.10
 1064.36        2965.75           1432       27745.00    121358.70
 1064.39        2966.00           1436       30014.00    131325.00
 1064.42        2966.25           1439       31431.00    137552.10
 1064.45        2966.50           1442       32764.00    143412.10
 1064.49        2966.75           1446       34549.00    151262.50
 1064.52        2967.00           1449       35071.00    153558.90
 1064.55        2967.25           1452       35130.00    153818.50
 1064.58        2967.50           1456       35325.00    154676.40
 1064.61        2967.75           1459       35240.00    154302.40
 1064.64        2968.00           1462       35180.00    154038.50
 1064.67        2968.25           1466       34039.00    149019.10
 1064.70        2968.50           1469       32640.00    142866.90
 1064.73        2968.75           1472       31277.00    136875.20
 1064.76        2969.00           1476       29163.00    127586.40
 1064.80        2969.25           1479       27472.00    120159.90
 1064.83        2969.50           1482       26006.00    113724.30
 1064.86        2969.75           1486       23786.00    103983.40
 1064.89        2970.00           1489       22308.00     97501.44
 1064.92        2970.25           1492       20765.00     90737.08
 1064.95        2970.50           1496       18388.00     80321.91
 1064.98        2970.75           1499       16826.00     73481.35
 1065.01        2971.00           1502       15020.00     65575.71
 1065.04        2971.25           1506       13012.00     56790.23
 1065.08        2971.50           1509       11434.00     49889.35
 1065.11        2971.75           1513        9190.00     40080.86
 1065.14        2972.00           1516        7586.00     33073.34
 1065.17        2972.25           1519        5961.00     25977.08
 1065.20        2972.50           1523        3948.00     17190.64
 1065.23        2972.75           1526        2482.00     10794.69
 1065.26        2973.00           1529        1175.00      5094.50
 1065.29        2973.25           1533         441.00      1894.18
 1065.32        2973.50           1536         318.00      1357.95
 1065.36        2973.75           1539         277.00      1179.20
 1065.39        2974.00           1543         217.00       917.64
 1065.42        2974.25           1546         154.00       642.99
 1065.45        2974.50           1549         120.00       494.78
 1065.48        2974.75           1553          74.00       294.25
 1065.51        2975.00           1556          66.00       259.37
 1065.54        2975.25           1559          48.00       180.91
 1065.57        2975.50           1563          51.00       193.99
 1065.60        2975.75           1566          44.00       163.47
 1065.63        2976.00           1569          52.00       198.34
 1065.66        2976.25           1573          48.00       180.91
 1065.69        2976.50           1576          48.00       180.91
 1065.72        2976.75           1579          39.00       141.67
 1065.75        2977.00           1583          46.00       172.19
 1065.79        2977.25           1586          46.00       172.19
 1065.82        2977.50           1590          45.00       167.83
 1065.85        2977.75           1593          41.00       150.39
 1065.88        2978.00           1596          51.00       193.99
 1065.91        2978.25           1600          48.00       180.91
 1065.94        2978.50           1603          46.00       172.19
 1065.97        2978.75           1606          42.00       154.75
 1066.00        2979.00           1610          47.00       176.55
 1066.03        2979.25           1613          41.00       150.39
 1066.06        2979.50           1616          43.00       159.11
 1066.09        2979.75           1620          44.00       163.47
 1066.12        2980.00           1623          37.00       132.96
 1066.15        2980.25           1626          43.00       159.11
 1066.18        2980.50           1630          40.00       146.03
 1066.22        2980.75           1633          36.00       128.60
 1066.25        2981.00           1637          42.00       154.75
 1066.28        2981.25           1640          39.00       141.67
 1066.31        2981.50           1643          34.00       119.88
 1066.34        2981.75           1647          50.00       189.63
 1066.37        2982.00           1650          38.00       137.32
 1066.40        2982.25           1653          51.00       193.99
 1066.43        2982.50           1657          37.00       132.96
 1066.46        2982.75           1660          49.00       185.27
 1066.49        2983.00           1663          47.00       176.55
 1066.53        2983.25           1667          43.00       159.11
 1066.56        2983.50           1670          47.00       176.55
 1066.59        2983.75           1673          40.00       146.03
 1066.62        2984.00           1677          44.00       163.47
HS scan finished at 17:46:50
end
