************************************************************
  HS Scan of (1) Internal mercury lamp
************************************************************
Integration time is 0.2294 seconds per sample
dh230117Manchester 53.47 2.23 2.750537pr1000
************************************************************
Dead Time -------------------------  3E-08 
Number of Cycles Used -------------  4 
Starting Wavelength (Angstroms) ---  2950 
Final Wavelength (Angstoms) -------  2984 
Wavelength Increment (Angstroms) --  .25 
Filter Wheel #1 Position ---------- (1) Ground quartz diffuser (ND=2.32)
Filter Wheel #2 Position ---------- (1) Neutral Density 0.494



************************************************************
HS scan start time = 05:16:01
Dark Count =  8.100001 


Time (GMT)  Wavelength (Ang)  Step Number  Raw Counts  Counts/Second

  316.38        2950.00           1222          55.00       204.45
  316.45        2950.25           1226          48.00       173.93
  316.48        2950.50           1229          46.00       165.21
  316.51        2950.75           1232          39.00       134.70
  316.54        2951.00           1236          41.00       143.42
  316.57        2951.25           1239          48.00       173.93
  316.60        2951.50           1242          42.00       147.78
  316.63        2951.75           1246          42.00       147.78
  316.66        2952.00           1249          47.00       169.57
  316.69        2952.25           1252          47.00       169.57
  316.73        2952.50           1256          42.00       147.78
  316.76        2952.75           1259          49.00       178.29
  316.79        2953.00           1262          43.00       152.14
  316.82        2953.25           1266          48.00       173.93
  316.85        2953.50           1269          42.00       147.78
  316.88        2953.75           1272          46.00       165.21
  316.91        2954.00           1276          45.00       160.86
  316.94        2954.25           1279          50.00       182.65
  316.97        2954.50           1282          51.00       187.01
  317.00        2954.75           1286          38.00       130.34
  317.03        2955.00           1289          44.00       156.50
  317.06        2955.25           1292          53.00       195.73
  317.09        2955.50           1296          40.00       139.06
  317.13        2955.75           1299          41.00       143.42
  317.16        2956.00           1302          46.00       165.21
  317.19        2956.25           1306          48.00       173.93
  317.22        2956.50           1309          49.00       178.29
  317.25        2956.75           1312          34.00       112.90
  317.28        2957.00           1316          40.00       139.06
  317.31        2957.25           1319          45.00       160.86
  317.34        2957.50           1322          45.00       160.86
  317.37        2957.75           1326          44.00       156.50
  317.40        2958.00           1329          48.00       173.93
  317.43        2958.25           1332          41.00       143.42
  317.46        2958.50           1336          40.00       139.06
  317.49        2958.75           1339          42.00       147.78
  317.52        2959.00           1342          44.00       156.50
  317.55        2959.25           1346          41.00       143.42
  317.59        2959.50           1349          51.00       187.01
  317.62        2959.75           1352          57.00       213.17
  317.65        2960.00           1356          79.00       309.07
  317.68        2960.25           1359         115.00       466.00
  317.71        2960.50           1362         149.00       614.22
  317.74        2960.75           1366         202.00       845.27
  317.77        2961.00           1369         262.00      1106.84
  317.80        2961.25           1372         304.00      1289.94
  317.83        2961.50           1376         393.00      1677.94
  317.86        2961.75           1379         600.00      2580.41
  317.89        2962.00           1382        1199.00      5192.18
  317.93        2962.25           1386        2945.00     12807.45
  317.96        2962.50           1389        4545.00     19788.99
  317.99        2962.75           1392        6170.00     26882.61
  318.02        2963.00           1396        8176.00     35643.59
  318.05        2963.25           1399        9800.00     42739.60
  318.08        2963.50           1402       11543.00     50358.94
  318.11        2963.75           1406       13818.00     60309.11
  318.14        2964.00           1409       15493.00     67638.86
  318.17        2964.25           1412       17283.00     75475.43
  318.21        2964.50           1416       19347.00     84516.11
  318.24        2964.75           1419       21022.00     91856.52
  318.27        2965.00           1422       22594.00     98748.52
  318.30        2965.25           1426       24784.00    108354.70
  318.33        2965.50           1429       26548.00    116096.30
  318.36        2965.75           1432       27990.00    122427.50
  318.39        2966.00           1436       30198.00    132126.40
  318.42        2966.25           1439       31666.00    138578.00
  318.45        2966.50           1442       33353.00    145995.10
  318.49        2966.75           1446       34978.00    153142.70
  318.52        2967.00           1449       35714.00    156381.00
  318.55        2967.25           1452       35646.00    156081.80
  318.58        2967.50           1456       35557.00    155690.20
  318.61        2967.75           1459       35720.00    156407.40
  318.64        2968.00           1462       35323.00    154660.60
  318.67        2968.25           1466       34768.00    152218.80
  318.70        2968.50           1469       33316.00    145832.30
  318.73        2968.75           1472       31830.00    139298.90
  318.76        2969.00           1476       29682.00    129859.30
  318.79        2969.25           1479       28079.00    122818.30
  318.82        2969.50           1482       26500.00    115885.60
  318.85        2969.75           1486       24205.00    105814.40
  318.89        2970.00           1489       22592.00     98739.75
  318.92        2970.25           1492       21096.00     92180.90
  318.95        2970.50           1496       18890.00     82513.95
  318.98        2970.75           1499       17146.00     74875.50
  319.01        2971.00           1502       15495.00     67647.61
  319.04        2971.25           1506       13262.00     57876.78
  319.07        2971.50           1509       11582.00     50529.46
  319.10        2971.75           1513        9241.00     40296.73
  319.13        2972.00           1516        7706.00     33590.51
  319.17        2972.25           1519        6055.00     26380.50
  319.20        2972.50           1523        3892.00     16939.30
  319.23        2972.75           1526        2505.00     10888.04
  319.26        2973.00           1529        1197.00      5183.46
  319.29        2973.25           1533         472.00      2022.35
  319.32        2973.50           1536         341.00      1451.24
  319.35        2973.75           1539         288.00      1220.18
  319.38        2974.00           1543         242.00      1019.65
  319.41        2974.25           1546         190.00       792.96
  319.44        2974.50           1549         138.00       566.27
  319.47        2974.75           1553          89.00       352.66
  319.50        2975.00           1556          66.00       252.40
  319.53        2975.25           1559          57.00       213.17
  319.57        2975.50           1563          50.00       182.65
  319.60        2975.75           1566          56.00       208.81
  319.63        2976.00           1569          48.00       173.93
  319.66        2976.25           1573          47.00       169.57
  319.69        2976.50           1576          52.00       191.37
  319.72        2976.75           1579          45.00       160.86
  319.75        2977.00           1583          46.00       165.21
  319.78        2977.25           1586          45.00       160.86
  319.81        2977.50           1590          50.00       182.65
  319.84        2977.75           1593          45.00       160.86
  319.87        2978.00           1596          43.00       152.14
  319.91        2978.25           1600          49.00       178.29
  319.94        2978.50           1603          44.00       156.50
  319.97        2978.75           1606          43.00       152.14
  320.00        2979.00           1610          44.00       156.50
  320.03        2979.25           1613          50.00       182.65
  320.06        2979.50           1616          41.00       143.42
  320.09        2979.75           1620          51.00       187.01
  320.12        2980.00           1623          48.00       173.93
  320.15        2980.25           1626          38.00       130.34
  320.18        2980.50           1630          41.00       143.42
  320.21        2980.75           1633          43.00       152.14
  320.24        2981.00           1637          40.00       139.06
  320.27        2981.25           1640          41.00       143.42
  320.30        2981.50           1643          44.00       156.50
  320.34        2981.75           1647          39.00       134.70
  320.37        2982.00           1650          36.00       121.62
  320.40        2982.25           1653          39.00       134.70
  320.43        2982.50           1657          48.00       173.93
  320.46        2982.75           1660          49.00       178.29
  320.49        2983.00           1663          57.00       213.17
  320.52        2983.25           1667          45.00       160.86
  320.55        2983.50           1670          42.00       147.78
  320.58        2983.75           1673          43.00       152.14
  320.61        2984.00           1677          39.00       134.70
HS scan finished at 05:20:50
end
************************************************************
  HS Scan of (1) Internal mercury lamp
************************************************************
Integration time is 0.2294 seconds per sample
dh230117Manchester 53.47 2.23 2.804185pr1000
************************************************************
Dead Time -------------------------  3E-08 
Number of Cycles Used -------------  4 
Starting Wavelength (Angstroms) ---  2950 
Final Wavelength (Angstoms) -------  2984 
Wavelength Increment (Angstroms) --  .25 
Filter Wheel #1 Position ---------- (1) Ground quartz diffuser (ND=2.32)
Filter Wheel #2 Position ---------- (1) Neutral Density 0.494



************************************************************
HS scan start time = 17:42:03
Dark Count =  6.7 


Time (GMT)  Wavelength (Ang)  Step Number  Raw Counts  Counts/Second

 1062.41        2950.00           1222          47.00       175.68
 1062.48        2950.25           1226          45.00       166.96
 1062.51        2950.50           1229          44.00       162.60
 1062.54        2950.75           1232          45.00       166.96
 1062.57        2951.00           1236          44.00       162.60
 1062.60        2951.25           1239          43.00       158.24
 1062.63        2951.50           1242          48.00       180.04
 1062.66        2951.75           1246          40.00       145.16
 1062.69        2952.00           1249          43.00       158.24
 1062.72        2952.25           1252          43.00       158.24
 1062.76        2952.50           1256          41.00       149.52
 1062.79        2952.75           1259          46.00       171.32
 1062.82        2953.00           1262          42.00       153.88
 1062.85        2953.25           1266          40.00       145.16
 1062.88        2953.50           1269          39.00       140.80
 1062.91        2953.75           1272          40.00       145.16
 1062.94        2954.00           1276          47.00       175.68
 1062.97        2954.25           1279          47.00       175.68
 1063.00        2954.50           1282          43.00       158.24
 1063.03        2954.75           1286          45.00       166.96
 1063.07        2955.00           1289          41.00       149.52
 1063.10        2955.25           1292          43.00       158.24
 1063.13        2955.50           1296          51.00       193.11
 1063.16        2955.75           1299          40.00       145.16
 1063.19        2956.00           1302          42.00       153.88
 1063.22        2956.25           1306          47.00       175.68
 1063.25        2956.50           1309          47.00       175.68
 1063.28        2956.75           1312          47.00       175.68
 1063.31        2957.00           1316          42.00       153.88
 1063.34        2957.25           1319          52.00       197.47
 1063.37        2957.50           1322          42.00       153.88
 1063.41        2957.75           1326          46.00       171.32
 1063.44        2958.00           1329          43.00       158.24
 1063.47        2958.25           1332          44.00       162.60
 1063.50        2958.50           1336          46.00       171.32
 1063.53        2958.75           1339          44.00       162.60
 1063.56        2959.00           1342          48.00       180.04
 1063.59        2959.25           1346          40.00       145.16
 1063.62        2959.50           1349          55.00       210.55
 1063.65        2959.75           1352          70.00       275.94
 1063.68        2960.00           1356         100.00       406.72
 1063.71        2960.25           1359         136.00       563.65
 1063.74        2960.50           1362         157.00       655.20
 1063.78        2960.75           1366         220.00       929.84
 1063.81        2961.00           1369         272.00      1156.54
 1063.84        2961.25           1372         299.00      1274.24
 1063.87        2961.50           1376         358.00      1531.46
 1063.90        2961.75           1379         491.00      2111.29
 1063.93        2962.00           1382         972.00      4208.47
 1063.96        2962.25           1386        2454.00     10671.68
 1063.99        2962.50           1389        3981.00     17333.77
 1064.02        2962.75           1392        5570.00     24269.19
 1064.05        2963.00           1396        7446.00     32460.98
 1064.08        2963.25           1399        9050.00     39468.24
 1064.11        2963.50           1402       10649.00     46456.59
 1064.14        2963.75           1406       12913.00     56356.32
 1064.18        2964.00           1409       14437.00     63023.58
 1064.21        2964.25           1412       16459.00     71873.65
 1064.24        2964.50           1416       18555.00     81052.56
 1064.27        2964.75           1419       20283.00     88623.74
 1064.30        2965.00           1422       21915.00     95777.43
 1064.33        2965.25           1426       24150.00    105579.30
 1064.36        2965.50           1429       25839.00    112990.50
 1064.39        2965.75           1432       27570.00    120589.40
 1064.42        2966.00           1436       29569.00    129369.00
 1064.45        2966.25           1439       31216.00    136606.20
 1064.48        2966.50           1442       32883.00    143934.50
 1064.52        2966.75           1446       34229.00    149854.00
 1064.55        2967.00           1449       35225.00    154235.60
 1064.58        2967.25           1452       35446.00    155207.90
 1064.61        2967.50           1456       35430.00    155137.60
 1064.64        2967.75           1459       35228.00    154248.80
 1064.67        2968.00           1462       35224.00    154231.10
 1064.70        2968.25           1466       34427.00    150724.90
 1064.73        2968.50           1469       33445.00    146405.80
 1064.76        2968.75           1472       31916.00    139683.10
 1064.79        2969.00           1476       29993.00    131231.90
 1064.83        2969.25           1479       28423.00    124335.20
 1064.86        2969.50           1482       26860.00    117472.10
 1064.89        2969.75           1486       24672.00    107869.40
 1064.92        2970.00           1489       22972.00    100412.30
 1064.95        2970.25           1492       21483.00     93883.50
 1064.98        2970.50           1496       19237.00     84040.31
 1065.01        2970.75           1499       17865.00     78030.31
 1065.04        2971.00           1502       16172.00     70617.19
 1065.07        2971.25           1506       13967.00     60967.12
 1065.10        2971.50           1509       12294.00     53649.05
 1065.13        2971.75           1513       10066.00     43908.28
 1065.17        2972.00           1516        8580.00     37414.68
 1065.20        2972.25           1519        7005.00     30534.93
 1065.23        2972.50           1523        5041.00     21959.97
 1065.26        2972.75           1526        3523.00     15335.30
 1065.29        2973.00           1529        2045.00      8887.72
 1065.32        2973.25           1533         714.00      3083.55
 1065.35        2973.50           1536         406.00      1740.72
 1065.38        2973.75           1539         280.00      1191.41
 1065.41        2974.00           1543         232.00       982.16
 1065.44        2974.25           1546         174.00       729.31
 1065.47        2974.50           1549         144.00       598.53
 1065.51        2974.75           1553          78.00       310.81
 1065.54        2975.00           1556          79.00       315.17
 1065.57        2975.25           1559          58.00       223.63
 1065.60        2975.50           1563          51.00       193.11
 1065.63        2975.75           1566          51.00       193.11
 1065.66        2976.00           1569          49.00       184.40
 1065.69        2976.25           1573          51.00       193.11
 1065.72        2976.50           1576          47.00       175.68
 1065.75        2976.75           1579          45.00       166.96
 1065.78        2977.00           1583          49.00       184.40
 1065.82        2977.25           1586          48.00       180.04
 1065.85        2977.50           1590          45.00       166.96
 1065.88        2977.75           1593          41.00       149.52
 1065.91        2978.00           1596          49.00       184.40
 1065.94        2978.25           1600          46.00       171.32
 1065.97        2978.50           1603          45.00       166.96
 1066.00        2978.75           1606          48.00       180.04
 1066.03        2979.00           1610          41.00       149.52
 1066.06        2979.25           1613          43.00       158.24
 1066.09        2979.50           1616          46.00       171.32
 1066.12        2979.75           1620          48.00       180.04
 1066.16        2980.00           1623          38.00       136.44
 1066.19        2980.25           1626          46.00       171.32
 1066.22        2980.50           1630          47.00       175.68
 1066.25        2980.75           1633          44.00       162.60
 1066.28        2981.00           1637          41.00       149.52
 1066.31        2981.25           1640          34.00       119.01
 1066.34        2981.50           1643          47.00       175.68
 1066.37        2981.75           1647          38.00       136.44
 1066.40        2982.00           1650          43.00       158.24
 1066.43        2982.25           1653          41.00       149.52
 1066.46        2982.50           1657          40.00       145.16
 1066.50        2982.75           1660          41.00       149.52
 1066.53        2983.00           1663          47.00       175.68
 1066.56        2983.25           1667          46.00       171.32
 1066.59        2983.50           1670          49.00       184.40
 1066.62        2983.75           1673          44.00       162.60
 1066.65        2984.00           1677          44.00       162.60
HS scan finished at 17:46:52
end
