************************************************************
  HS Scan of (1) Internal mercury lamp
************************************************************
Integration time is 0.2294 seconds per sample
dh290118Manchester 53.47 2.23 2.804185pr1000
************************************************************
Dead Time -------------------------  3E-08 
Number of Cycles Used -------------  4 
Starting Wavelength (Angstroms) ---  2950 
Final Wavelength (Angstoms) -------  2984 
Wavelength Increment (Angstroms) --  .25 
Filter Wheel #1 Position ---------- (1) Ground quartz diffuser (ND=2.32)
Filter Wheel #2 Position ---------- (1) Neutral Density 0.494



************************************************************
HS scan start time = 17:42:03
Dark Count =  7.1 


Time (GMT)  Wavelength (Ang)  Step Number  Raw Counts  Counts/Second

 1062.41        2950.00           1222          59.00       226.24
 1062.48        2950.25           1226          63.00       243.68
 1062.51        2950.50           1229          60.00       230.60
 1062.54        2950.75           1232          55.00       208.81
 1062.57        2951.00           1236          63.00       243.68
 1062.60        2951.25           1239          67.00       261.12
 1062.63        2951.50           1242          59.00       226.24
 1062.66        2951.75           1246          69.00       269.84
 1062.70        2952.00           1249          55.00       208.81
 1062.73        2952.25           1252          64.00       248.04
 1062.76        2952.50           1256          64.00       248.04
 1062.79        2952.75           1259          60.00       230.60
 1062.82        2953.00           1262          54.00       204.45
 1062.85        2953.25           1266          57.00       217.53
 1062.88        2953.50           1269          62.00       239.32
 1062.91        2953.75           1272          82.00       326.51
 1062.94        2954.00           1276          66.00       256.76
 1062.97        2954.25           1279          62.00       239.32
 1063.00        2954.50           1282          65.00       252.40
 1063.03        2954.75           1286          62.00       239.32
 1063.06        2955.00           1289          63.00       243.68
 1063.10        2955.25           1292          57.00       217.53
 1063.13        2955.50           1296          58.00       221.88
 1063.16        2955.75           1299          66.00       256.76
 1063.19        2956.00           1302          65.00       252.40
 1063.22        2956.25           1306          59.00       226.24
 1063.25        2956.50           1309          65.00       252.40
 1063.28        2956.75           1312          62.00       239.32
 1063.31        2957.00           1316          61.00       234.96
 1063.34        2957.25           1319          60.00       230.60
 1063.38        2957.50           1322          58.00       221.88
 1063.41        2957.75           1326          57.00       217.53
 1063.44        2958.00           1329          60.00       230.60
 1063.47        2958.25           1332          63.00       243.68
 1063.50        2958.50           1336          57.00       217.53
 1063.53        2958.75           1339          63.00       243.68
 1063.56        2959.00           1342          67.00       261.12
 1063.59        2959.25           1346          64.00       248.04
 1063.62        2959.50           1349          70.00       274.20
 1063.65        2959.75           1352          80.00       317.79
 1063.69        2960.00           1356         108.00       439.85
 1063.72        2960.25           1359         141.00       583.71
 1063.75        2960.50           1362         171.00       714.49
 1063.78        2960.75           1366         224.00       945.54
 1063.81        2961.00           1369         268.00      1137.35
 1063.84        2961.25           1372         305.00      1298.66
 1063.87        2961.50           1376         386.00      1651.78
 1063.90        2961.75           1379         544.00      2340.62
 1063.93        2962.00           1382        1133.00      4908.74
 1063.96        2962.25           1386        2825.00     12288.31
 1063.99        2962.50           1389        4298.00     18715.39
 1064.03        2962.75           1392        5833.00     25415.62
 1064.06        2963.00           1396        7689.00     33520.61
 1064.09        2963.25           1399        9146.00     39885.98
 1064.12        2963.50           1402       10613.00     46297.48
 1064.15        2963.75           1406       12639.00     55156.15
 1064.18        2964.00           1409       14269.00     62286.74
 1064.21        2964.25           1412       15900.00     69424.75
 1064.24        2964.50           1416       17663.00     77143.90
 1064.27        2964.75           1419       19090.00     83394.52
 1064.30        2965.00           1422       20647.00     90217.27
 1064.33        2965.25           1426       22627.00     98897.61
 1064.37        2965.50           1429       24332.00    106376.00
 1064.40        2965.75           1432       25858.00    113072.10
 1064.43        2966.00           1436       27837.00    121760.00
 1064.46        2966.25           1439       29506.00    129090.50
 1064.49        2966.50           1442       30704.00    134354.30
 1064.52        2966.75           1446       31957.00    139861.60
 1064.55        2967.00           1449       32377.00    141708.00
 1064.58        2967.25           1452       32521.00    142341.10
 1064.61        2967.50           1456       32344.00    141562.90
 1064.64        2967.75           1459       32551.00    142473.00
 1064.67        2968.00           1462       32239.00    141101.30
 1064.70        2968.25           1466       31359.00    137233.00
 1064.73        2968.50           1469       29976.00    131155.40
 1064.76        2968.75           1472       28636.00    125268.90
 1064.80        2969.00           1476       26705.00    116789.90
 1064.83        2969.25           1479       25171.00    110057.20
 1064.86        2969.50           1482       23658.00    103419.30
 1064.89        2969.75           1486       21807.00     95302.18
 1064.92        2970.00           1489       20346.00     88898.07
 1064.95        2970.25           1492       18930.00     82693.56
 1064.98        2970.50           1496       17050.00     74459.52
 1065.01        2970.75           1499       15462.00     67507.55
 1065.05        2971.00           1502       13897.00     60659.11
 1065.08        2971.25           1506       11900.00     51924.33
 1065.11        2971.50           1509       10236.00     44649.57
 1065.14        2971.75           1513        8431.00     36761.97
 1065.17        2972.00           1516        6859.00     29895.59
 1065.20        2972.25           1519        5352.00     23315.78
 1065.23        2972.50           1523        3425.00     14905.97
 1065.26        2972.75           1526        2060.00      8951.40
 1065.29        2973.00           1529         877.00      3792.50
 1065.32        2973.25           1533         417.00      1786.93
 1065.35        2973.50           1536         328.00      1398.93
 1065.38        2973.75           1539         297.00      1263.78
 1065.41        2974.00           1543         232.00       980.41
 1065.45        2974.25           1546         178.00       745.00
 1065.48        2974.50           1549         140.00       579.35
 1065.51        2974.75           1553         108.00       439.85
 1065.54        2975.00           1556          77.00       304.71
 1065.57        2975.25           1559          68.00       265.48
 1065.60        2975.50           1563          69.00       269.84
 1065.63        2975.75           1566          56.00       213.17
 1065.66        2976.00           1569          65.00       252.40
 1065.69        2976.25           1573          61.00       234.96
 1065.72        2976.50           1576          64.00       248.04
 1065.75        2976.75           1579          61.00       234.96
 1065.78        2977.00           1583          58.00       221.88
 1065.81        2977.25           1586          63.00       243.68
 1065.85        2977.50           1590          62.00       239.32
 1065.88        2977.75           1593          60.00       230.60
 1065.91        2978.00           1596          50.00       187.01
 1065.94        2978.25           1600          53.00       200.09
 1065.97        2978.50           1603          60.00       230.60
 1066.00        2978.75           1606          55.00       208.81
 1066.03        2979.00           1610          48.00       178.29
 1066.06        2979.25           1613          60.00       230.60
 1066.09        2979.50           1616          61.00       234.96
 1066.12        2979.75           1620          57.00       217.53
 1066.15        2980.00           1623          60.00       230.60
 1066.18        2980.25           1626          61.00       234.96
 1066.21        2980.50           1630          61.00       234.96
 1066.24        2980.75           1633          53.00       200.09
 1066.27        2981.00           1637          60.00       230.60
 1066.31        2981.25           1640          60.00       230.60
 1066.34        2981.50           1643          60.00       230.60
 1066.37        2981.75           1647          61.00       234.96
 1066.40        2982.00           1650          55.00       208.81
 1066.43        2982.25           1653          55.00       208.81
 1066.46        2982.50           1657          54.00       204.45
 1066.49        2982.75           1660          56.00       213.17
 1066.52        2983.00           1663          48.00       178.29
 1066.55        2983.25           1667          59.00       226.24
 1066.58        2983.50           1670          54.00       204.45
 1066.61        2983.75           1673          56.00       213.17
 1066.64        2984.00           1677          61.00       234.96
HS scan finished at 17:46:52
end
