************************************************************
  HS Scan of (1) Internal mercury lamp
************************************************************
Integration time is 0.2294 seconds per sample
dh220117Manchester 53.47 2.23 2.750537pr1000
************************************************************
Dead Time -------------------------  3E-08 
Number of Cycles Used -------------  4 
Starting Wavelength (Angstroms) ---  2950 
Final Wavelength (Angstoms) -------  2984 
Wavelength Increment (Angstroms) --  .25 
Filter Wheel #1 Position ---------- (1) Ground quartz diffuser (ND=2.32)
Filter Wheel #2 Position ---------- (1) Neutral Density 0.494



************************************************************
HS scan start time = 05:16:56
Dark Count =  6.8 


Time (GMT)  Wavelength (Ang)  Step Number  Raw Counts  Counts/Second

  317.30        2950.00           1222          46.00       170.88
  317.37        2950.25           1226          44.00       162.16
  317.40        2950.50           1229          48.00       179.60
  317.43        2950.75           1232          48.00       179.60
  317.46        2951.00           1236          46.00       170.88
  317.49        2951.25           1239          41.00       149.09
  317.52        2951.50           1242          48.00       179.60
  317.55        2951.75           1246          48.00       179.60
  317.58        2952.00           1249          41.00       149.09
  317.61        2952.25           1252          41.00       149.09
  317.65        2952.50           1256          44.00       162.16
  317.68        2952.75           1259          40.00       144.73
  317.71        2953.00           1262          39.00       140.37
  317.74        2953.25           1266          47.00       175.24
  317.77        2953.50           1269          46.00       170.88
  317.80        2953.75           1272          49.00       183.96
  317.83        2954.00           1276          41.00       149.09
  317.86        2954.25           1279          47.00       175.24
  317.89        2954.50           1282          41.00       149.09
  317.92        2954.75           1286          45.00       166.52
  317.95        2955.00           1289          43.00       157.80
  317.99        2955.25           1292          45.00       166.52
  318.02        2955.50           1296          41.00       149.09
  318.05        2955.75           1299          34.00       118.57
  318.08        2956.00           1302          51.00       192.68
  318.11        2956.25           1306          45.00       166.52
  318.14        2956.50           1309          45.00       166.52
  318.17        2956.75           1312          45.00       166.52
  318.20        2957.00           1316          41.00       149.09
  318.23        2957.25           1319          48.00       179.60
  318.27        2957.50           1322          54.00       205.76
  318.30        2957.75           1326          49.00       183.96
  318.33        2958.00           1329          45.00       166.52
  318.36        2958.25           1332          43.00       157.80
  318.39        2958.50           1336          52.00       197.04
  318.42        2958.75           1339          57.00       218.83
  318.45        2959.00           1342          48.00       179.60
  318.48        2959.25           1346          52.00       197.04
  318.51        2959.50           1349          57.00       218.83
  318.54        2959.75           1352          58.00       223.19
  318.57        2960.00           1356          75.00       297.30
  318.60        2960.25           1359         107.00       436.80
  318.64        2960.50           1362         133.00       550.14
  318.67        2960.75           1366         187.00       785.55
  318.70        2961.00           1369         233.00       986.08
  318.73        2961.25           1372         285.00      1212.77
  318.76        2961.50           1376         335.00      1430.75
  318.79        2961.75           1379         498.00      2141.38
  318.82        2962.00           1382        1015.00      4395.52
  318.85        2962.25           1386        2600.00     11308.11
  318.88        2962.50           1389        4040.00     17590.80
  318.91        2962.75           1392        5634.00     24548.15
  318.94        2963.00           1396        7724.00     33674.81
  318.97        2963.25           1399        9277.00     40459.72
  319.00        2963.50           1402       10854.00     47352.32
  319.04        2963.75           1406       13143.00     57361.92
  319.07        2964.00           1409       14824.00     64716.64
  319.10        2964.25           1412       16568.00     72350.41
  319.13        2964.50           1416       18786.00     82064.04
  319.16        2964.75           1419       20446.00     89337.63
  319.19        2965.00           1422       21997.00     96136.49
  319.22        2965.25           1426       24301.00    106241.30
  319.25        2965.50           1429       25961.00    113525.50
  319.28        2965.75           1432       27583.00    120646.00
  319.31        2966.00           1436       29627.00    129623.40
  319.35        2966.25           1439       31452.00    137643.10
  319.38        2966.50           1442       32698.00    143120.60
  319.41        2966.75           1446       34344.00    150359.40
  319.44        2967.00           1449       35325.00    154675.10
  319.47        2967.25           1452       35482.00    155365.90
  319.50        2967.50           1456       35450.00    155225.10
  319.53        2967.75           1459       35536.00    155603.50
  319.56        2968.00           1462       35474.00    155330.70
  319.59        2968.25           1466       34757.00    152176.10
  319.62        2968.50           1469       33338.00    145934.80
  319.66        2968.75           1472       31760.00    138996.90
  319.69        2969.00           1476       29740.00    130119.90
  319.72        2969.25           1479       28325.00    123904.40
  319.75        2969.50           1482       26608.00    116365.40
  319.78        2969.75           1486       24510.00    107158.20
  319.81        2970.00           1489       22862.00     99929.47
  319.84        2970.25           1492       21376.00     93413.99
  319.87        2970.50           1496       18972.00     82878.88
  319.90        2970.75           1499       17453.00     76225.55
  319.94        2971.00           1502       15643.00     68301.10
  319.97        2971.25           1506       13528.00     59046.10
  320.00        2971.50           1509       11854.00     51724.49
  320.03        2971.75           1513        9712.00     42360.69
  320.06        2972.00           1516        8028.00     35002.74
  320.09        2972.25           1519        6443.00     28080.32
  320.12        2972.50           1523        4423.00     19262.22
  320.15        2972.75           1526        2931.00     12752.05
  320.18        2973.00           1529        1598.00      6937.80
  320.22        2973.25           1533         572.00      2464.00
  320.25        2973.50           1536         377.00      1613.85
  320.28        2973.75           1539         313.00      1334.84
  320.31        2974.00           1543         270.00      1147.38
  320.34        2974.25           1546         188.00       789.91
  320.37        2974.50           1549         144.00       598.09
  320.40        2974.75           1553          92.00       371.41
  320.43        2975.00           1556          66.00       258.07
  320.46        2975.25           1559          50.00       188.32
  320.49        2975.50           1563          49.00       183.96
  320.52        2975.75           1566          48.00       179.60
  320.55        2976.00           1569          42.00       153.44
  320.58        2976.25           1573          53.00       201.40
  320.62        2976.50           1576          53.00       201.40
  320.65        2976.75           1579          50.00       188.32
  320.68        2977.00           1583          44.00       162.16
  320.71        2977.25           1586          56.00       214.47
  320.74        2977.50           1590          52.00       197.04
  320.77        2977.75           1593          49.00       183.96
  320.80        2978.00           1596          40.00       144.73
  320.83        2978.25           1600          45.00       166.52
  320.86        2978.50           1603          52.00       197.04
  320.89        2978.75           1606          41.00       149.09
  320.92        2979.00           1610          40.00       144.73
  320.95        2979.25           1613          41.00       149.09
  320.99        2979.50           1616          46.00       170.88
  321.02        2979.75           1620          64.00       249.35
  321.05        2980.00           1623          38.00       136.01
  321.08        2980.25           1626          36.00       127.29
  321.11        2980.50           1630          45.00       166.52
  321.14        2980.75           1633          46.00       170.88
  321.17        2981.00           1637          52.00       197.04
  321.20        2981.25           1640          42.00       153.44
  321.23        2981.50           1643          40.00       144.73
  321.26        2981.75           1647          41.00       149.09
  321.29        2982.00           1650          47.00       175.24
  321.33        2982.25           1653          42.00       153.44
  321.36        2982.50           1657          38.00       136.01
  321.39        2982.75           1660          44.00       162.16
  321.42        2983.00           1663          40.00       144.73
  321.45        2983.25           1667          48.00       179.60
  321.48        2983.50           1670          41.00       149.09
  321.51        2983.75           1673          52.00       197.04
  321.54        2984.00           1677          45.00       166.52
HS scan finished at 05:21:45
end
************************************************************
  HS Scan of (1) Internal mercury lamp
************************************************************
Integration time is 0.2294 seconds per sample
dh220117Manchester 53.47 2.23 2.750537pr1000
************************************************************
Dead Time -------------------------  3E-08 
Number of Cycles Used -------------  4 
Starting Wavelength (Angstroms) ---  2950 
Final Wavelength (Angstoms) -------  2984 
Wavelength Increment (Angstroms) --  .25 
Filter Wheel #1 Position ---------- (1) Ground quartz diffuser (ND=2.32)
Filter Wheel #2 Position ---------- (1) Neutral Density 0.494



************************************************************
HS scan start time = 17:42:01
Dark Count =  6.8 


Time (GMT)  Wavelength (Ang)  Step Number  Raw Counts  Counts/Second

 1062.39        2950.00           1222          44.00       162.16
 1062.46        2950.25           1226          43.00       157.80
 1062.49        2950.50           1229          44.00       162.16
 1062.52        2950.75           1232          70.00       275.50
 1062.55        2951.00           1236          53.00       201.40
 1062.58        2951.25           1239          48.00       179.60
 1062.61        2951.50           1242          41.00       149.09
 1062.64        2951.75           1246          50.00       188.32
 1062.67        2952.00           1249          44.00       162.16
 1062.71        2952.25           1252          53.00       201.40
 1062.74        2952.50           1256          50.00       188.32
 1062.77        2952.75           1259          41.00       149.09
 1062.80        2953.00           1262          43.00       157.80
 1062.83        2953.25           1266          44.00       162.16
 1062.86        2953.50           1269          43.00       157.80
 1062.89        2953.75           1272          41.00       149.09
 1062.92        2954.00           1276          41.00       149.09
 1062.95        2954.25           1279          47.00       175.24
 1062.98        2954.50           1282          48.00       179.60
 1063.01        2954.75           1286          40.00       144.73
 1063.05        2955.00           1289          46.00       170.88
 1063.08        2955.25           1292          48.00       179.60
 1063.11        2955.50           1296          40.00       144.73
 1063.14        2955.75           1299          45.00       166.52
 1063.17        2956.00           1302          56.00       214.47
 1063.20        2956.25           1306          36.00       127.29
 1063.23        2956.50           1309          41.00       149.09
 1063.26        2956.75           1312          52.00       197.04
 1063.29        2957.00           1316          44.00       162.16
 1063.32        2957.25           1319          42.00       153.44
 1063.35        2957.50           1322          44.00       162.16
 1063.38        2957.75           1326          41.00       149.09
 1063.42        2958.00           1329          44.00       162.16
 1063.45        2958.25           1332          45.00       166.52
 1063.48        2958.50           1336          49.00       183.96
 1063.51        2958.75           1339          54.00       205.76
 1063.54        2959.00           1342          48.00       179.60
 1063.57        2959.25           1346          53.00       201.40
 1063.60        2959.50           1349          58.00       223.19
 1063.63        2959.75           1352          71.00       279.86
 1063.66        2960.00           1356          98.00       397.56
 1063.69        2960.25           1359         149.00       619.89
 1063.72        2960.50           1362         179.00       750.67
 1063.75        2960.75           1366         243.00      1029.67
 1063.79        2961.00           1369         280.00      1190.98
 1063.82        2961.25           1372         328.00      1400.23
 1063.85        2961.50           1376         413.00      1770.80
 1063.88        2961.75           1379         707.00      3052.59
 1063.91        2962.00           1382        1407.00      6104.87
 1063.94        2962.25           1386        3096.00     13471.88
 1063.97        2962.50           1389        4656.00     20279.12
 1064.00        2962.75           1392        6179.00     26927.59
 1064.03        2963.00           1396        8209.00     35793.43
 1064.06        2963.25           1399        9928.00     43304.70
 1064.09        2963.50           1402       11521.00     50268.43
 1064.12        2963.75           1406       13729.00     59925.42
 1064.16        2964.00           1409       15345.00     66996.77
 1064.19        2964.25           1412       17276.00     75450.45
 1064.22        2964.50           1416       19402.00     84762.78
 1064.25        2964.75           1419       21240.00     92817.81
 1064.28        2965.00           1422       22572.00     98657.74
 1064.31        2965.25           1426       25012.00    109360.80
 1064.34        2965.50           1429       26604.00    116347.90
 1064.37        2965.75           1432       28179.00    123263.20
 1064.40        2966.00           1436       30501.00    133463.60
 1064.43        2966.25           1439       32031.00    140188.20
 1064.47        2966.50           1442       33513.00    146704.40
 1064.50        2966.75           1446       34839.00    152536.90
 1064.53        2967.00           1449       35304.00    154582.70
 1064.56        2967.25           1452       35421.00    155097.50
 1064.59        2967.50           1456       35365.00    154851.10
 1064.62        2967.75           1459       35304.00    154582.70
 1064.65        2968.00           1462       35086.00    153623.60
 1064.68        2968.25           1466       34021.00    148938.60
 1064.71        2968.50           1469       32818.00    143648.20
 1064.74        2968.75           1472       31412.00    137467.20
 1064.78        2969.00           1476       29102.00    127317.10
 1064.81        2969.25           1479       27820.00    121686.70
 1064.84        2969.50           1482       26170.00    114442.80
 1064.87        2969.75           1486       24152.00    105587.60
 1064.90        2970.00           1489       22406.00     97929.83
 1064.93        2970.25           1492       20831.00     91025.04
 1064.96        2970.50           1496       18628.00     81371.90
 1064.99        2970.75           1499       17010.00     74285.68
 1065.02        2971.00           1502       15392.00     67202.49
 1065.06        2971.25           1506       13101.00     57178.21
 1065.09        2971.50           1509       11442.00     49923.02
 1065.12        2971.75           1513        9532.00     41574.06
 1065.15        2972.00           1516        7881.00     34360.60
 1065.18        2972.25           1519        6428.00     28014.82
 1065.21        2972.50           1523        4294.00     18699.24
 1065.24        2972.75           1526        2730.00     11875.20
 1065.27        2973.00           1529        1362.00      5908.63
 1065.30        2973.25           1533         472.00      2028.02
 1065.33        2973.50           1536         312.00      1330.48
 1065.37        2973.75           1539         264.00      1121.22
 1065.40        2974.00           1543         196.00       824.78
 1065.43        2974.25           1546         149.00       619.89
 1065.46        2974.50           1549         133.00       550.14
 1065.49        2974.75           1553          71.00       279.86
 1065.52        2975.00           1556          55.00       210.11
 1065.55        2975.25           1559          54.00       205.76
 1065.58        2975.50           1563          39.00       140.37
 1065.61        2975.75           1566          43.00       157.80
 1065.64        2976.00           1569          42.00       153.44
 1065.67        2976.25           1573          46.00       170.88
 1065.70        2976.50           1576          42.00       153.44
 1065.73        2976.75           1579          46.00       170.88
 1065.76        2977.00           1583          43.00       157.80
 1065.79        2977.25           1586          52.00       197.04
 1065.82        2977.50           1590          40.00       144.73
 1065.85        2977.75           1593          49.00       183.96
 1065.88        2978.00           1596          45.00       166.52
 1065.92        2978.25           1600          45.00       166.52
 1065.95        2978.50           1603          40.00       144.73
 1065.98        2978.75           1606          41.00       149.09
 1066.01        2979.00           1610          44.00       162.16
 1066.04        2979.25           1613          44.00       162.16
 1066.07        2979.50           1616          50.00       188.32
 1066.10        2979.75           1620          50.00       188.32
 1066.13        2980.00           1623          46.00       170.88
 1066.16        2980.25           1626          40.00       144.73
 1066.19        2980.50           1630          36.00       127.29
 1066.22        2980.75           1633          48.00       179.60
 1066.25        2981.00           1637          53.00       201.40
 1066.28        2981.25           1640          41.00       149.09
 1066.31        2981.50           1643          41.00       149.09
 1066.34        2981.75           1647          42.00       153.44
 1066.37        2982.00           1650          44.00       162.16
 1066.40        2982.25           1653          45.00       166.52
 1066.44        2982.50           1657          40.00       144.73
 1066.47        2982.75           1660          39.00       140.37
 1066.50        2983.00           1663          42.00       153.44
 1066.53        2983.25           1667          46.00       170.88
 1066.56        2983.50           1670          44.00       162.16
 1066.59        2983.75           1673          45.00       166.52
 1066.62        2984.00           1677          43.00       157.80
HS scan finished at 17:46:50
end
