************************************************************
  HS Scan of (1) Internal mercury lamp
************************************************************
Integration time is 0.2294 seconds per sample
dh260117Manchester 53.47 2.23 2.750537pr1000
************************************************************
Dead Time -------------------------  3E-08 
Number of Cycles Used -------------  4 
Starting Wavelength (Angstroms) ---  2950 
Final Wavelength (Angstoms) -------  2984 
Wavelength Increment (Angstroms) --  .25 
Filter Wheel #1 Position ---------- (1) Ground quartz diffuser (ND=2.32)
Filter Wheel #2 Position ---------- (1) Neutral Density 0.494



************************************************************
HS scan start time = 05:12:46
Dark Count =  4.2 


Time (GMT)  Wavelength (Ang)  Step Number  Raw Counts  Counts/Second

  313.13        2950.00           1222          49.00       195.29
  313.20        2950.25           1226          58.00       234.53
  313.23        2950.50           1229          41.00       160.42
  313.26        2950.75           1232          47.00       186.57
  313.29        2951.00           1236          49.00       195.29
  313.32        2951.25           1239          47.00       186.57
  313.35        2951.50           1242          39.00       151.70
  313.39        2951.75           1246          47.00       186.57
  313.42        2952.00           1249          47.00       186.57
  313.45        2952.25           1252          47.00       186.57
  313.48        2952.50           1256          51.00       204.01
  313.51        2952.75           1259          44.00       173.50
  313.54        2953.00           1262          41.00       160.42
  313.57        2953.25           1266          43.00       169.14
  313.60        2953.50           1269          46.00       182.22
  313.63        2953.75           1272          46.00       182.22
  313.66        2954.00           1276          41.00       160.42
  313.70        2954.25           1279          52.00       208.37
  313.73        2954.50           1282          40.00       156.06
  313.76        2954.75           1286          44.00       173.50
  313.79        2955.00           1289          51.00       204.01
  313.82        2955.25           1292          39.00       151.70
  313.85        2955.50           1296          39.00       151.70
  313.88        2955.75           1299          48.00       190.93
  313.91        2956.00           1302          40.00       156.06
  313.94        2956.25           1306          40.00       156.06
  313.97        2956.50           1309          46.00       182.22
  314.00        2956.75           1312          40.00       156.06
  314.04        2957.00           1316          44.00       173.50
  314.07        2957.25           1319          41.00       160.42
  314.10        2957.50           1322          43.00       169.14
  314.13        2957.75           1326          44.00       173.50
  314.16        2958.00           1329          48.00       190.93
  314.19        2958.25           1332          50.00       199.65
  314.22        2958.50           1336          39.00       151.70
  314.25        2958.75           1339          51.00       204.01
  314.28        2959.00           1342          44.00       173.50
  314.31        2959.25           1346          50.00       199.65
  314.34        2959.50           1349          49.00       195.29
  314.37        2959.75           1352          62.00       251.96
  314.41        2960.00           1356          87.00       360.95
  314.44        2960.25           1359         113.00       474.29
  314.47        2960.50           1362         150.00       635.58
  314.50        2960.75           1366         213.00       910.23
  314.53        2961.00           1369         260.00      1115.12
  314.56        2961.25           1372         292.00      1254.62
  314.59        2961.50           1376         368.00      1585.95
  314.62        2961.75           1379         496.00      2143.99
  314.65        2962.00           1382         934.00      4053.68
  314.68        2962.25           1386        2459.00     10704.40
  314.72        2962.50           1389        4093.00     17833.43
  314.75        2962.75           1392        5679.00     24755.95
  314.78        2963.00           1396        7963.00     34730.15
  314.81        2963.25           1399        9383.00     40934.29
  314.84        2963.50           1402       11004.00     48019.43
  314.87        2963.75           1406       13310.00     58103.81
  314.90        2964.00           1409       14860.00     64885.56
  314.93        2964.25           1412       16779.00     73285.63
  314.96        2964.50           1416       18772.00     82014.10
  314.99        2964.75           1419       20371.00     89020.34
  315.03        2965.00           1422       22039.00     96332.06
  315.06        2965.25           1426       24230.00    105941.20
  315.09        2965.50           1429       26027.00    113826.60
  315.12        2965.75           1432       27805.00    121632.20
  315.15        2966.00           1436       29959.00    131093.50
  315.18        2966.25           1439       31562.00    138138.00
  315.21        2966.50           1442       32899.00    144015.80
  315.24        2966.75           1446       34498.00    151048.20
  315.27        2967.00           1449       35314.00    154638.10
  315.31        2967.25           1452       35467.00    155311.40
  315.34        2967.50           1456       35488.00    155403.80
  315.37        2967.75           1459       35472.00    155333.40
  315.40        2968.00           1462       35296.00    154558.90
  315.43        2968.25           1466       34705.00    151958.80
  315.46        2968.50           1469       33479.00    146566.30
  315.49        2968.75           1472       31965.00    139909.50
  315.52        2969.00           1476       29830.00    130526.70
  315.55        2969.25           1479       28165.00    123213.10
  315.59        2969.50           1482       26507.00    115933.50
  315.62        2969.75           1486       24376.00    106581.80
  315.65        2970.00           1489       22759.00     99489.19
  315.68        2970.25           1492       21173.00     92535.52
  315.71        2970.50           1496       19185.00     83823.43
  315.74        2970.75           1499       17584.00     76810.63
  315.77        2971.00           1502       15941.00     69616.91
  315.80        2971.25           1506       13724.00     59914.92
  315.83        2971.50           1509       11928.00     52059.44
  315.87        2971.75           1513        9756.00     42564.35
  315.90        2972.00           1516        8181.00     35682.47
  315.93        2972.25           1519        6550.00     28558.90
  315.96        2972.50           1523        4416.00     19243.01
  315.99        2972.75           1526        3050.00     13282.54
  316.02        2973.00           1529        1658.00      7210.80
  316.05        2973.25           1533         592.00      2562.53
  316.08        2973.50           1536         375.00      1616.47
  316.11        2973.75           1539         310.00      1333.10
  316.14        2974.00           1543         252.00      1080.24
  316.17        2974.25           1546         185.00       788.16
  316.21        2974.50           1549         145.00       613.79
  316.24        2974.75           1553          97.00       404.54
  316.27        2975.00           1556          77.00       317.35
  316.30        2975.25           1559          64.00       260.68
  316.33        2975.50           1563          46.00       182.22
  316.36        2975.75           1566          41.00       160.42
  316.39        2976.00           1569          44.00       173.50
  316.42        2976.25           1573          42.00       164.78
  316.45        2976.50           1576          50.00       199.65
  316.48        2976.75           1579          42.00       164.78
  316.51        2977.00           1583          44.00       173.50
  316.54        2977.25           1586          42.00       164.78
  316.57        2977.50           1590          39.00       151.70
  316.60        2977.75           1593          45.00       177.86
  316.63        2978.00           1596          39.00       151.70
  316.67        2978.25           1600          40.00       156.06
  316.70        2978.50           1603          45.00       177.86
  316.73        2978.75           1606          49.00       195.29
  316.76        2979.00           1610          41.00       160.42
  316.79        2979.25           1613          39.00       151.70
  316.82        2979.50           1616          42.00       164.78
  316.85        2979.75           1620          45.00       177.86
  316.88        2980.00           1623          48.00       190.93
  316.91        2980.25           1626          48.00       190.93
  316.95        2980.50           1630          43.00       169.14
  316.98        2980.75           1633          40.00       156.06
  317.01        2981.00           1637          41.00       160.42
  317.04        2981.25           1640          36.00       138.62
  317.07        2981.50           1643          50.00       199.65
  317.10        2981.75           1647          48.00       190.93
  317.13        2982.00           1650          49.00       195.29
  317.16        2982.25           1653          46.00       182.22
  317.19        2982.50           1657          44.00       173.50
  317.22        2982.75           1660          41.00       160.42
  317.25        2983.00           1663          46.00       182.22
  317.29        2983.25           1667          48.00       190.93
  317.32        2983.50           1670          41.00       160.42
  317.35        2983.75           1673          47.00       186.57
  317.38        2984.00           1677          41.00       160.42
HS scan finished at 05:17:36
end
************************************************************
  HS Scan of (1) Internal mercury lamp
************************************************************
Integration time is 0.2294 seconds per sample
dh260117Manchester 53.47 2.23 2.750537pr1000
************************************************************
Dead Time -------------------------  3E-08 
Number of Cycles Used -------------  4 
Starting Wavelength (Angstroms) ---  2950 
Final Wavelength (Angstoms) -------  2984 
Wavelength Increment (Angstroms) --  .25 
Filter Wheel #1 Position ---------- (1) Ground quartz diffuser (ND=2.32)
Filter Wheel #2 Position ---------- (1) Neutral Density 0.494



************************************************************
HS scan start time = 17:42:02
Dark Count =  5.1 


Time (GMT)  Wavelength (Ang)  Step Number  Raw Counts  Counts/Second

 1062.41        2950.00           1222          46.00       178.29
 1062.47        2950.25           1226          47.00       182.65
 1062.51        2950.50           1229          49.00       191.37
 1062.54        2950.75           1232          40.00       152.14
 1062.57        2951.00           1236          45.00       173.93
 1062.60        2951.25           1239          49.00       191.37
 1062.63        2951.50           1242          50.00       195.73
 1062.66        2951.75           1246          44.00       169.57
 1062.69        2952.00           1249          52.00       204.45
 1062.72        2952.25           1252          44.00       169.57
 1062.75        2952.50           1256          48.00       187.01
 1062.78        2952.75           1259          39.00       147.78
 1062.81        2953.00           1262          39.00       147.78
 1062.84        2953.25           1266          47.00       182.65
 1062.87        2953.50           1269          43.00       165.21
 1062.91        2953.75           1272          43.00       165.21
 1062.94        2954.00           1276          43.00       165.21
 1062.97        2954.25           1279          37.00       139.06
 1063.00        2954.50           1282          41.00       156.50
 1063.03        2954.75           1286          49.00       191.37
 1063.06        2955.00           1289          53.00       208.81
 1063.09        2955.25           1292          46.00       178.29
 1063.12        2955.50           1296          46.00       178.29
 1063.15        2955.75           1299          53.00       208.81
 1063.18        2956.00           1302          45.00       173.93
 1063.22        2956.25           1306          46.00       178.29
 1063.25        2956.50           1309          50.00       195.73
 1063.28        2956.75           1312          41.00       156.50
 1063.31        2957.00           1316          44.00       169.57
 1063.34        2957.25           1319          45.00       173.93
 1063.37        2957.50           1322          44.00       169.57
 1063.40        2957.75           1326          42.00       160.86
 1063.43        2958.00           1329          41.00       156.50
 1063.46        2958.25           1332          53.00       208.81
 1063.49        2958.50           1336          46.00       178.29
 1063.52        2958.75           1339          49.00       191.37
 1063.56        2959.00           1342          39.00       147.78
 1063.59        2959.25           1346          46.00       178.29
 1063.62        2959.50           1349          52.00       204.45
 1063.65        2959.75           1352          66.00       265.48
 1063.68        2960.00           1356         106.00       439.85
 1063.71        2960.25           1359         138.00       579.35
 1063.74        2960.50           1362         176.00       745.00
 1063.77        2960.75           1366         240.00      1024.01
 1063.80        2961.00           1369         265.00      1132.99
 1063.83        2961.25           1372         312.00      1337.89
 1063.86        2961.50           1376         376.00      1616.91
 1063.89        2961.75           1379         550.00      2375.50
 1063.92        2962.00           1382        1086.00      4712.52
 1063.95        2962.25           1386        2712.00     11804.09
 1063.99        2962.50           1389        4240.00     18471.00
 1064.02        2962.75           1392        5894.00     25690.68
 1064.05        2963.00           1396        7705.00     33599.24
 1064.08        2963.25           1399        9322.00     40663.79
 1064.11        2963.50           1402       11148.00     48645.05
 1064.14        2963.75           1406       13430.00     58624.82
 1064.17        2964.00           1409       15056.00     65739.38
 1064.20        2964.25           1412       16827.00     73491.85
 1064.23        2964.50           1416       19021.00     83101.00
 1064.27        2964.75           1419       20645.00     90217.27
 1064.30        2965.00           1422       22483.00     98274.93
 1064.33        2965.25           1426       24515.00    107187.60
 1064.36        2965.50           1429       26062.00    113976.20
 1064.39        2965.75           1432       27732.00    121307.70
 1064.42        2966.00           1436       29993.00    131238.90
 1064.45        2966.25           1439       31596.00    138283.50
 1064.48        2966.50           1442       32904.00    144033.90
 1064.51        2966.75           1446       34694.00    151906.50
 1064.55        2967.00           1449       35304.00    154590.20
 1064.58        2967.25           1452       35364.00    154854.20
 1064.61        2967.50           1456       35172.00    154009.40
 1064.64        2967.75           1459       35219.00    154216.20
 1064.67        2968.00           1462       34955.00    153054.70
 1064.70        2968.25           1466       34220.00    149821.40
 1064.73        2968.50           1469       33264.00    145616.90
 1064.76        2968.75           1472       31510.00    137905.50
 1064.79        2969.00           1476       29694.00    129925.20
 1064.82        2969.25           1479       27867.00    121900.50
 1064.85        2969.50           1482       26246.00    114783.90
 1064.89        2969.75           1486       24118.00    105445.90
 1064.92        2970.00           1489       22500.00     98349.48
 1064.95        2970.25           1492       20626.00     90133.99
 1064.98        2970.50           1496       18672.00     81572.10
 1065.01        2970.75           1499       17113.00     74744.15
 1065.04        2971.00           1502       15532.00     67822.70
 1065.07        2971.25           1506       13405.00     58515.46
 1065.10        2971.50           1509       11643.00     50809.30
 1065.13        2971.75           1513        9744.00     42507.97
 1065.17        2972.00           1516        8190.00     35717.85
 1065.20        2972.25           1519        6504.00     28354.10
 1065.23        2972.50           1523        4309.00     18772.12
 1065.26        2972.75           1526        2711.00     11799.73
 1065.29        2973.00           1529        1407.00      6112.28
 1065.32        2973.25           1533         514.00      2218.54
 1065.35        2973.50           1536         360.00      1547.15
 1065.38        2973.75           1539         291.00      1246.34
 1065.41        2974.00           1543         239.00      1019.65
 1065.44        2974.25           1546         167.00       705.77
 1065.47        2974.50           1549         136.00       570.63
 1065.50        2974.75           1553          90.00       370.10
 1065.54        2975.00           1556          72.00       291.63
 1065.57        2975.25           1559          54.00       213.17
 1065.60        2975.50           1563          54.00       213.17
 1065.63        2975.75           1566          48.00       187.01
 1065.66        2976.00           1569          58.00       230.60
 1065.69        2976.25           1573          49.00       191.37
 1065.72        2976.50           1576          49.00       191.37
 1065.75        2976.75           1579          49.00       191.37
 1065.78        2977.00           1583          42.00       160.86
 1065.81        2977.25           1586          42.00       160.86
 1065.84        2977.50           1590          45.00       173.93
 1065.87        2977.75           1593          51.00       200.09
 1065.90        2978.00           1596          43.00       165.21
 1065.93        2978.25           1600          45.00       173.93
 1065.97        2978.50           1603          45.00       173.93
 1066.00        2978.75           1606          48.00       187.01
 1066.03        2979.00           1610          44.00       169.57
 1066.06        2979.25           1613          38.00       143.42
 1066.09        2979.50           1616          43.00       165.21
 1066.12        2979.75           1620          39.00       147.78
 1066.15        2980.00           1623          40.00       152.14
 1066.18        2980.25           1626          44.00       169.57
 1066.21        2980.50           1630          48.00       187.01
 1066.24        2980.75           1633          43.00       165.21
 1066.27        2981.00           1637          35.00       130.34
 1066.31        2981.25           1640          39.00       147.78
 1066.34        2981.50           1643          47.00       182.65
 1066.37        2981.75           1647          46.00       178.29
 1066.40        2982.00           1650          52.00       204.45
 1066.43        2982.25           1653          46.00       178.29
 1066.46        2982.50           1657          41.00       156.50
 1066.49        2982.75           1660          35.00       130.34
 1066.52        2983.00           1663          54.00       213.17
 1066.55        2983.25           1667          33.00       121.62
 1066.58        2983.50           1670          39.00       147.78
 1066.61        2983.75           1673          43.00       165.21
 1066.65        2984.00           1677          37.00       139.06
HS scan finished at 17:46:52
end
