************************************************************
  HS Scan of (1) Internal mercury lamp
************************************************************
Integration time is 0.2294 seconds per sample
dh240117Manchester 53.47 2.23 2.750537pr1000
************************************************************
Dead Time -------------------------  3E-08 
Number of Cycles Used -------------  4 
Starting Wavelength (Angstroms) ---  2950 
Final Wavelength (Angstoms) -------  2984 
Wavelength Increment (Angstroms) --  .25 
Filter Wheel #1 Position ---------- (1) Ground quartz diffuser (ND=2.32)
Filter Wheel #2 Position ---------- (1) Neutral Density 0.494



************************************************************
HS scan start time = 05:15:00
Dark Count =  5 


Time (GMT)  Wavelength (Ang)  Step Number  Raw Counts  Counts/Second

  315.37        2950.00           1222          48.00       187.45
  315.44        2950.25           1226          48.00       187.45
  315.47        2950.50           1229          52.00       204.88
  315.50        2950.75           1232          42.00       161.29
  315.53        2951.00           1236          50.00       196.17
  315.56        2951.25           1239          37.00       139.49
  315.59        2951.50           1242          51.00       200.52
  315.62        2951.75           1246          52.00       204.88
  315.65        2952.00           1249          50.00       196.17
  315.69        2952.25           1252          44.00       170.01
  315.72        2952.50           1256          50.00       196.17
  315.75        2952.75           1259          43.00       165.65
  315.78        2953.00           1262          54.00       213.60
  315.81        2953.25           1266          49.00       191.81
  315.84        2953.50           1269          38.00       143.85
  315.87        2953.75           1272          46.00       178.73
  315.90        2954.00           1276          44.00       170.01
  315.93        2954.25           1279          46.00       178.73
  315.96        2954.50           1282          40.00       152.57
  316.00        2954.75           1286          38.00       143.85
  316.03        2955.00           1289          50.00       196.17
  316.06        2955.25           1292          43.00       165.65
  316.09        2955.50           1296          42.00       161.29
  316.12        2955.75           1299          46.00       178.73
  316.15        2956.00           1302          40.00       152.57
  316.18        2956.25           1306          47.00       183.09
  316.21        2956.50           1309          42.00       161.29
  316.24        2956.75           1312          42.00       161.29
  316.27        2957.00           1316          44.00       170.01
  316.30        2957.25           1319          44.00       170.01
  316.33        2957.50           1322          42.00       161.29
  316.36        2957.75           1326          54.00       213.60
  316.39        2958.00           1329          48.00       187.45
  316.42        2958.25           1332          43.00       165.65
  316.45        2958.50           1336          42.00       161.29
  316.48        2958.75           1339          43.00       165.65
  316.51        2959.00           1342          54.00       213.60
  316.55        2959.25           1346          50.00       196.17
  316.58        2959.50           1349          55.00       217.96
  316.61        2959.75           1352          64.00       257.19
  316.64        2960.00           1356          92.00       379.25
  316.67        2960.25           1359         115.00       479.52
  316.70        2960.50           1362         160.00       675.69
  316.73        2960.75           1366         213.00       906.74
  316.76        2961.00           1369         249.00      1063.68
  316.79        2961.25           1372         288.00      1233.70
  316.82        2961.50           1376         372.00      1599.90
  316.86        2961.75           1379         527.00      2275.66
  316.89        2962.00           1382         954.00      4137.39
  316.92        2962.25           1386        2482.00     10801.23
  316.95        2962.50           1389        4108.00     17895.40
  316.98        2962.75           1392        5637.00     24569.11
  317.01        2963.00           1396        7694.00     33551.63
  317.04        2963.25           1399        9286.00     40506.92
  317.07        2963.50           1402       11052.00     48225.78
  317.10        2963.75           1406       13066.00     57032.99
  317.14        2964.00           1409       14823.00     64720.14
  317.17        2964.25           1412       16420.00     71710.35
  317.20        2964.50           1416       18805.00     82155.16
  317.23        2964.75           1419       20180.00     88179.79
  317.26        2965.00           1422       22039.00     96328.55
  317.29        2965.25           1426       24257.00    106056.20
  317.32        2965.50           1429       25829.00    112954.00
  317.35        2965.75           1432       27780.00    121518.90
  317.38        2966.00           1436       30028.00    131393.10
  317.42        2966.25           1439       31489.00    137813.60
  317.45        2966.50           1442       33112.00    144948.90
  317.48        2966.75           1446       34798.00    152364.40
  317.51        2967.00           1449       35512.00    155505.80
  317.54        2967.25           1452       35718.00    156412.30
  317.57        2967.50           1456       35791.00    156733.50
  317.60        2967.75           1459       35822.00    156869.90
  317.63        2968.00           1462       35721.00    156425.50
  317.66        2968.25           1466       34888.00    152760.40
  317.70        2968.50           1469       33688.00    147481.90
  317.73        2968.75           1472       32348.00    141589.70
  317.76        2969.00           1476       30073.00    131590.80
  317.79        2969.25           1479       28520.00    124768.70
  317.82        2969.50           1482       26942.00    117839.60
  317.85        2969.75           1486       24629.00    107688.20
  317.88        2970.00           1489       23221.00    101511.80
  317.91        2970.25           1492       21564.00     94246.04
  317.94        2970.50           1496       19573.00     85519.91
  317.98        2970.75           1499       17886.00     78129.74
  318.01        2971.00           1502       16212.00     70799.75
  318.04        2971.25           1506       13917.00     60755.81
  318.07        2971.50           1509       12207.00     53276.02
  318.10        2971.75           1513       10030.00     43758.37
  318.13        2972.00           1516        8364.00     36478.43
  318.16        2972.25           1519        6652.00     29000.81
  318.19        2972.50           1523        4415.00     19235.16
  318.22        2972.75           1526        2880.00     12537.41
  318.25        2973.00           1529        1494.00      6492.11
  318.29        2973.25           1533         567.00      2450.05
  318.32        2973.50           1536         356.00      1530.15
  318.35        2973.75           1539         285.00      1220.62
  318.38        2974.00           1543         239.00      1020.08
  318.41        2974.25           1546         188.00       797.75
  318.44        2974.50           1549         129.00       540.55
  318.47        2974.75           1553          92.00       379.25
  318.50        2975.00           1556          57.00       226.68
  318.53        2975.25           1559          54.00       213.60
  318.56        2975.50           1563          59.00       235.40
  318.59        2975.75           1566          46.00       178.73
  318.62        2976.00           1569          50.00       196.17
  318.65        2976.25           1573          54.00       213.60
  318.68        2976.50           1576          47.00       183.09
  318.71        2976.75           1579          48.00       187.45
  318.75        2977.00           1583          45.00       174.37
  318.78        2977.25           1586          44.00       170.01
  318.81        2977.50           1590          62.00       248.48
  318.84        2977.75           1593          41.00       156.93
  318.87        2978.00           1596          42.00       161.29
  318.90        2978.25           1600          40.00       152.57
  318.93        2978.50           1603          58.00       231.04
  318.96        2978.75           1606          40.00       152.57
  318.99        2979.00           1610          41.00       156.93
  319.02        2979.25           1613          41.00       156.93
  319.05        2979.50           1616          49.00       191.81
  319.09        2979.75           1620          46.00       178.73
  319.12        2980.00           1623          39.00       148.21
  319.15        2980.25           1626          43.00       165.65
  319.18        2980.50           1630          49.00       191.81
  319.21        2980.75           1633          56.00       222.32
  319.24        2981.00           1637          38.00       143.85
  319.27        2981.25           1640          42.00       161.29
  319.30        2981.50           1643          50.00       196.17
  319.33        2981.75           1647          46.00       178.73
  319.36        2982.00           1650          39.00       148.21
  319.39        2982.25           1653          39.00       148.21
  319.42        2982.50           1657          48.00       187.45
  319.45        2982.75           1660          43.00       165.65
  319.49        2983.00           1663          47.00       183.09
  319.52        2983.25           1667          43.00       165.65
  319.55        2983.50           1670          55.00       217.96
  319.58        2983.75           1673          42.00       161.29
  319.61        2984.00           1677          43.00       165.65
HS scan finished at 05:19:50
end
************************************************************
  HS Scan of (1) Internal mercury lamp
************************************************************
Integration time is 0.2294 seconds per sample
dh240117Manchester 53.47 2.23 2.804185pr1000
************************************************************
Dead Time -------------------------  3E-08 
Number of Cycles Used -------------  4 
Starting Wavelength (Angstroms) ---  2950 
Final Wavelength (Angstoms) -------  2984 
Wavelength Increment (Angstroms) --  .25 
Filter Wheel #1 Position ---------- (1) Ground quartz diffuser (ND=2.32)
Filter Wheel #2 Position ---------- (1) Neutral Density 0.494



************************************************************
HS scan start time = 17:42:03
Dark Count =  6.7 


Time (GMT)  Wavelength (Ang)  Step Number  Raw Counts  Counts/Second

 1062.41        2950.00           1222          43.00       158.24
 1062.48        2950.25           1226          43.00       158.24
 1062.51        2950.50           1229          43.00       158.24
 1062.54        2950.75           1232          44.00       162.60
 1062.57        2951.00           1236          42.00       153.88
 1062.60        2951.25           1239          49.00       184.40
 1062.63        2951.50           1242          48.00       180.04
 1062.66        2951.75           1246          48.00       180.04
 1062.69        2952.00           1249          43.00       158.24
 1062.73        2952.25           1252          45.00       166.96
 1062.76        2952.50           1256          52.00       197.47
 1062.79        2952.75           1259          41.00       149.52
 1062.82        2953.00           1262          43.00       158.24
 1062.85        2953.25           1266          49.00       184.40
 1062.88        2953.50           1269          44.00       162.60
 1062.91        2953.75           1272          44.00       162.60
 1062.94        2954.00           1276          44.00       162.60
 1062.97        2954.25           1279          42.00       153.88
 1063.00        2954.50           1282          45.00       166.96
 1063.03        2954.75           1286          38.00       136.44
 1063.07        2955.00           1289          40.00       145.16
 1063.10        2955.25           1292          44.00       162.60
 1063.13        2955.50           1296          40.00       145.16
 1063.16        2955.75           1299          40.00       145.16
 1063.19        2956.00           1302          46.00       171.32
 1063.22        2956.25           1306          42.00       153.88
 1063.25        2956.50           1309          50.00       188.75
 1063.28        2956.75           1312          43.00       158.24
 1063.31        2957.00           1316          44.00       162.60
 1063.34        2957.25           1319          45.00       166.96
 1063.38        2957.50           1322          50.00       188.75
 1063.41        2957.75           1326          42.00       153.88
 1063.44        2958.00           1329          40.00       145.16
 1063.47        2958.25           1332          49.00       184.40
 1063.50        2958.50           1336          42.00       153.88
 1063.53        2958.75           1339          47.00       175.68
 1063.56        2959.00           1342          48.00       180.04
 1063.59        2959.25           1346          49.00       184.40
 1063.62        2959.50           1349          58.00       223.63
 1063.65        2959.75           1352          71.00       280.30
 1063.68        2960.00           1356         111.00       454.67
 1063.71        2960.25           1359         149.00       620.33
 1063.74        2960.50           1362         179.00       751.11
 1063.77        2960.75           1366         237.00      1003.95
 1063.80        2961.00           1369         292.00      1243.73
 1063.83        2961.25           1372         328.00      1400.67
 1063.87        2961.50           1376         410.00      1758.16
 1063.90        2961.75           1379         687.00      2965.83
 1063.93        2962.00           1382        1403.00      6087.86
 1063.96        2962.25           1386        3138.00     13655.55
 1063.99        2962.50           1389        4622.00     20131.16
 1064.02        2962.75           1392        6352.00     27683.40
 1064.05        2963.00           1396        8359.00     36449.17
 1064.08        2963.25           1399       10021.00     43711.60
 1064.11        2963.50           1402       11765.00     51335.76
 1064.15        2963.75           1406       13890.00     60630.24
 1064.18        2964.00           1409       15543.00     67863.83
 1064.21        2964.25           1412       17257.00     75367.69
 1064.24        2964.50           1416       19428.00     84877.14
 1064.27        2964.75           1419       20847.00     91095.61
 1064.30        2965.00           1422       22466.00     98193.38
 1064.33        2965.25           1426       24652.00    107781.70
 1064.36        2965.50           1429       26248.00    114785.60
 1064.40        2965.75           1432       28041.00    122657.60
 1064.43        2966.00           1436       30300.00    132580.80
 1064.46        2966.25           1439       31736.00    138891.80
 1064.49        2966.50           1442       33317.00    145842.90
 1064.52        2966.75           1446       34766.00    152216.20
 1064.55        2967.00           1449       35344.00    154759.10
 1064.58        2967.25           1452       35401.00    155009.90
 1064.61        2967.50           1456       35522.00    155542.40
 1064.64        2967.75           1459       35455.00    155247.50
 1064.68        2968.00           1462       35165.00    153971.60
 1064.71        2968.25           1466       34320.00    150254.20
 1064.74        2968.50           1469       32799.00    143565.10
 1064.77        2968.75           1472       31285.00    136909.50
 1064.80        2969.00           1476       29162.00    127581.10
 1064.83        2969.25           1479       27473.00    120163.50
 1064.86        2969.50           1482       25923.00    113359.10
 1064.89        2969.75           1486       23573.00    103048.30
 1064.92        2970.00           1489       22152.00     96816.55
 1064.95        2970.25           1492       20865.00     91174.50
 1064.98        2970.50           1496       18450.00     80592.62
 1065.01        2970.75           1499       16884.00     73734.43
 1065.05        2971.00           1502       15344.00     66992.83
 1065.08        2971.25           1506       13144.00     57366.73
 1065.11        2971.50           1509       11332.00     49442.51
 1065.14        2971.75           1513        9082.00     39608.07
 1065.17        2972.00           1516        7479.00     32605.11
 1065.20        2972.25           1519        6013.00     26203.24
 1065.23        2972.50           1523        3846.00     16744.68
 1065.26        2972.75           1526        2325.00     10108.99
 1065.29        2973.00           1529        1082.00      4688.11
 1065.32        2973.25           1533         447.00      1919.47
 1065.36        2973.50           1536         347.00      1483.50
 1065.39        2973.75           1539         275.00      1169.61
 1065.42        2974.00           1543         231.00       977.80
 1065.45        2974.25           1546         173.00       724.95
 1065.48        2974.50           1549         131.00       541.86
 1065.51        2974.75           1553          89.00       358.77
 1065.54        2975.00           1556          64.00       249.78
 1065.57        2975.25           1559          47.00       175.68
 1065.60        2975.50           1563          46.00       171.32
 1065.63        2975.75           1566          57.00       219.27
 1065.66        2976.00           1569          49.00       184.40
 1065.70        2976.25           1573          42.00       153.88
 1065.73        2976.50           1576          45.00       166.96
 1065.76        2976.75           1579          43.00       158.24
 1065.79        2977.00           1583          46.00       171.32
 1065.82        2977.25           1586          45.00       166.96
 1065.85        2977.50           1590          41.00       149.52
 1065.88        2977.75           1593          56.00       214.91
 1065.91        2978.00           1596          44.00       162.60
 1065.94        2978.25           1600          45.00       166.96
 1065.97        2978.50           1603          36.00       127.72
 1066.00        2978.75           1606          44.00       162.60
 1066.03        2979.00           1610          49.00       184.40
 1066.07        2979.25           1613          51.00       193.11
 1066.10        2979.50           1616          43.00       158.24
 1066.13        2979.75           1620          46.00       171.32
 1066.16        2980.00           1623          45.00       166.96
 1066.19        2980.25           1626          42.00       153.88
 1066.22        2980.50           1630          41.00       149.52
 1066.25        2980.75           1633          47.00       175.68
 1066.28        2981.00           1637          45.00       166.96
 1066.31        2981.25           1640          43.00       158.24
 1066.34        2981.50           1643          38.00       136.44
 1066.37        2981.75           1647          41.00       149.52
 1066.40        2982.00           1650          35.00       123.37
 1066.44        2982.25           1653          42.00       153.88
 1066.47        2982.50           1657          44.00       162.60
 1066.50        2982.75           1660          44.00       162.60
 1066.53        2983.00           1663          45.00       166.96
 1066.56        2983.25           1667          40.00       145.16
 1066.59        2983.50           1670          35.00       123.37
 1066.62        2983.75           1673          40.00       145.16
 1066.65        2984.00           1677          39.00       140.80
HS scan finished at 17:46:52
end
