************************************************************
  HS Scan of (1) Internal mercury lamp
************************************************************
Integration time is 0.2294 seconds per sample
dh260119Manchester 53.47 2.23 2.804185pr1000
************************************************************
Dead Time -------------------------  3E-08 
Number of Cycles Used -------------  4 
Starting Wavelength (Angstroms) ---  2950 
Final Wavelength (Angstoms) -------  2984 
Wavelength Increment (Angstroms) --  .25 
Filter Wheel #1 Position ---------- (1) Ground quartz diffuser (ND=2.32)
Filter Wheel #2 Position ---------- (1) Neutral Density 0.494



************************************************************
HS scan start time = 05:13:23
Dark Count =  4.8 


Time (GMT)  Wavelength (Ang)  Step Number  Raw Counts  Counts/Second

  313.74        2950.00           1222          55.00       218.83
  313.81        2950.25           1226          56.00       223.19
  313.84        2950.50           1229          51.00       201.40
  313.87        2950.75           1232          56.00       223.19
  313.90        2951.00           1236          56.00       223.19
  313.93        2951.25           1239          59.00       236.27
  313.97        2951.50           1242          50.00       197.04
  314.00        2951.75           1246          48.00       188.32
  314.03        2952.00           1249          53.00       210.11
  314.06        2952.25           1252          58.00       231.91
  314.09        2952.50           1256          57.00       227.55
  314.12        2952.75           1259          58.00       231.91
  314.15        2953.00           1262          64.00       258.07
  314.18        2953.25           1266          54.00       214.47
  314.21        2953.50           1269          53.00       210.11
  314.24        2953.75           1272          60.00       240.63
  314.27        2954.00           1276          55.00       218.83
  314.30        2954.25           1279          54.00       214.47
  314.34        2954.50           1282          58.00       231.91
  314.37        2954.75           1286          56.00       223.19
  314.40        2955.00           1289          47.00       183.96
  314.43        2955.25           1292          46.00       179.60
  314.46        2955.50           1296          57.00       227.55
  314.49        2955.75           1299          61.00       244.99
  314.52        2956.00           1302          53.00       210.11
  314.55        2956.25           1306          53.00       210.11
  314.58        2956.50           1309          53.00       210.11
  314.61        2956.75           1312          51.00       201.40
  314.64        2957.00           1316          61.00       244.99
  314.67        2957.25           1319          52.00       205.76
  314.70        2957.50           1322          57.00       227.55
  314.73        2957.75           1326          49.00       192.68
  314.76        2958.00           1329          49.00       192.68
  314.80        2958.25           1332          55.00       218.83
  314.83        2958.50           1336          56.00       223.19
  314.86        2958.75           1339          53.00       210.11
  314.89        2959.00           1342          59.00       236.27
  314.92        2959.25           1346          57.00       227.55
  314.95        2959.50           1349          56.00       223.19
  314.98        2959.75           1352          72.00       292.94
  315.01        2960.00           1356          83.00       340.89
  315.04        2960.25           1359         108.00       449.88
  315.08        2960.50           1362         128.00       537.06
  315.11        2960.75           1366         157.00       663.48
  315.14        2961.00           1369         203.00       864.02
  315.17        2961.25           1372         241.00      1029.67
  315.20        2961.50           1376         293.00      1256.37
  315.23        2961.75           1379         439.00      1892.87
  315.26        2962.00           1382        1005.00      4360.64
  315.29        2962.25           1386        2410.00     10488.04
  315.32        2962.50           1389        3604.00     15697.02
  315.35        2962.75           1392        4798.00     20907.62
  315.38        2963.00           1396        6344.00     27656.77
  315.42        2963.25           1399        7495.00     32683.30
  315.45        2963.50           1402        8814.00     38445.36
  315.48        2963.75           1406       10237.00     44664.00
  315.51        2964.00           1409       11587.00     50565.76
  315.54        2964.25           1412       12851.00     56093.44
  315.57        2964.50           1416       14382.00     62791.24
  315.60        2964.75           1419       15543.00     67872.15
  315.63        2965.00           1422       16647.00     72705.05
  315.67        2965.25           1426       18436.00     80539.62
  315.70        2965.50           1429       19643.00     85827.50
  315.73        2965.75           1432       20892.00     91301.18
  315.76        2966.00           1436       22416.00     97982.44
  315.79        2966.25           1439       23499.00    102732.00
  315.82        2966.50           1442       24732.00    108141.00
  315.85        2966.75           1446       25351.00    110857.20
  315.88        2967.00           1449       25788.00    112775.00
  315.91        2967.25           1452       25751.00    112612.60
  315.95        2967.50           1456       25674.00    112274.70
  315.98        2967.75           1459       25487.00    111454.00
  316.01        2968.00           1462       25356.00    110879.10
  316.04        2968.25           1466       24501.00    107127.50
  316.07        2968.50           1469       23382.00    102218.80
  316.10        2968.75           1472       22151.00     96820.49
  316.13        2969.00           1476       20668.00     90319.37
  316.16        2969.25           1479       19489.00     85152.74
  316.19        2969.50           1482       18469.00     80684.16
  316.23        2969.75           1486       16650.00     72718.18
  316.26        2970.00           1489       15508.00     67718.96
  316.29        2970.25           1492       14457.00     63119.42
  316.32        2970.50           1496       12885.00     56242.16
  316.35        2970.75           1499       11718.00     51138.55
  316.38        2971.00           1502       10608.00     46285.67
  316.41        2971.25           1506        8886.00     38759.95
  316.44        2971.50           1509        7638.00     33307.90
  316.47        2971.75           1513        6048.00     26364.35
  316.51        2972.00           1516        4889.00     21304.81
  316.54        2972.25           1519        3725.00     16224.98
  316.57        2972.50           1523        2371.00     10317.93
  316.60        2972.75           1526        1337.00      5808.34
  316.63        2973.00           1529         569.00      2459.64
  316.66        2973.25           1533         319.00      1369.72
  316.69        2973.50           1536         259.00      1108.15
  316.72        2973.75           1539         238.00      1016.60
  316.75        2974.00           1543         203.00       864.02
  316.79        2974.25           1546         156.00       659.12
  316.82        2974.50           1549         116.00       484.75
  316.85        2974.75           1553          97.00       401.92
  316.88        2975.00           1556          71.00       288.58
  316.91        2975.25           1559          63.00       253.71
  316.94        2975.50           1563          59.00       236.27
  316.97        2975.75           1566          51.00       201.40
  317.00        2976.00           1569          61.00       244.99
  317.03        2976.25           1573          54.00       214.47
  317.06        2976.50           1576          51.00       201.40
  317.09        2976.75           1579          47.00       183.96
  317.13        2977.00           1583          45.00       175.24
  317.16        2977.25           1586          46.00       179.60
  317.19        2977.50           1590          58.00       231.91
  317.22        2977.75           1593          47.00       183.96
  317.25        2978.00           1596          49.00       192.68
  317.28        2978.25           1600          49.00       192.68
  317.31        2978.50           1603          52.00       205.76
  317.34        2978.75           1606          53.00       210.11
  317.37        2979.00           1610          48.00       188.32
  317.40        2979.25           1613          49.00       192.68
  317.44        2979.50           1616          57.00       227.55
  317.47        2979.75           1620          51.00       201.40
  317.50        2980.00           1623          51.00       201.40
  317.53        2980.25           1626          43.00       166.52
  317.56        2980.50           1630          50.00       197.04
  317.59        2980.75           1633          49.00       192.68
  317.62        2981.00           1637          45.00       175.24
  317.65        2981.25           1640          48.00       188.32
  317.68        2981.50           1643          48.00       188.32
  317.71        2981.75           1647          50.00       197.04
  317.75        2982.00           1650          50.00       197.04
  317.78        2982.25           1653          58.00       231.91
  317.81        2982.50           1657          52.00       205.76
  317.84        2982.75           1660          50.00       197.04
  317.87        2983.00           1663          53.00       210.11
  317.90        2983.25           1667          45.00       175.24
  317.93        2983.50           1670          47.00       183.96
  317.96        2983.75           1673          54.00       214.47
  317.99        2984.00           1677          59.00       236.27
HS scan finished at 05:18:13
end
************************************************************
  HS Scan of (1) Internal mercury lamp
************************************************************
Integration time is 0.2294 seconds per sample
dh260119Manchester 53.47 2.23 2.804185pr1000
************************************************************
Dead Time -------------------------  3E-08 
Number of Cycles Used -------------  4 
Starting Wavelength (Angstroms) ---  2950 
Final Wavelength (Angstoms) -------  2984 
Wavelength Increment (Angstroms) --  .25 
Filter Wheel #1 Position ---------- (1) Ground quartz diffuser (ND=2.32)
Filter Wheel #2 Position ---------- (1) Neutral Density 0.494



************************************************************
HS scan start time = 18:13:08
Dark Count =  6.8 


Time (GMT)  Wavelength (Ang)  Step Number  Raw Counts  Counts/Second

 1093.51        2950.00           1222          55.00       210.11
 1093.57        2950.25           1226          57.00       218.83
 1093.60        2950.50           1229          59.00       227.55
 1093.63        2950.75           1232          54.00       205.76
 1093.66        2951.00           1236          59.00       227.55
 1093.70        2951.25           1239          49.00       183.96
 1093.73        2951.50           1242          52.00       197.04
 1093.76        2951.75           1246          48.00       179.60
 1093.79        2952.00           1249          53.00       201.40
 1093.82        2952.25           1252          66.00       258.07
 1093.85        2952.50           1256          63.00       244.99
 1093.88        2952.75           1259          51.00       192.68
 1093.91        2953.00           1262          56.00       214.47
 1093.94        2953.25           1266          53.00       201.40
 1093.97        2953.50           1269          55.00       210.11
 1094.00        2953.75           1272          53.00       201.40
 1094.03        2954.00           1276          52.00       197.04
 1094.07        2954.25           1279          61.00       236.27
 1094.10        2954.50           1282          57.00       218.83
 1094.13        2954.75           1286          55.00       210.11
 1094.16        2955.00           1289          56.00       214.47
 1094.19        2955.25           1292          56.00       214.47
 1094.22        2955.50           1296          53.00       201.40
 1094.25        2955.75           1299          56.00       214.47
 1094.28        2956.00           1302          54.00       205.76
 1094.31        2956.25           1306          57.00       218.83
 1094.34        2956.50           1309          52.00       197.04
 1094.37        2956.75           1312          61.00       236.27
 1094.40        2957.00           1316          53.00       201.40
 1094.43        2957.25           1319          48.00       179.60
 1094.46        2957.50           1322          61.00       236.27
 1094.49        2957.75           1326          57.00       218.83
 1094.52        2958.00           1329          54.00       205.76
 1094.55        2958.25           1332          55.00       210.11
 1094.58        2958.50           1336          54.00       205.76
 1094.62        2958.75           1339          54.00       205.76
 1094.65        2959.00           1342          50.00       188.32
 1094.68        2959.25           1346          59.00       227.55
 1094.71        2959.50           1349          61.00       236.27
 1094.74        2959.75           1352          82.00       327.81
 1094.77        2960.00           1356          94.00       380.13
 1094.80        2960.25           1359         123.00       506.55
 1094.83        2960.50           1362         146.00       606.81
 1094.87        2960.75           1366         188.00       789.91
 1094.90        2961.00           1369         221.00       933.77
 1094.93        2961.25           1372         247.00      1047.11
 1094.96        2961.50           1376         320.00      1365.36
 1094.99        2961.75           1379         511.00      2198.05
 1095.02        2962.00           1382        1147.00      4971.10
 1095.05        2962.25           1386        2539.00     11042.02
 1095.08        2962.50           1389        3661.00     15937.00
 1095.11        2962.75           1392        4872.00     21221.88
 1095.14        2963.00           1396        6360.00     27717.90
 1095.18        2963.25           1399        7422.00     32355.72
 1095.21        2963.50           1402        8608.00     37536.58
 1095.24        2963.75           1406       10328.00     45053.01
 1095.27        2964.00           1409       11628.00     50736.28
 1095.30        2964.25           1412       12763.00     55699.80
 1095.33        2964.50           1416       14294.00     62397.43
 1095.36        2964.75           1419       15482.00     67596.40
 1095.39        2965.00           1422       16692.00     72893.31
 1095.42        2965.25           1426       18334.00     80084.06
 1095.45        2965.50           1429       19642.00     85814.36
 1095.49        2965.75           1432       20683.00     90376.35
 1095.52        2966.00           1436       22281.00     97381.74
 1095.55        2966.25           1439       23369.00    102153.00
 1095.58        2966.50           1442       24252.00    106026.30
 1095.61        2966.75           1446       25459.00    111322.30
 1095.64        2967.00           1449       25662.00    112213.20
 1095.67        2967.25           1452       25565.00    111787.50
 1095.70        2967.50           1456       25747.00    112586.30
 1095.73        2967.75           1459       25480.00    111414.50
 1095.76        2968.00           1462       25474.00    111388.20
 1095.80        2968.25           1466       24514.00    107175.80
 1095.83        2968.50           1469       23316.00    101920.60
 1095.86        2968.75           1472       22283.00     97390.50
 1095.89        2969.00           1476       20835.00     91042.56
 1095.92        2969.25           1479       19792.00     86471.63
 1095.95        2969.50           1482       18652.00     81477.03
 1095.98        2969.75           1486       17029.00     74368.88
 1096.01        2970.00           1489       15840.00     69163.41
 1096.04        2970.25           1492       14749.00     64388.43
 1096.08        2970.50           1496       13134.00     57322.56
 1096.11        2970.75           1499       11922.00     52021.85
 1096.14        2971.00           1502       10764.00     46958.88
 1096.17        2971.25           1506        9127.00     39804.26
 1096.20        2971.50           1509        7829.00     34133.45
 1096.23        2971.75           1513        6283.00     27381.68
 1096.26        2972.00           1516        5168.00     22513.90
 1096.29        2972.25           1519        4018.00     17494.80
 1096.32        2972.50           1523        2493.00     10841.36
 1096.36        2972.75           1526        1462.00      6344.71
 1096.39        2973.00           1529         644.00      2777.91
 1096.42        2973.25           1533         324.00      1382.80
 1096.45        2973.50           1536         241.00      1020.96
 1096.48        2973.75           1539         214.00       903.25
 1096.51        2974.00           1543         173.00       724.51
 1096.54        2974.25           1546         128.00       528.34
 1096.57        2974.50           1549         100.00       406.28
 1096.60        2974.75           1553          76.00       301.66
 1096.64        2975.00           1556          64.00       249.35
 1096.67        2975.25           1559          49.00       183.96
 1096.70        2975.50           1563          50.00       188.32
 1096.73        2975.75           1566          47.00       175.24
 1096.76        2976.00           1569          48.00       179.60
 1096.79        2976.25           1573          52.00       197.04
 1096.82        2976.50           1576          51.00       192.68
 1096.85        2976.75           1579          59.00       227.55
 1096.88        2977.00           1583          53.00       201.40
 1096.91        2977.25           1586          49.00       183.96
 1096.95        2977.50           1590          51.00       192.68
 1096.98        2977.75           1593          60.00       231.91
 1097.01        2978.00           1596          62.00       240.63
 1097.04        2978.25           1600          64.00       249.35
 1097.07        2978.50           1603          48.00       179.60
 1097.10        2978.75           1606          53.00       201.40
 1097.13        2979.00           1610          39.00       140.37
 1097.16        2979.25           1613          52.00       197.04
 1097.19        2979.50           1616          53.00       201.40
 1097.23        2979.75           1620          51.00       192.68
 1097.26        2980.00           1623          45.00       166.52
 1097.29        2980.25           1626          50.00       188.32
 1097.32        2980.50           1630          49.00       183.96
 1097.35        2980.75           1633          50.00       188.32
 1097.38        2981.00           1637          47.00       175.24
 1097.41        2981.25           1640          48.00       179.60
 1097.44        2981.50           1643          44.00       162.16
 1097.47        2981.75           1647          55.00       210.11
 1097.50        2982.00           1650          51.00       192.68
 1097.53        2982.25           1653          52.00       197.04
 1097.57        2982.50           1657          48.00       179.60
 1097.60        2982.75           1660          51.00       192.68
 1097.63        2983.00           1663          48.00       179.60
 1097.66        2983.25           1667          47.00       175.24
 1097.69        2983.50           1670          53.00       201.40
 1097.72        2983.75           1673          53.00       201.40
 1097.75        2984.00           1677          49.00       183.96
HS scan finished at 18:17:58
end
