************************************************************
  HS Scan of (1) Internal mercury lamp
************************************************************
Integration time is 0.2294 seconds per sample
dh290117Manchester 53.47 2.23 2.750537pr1000
************************************************************
Dead Time -------------------------  3E-08 
Number of Cycles Used -------------  4 
Starting Wavelength (Angstroms) ---  2950 
Final Wavelength (Angstoms) -------  2984 
Wavelength Increment (Angstroms) --  .25 
Filter Wheel #1 Position ---------- (1) Ground quartz diffuser (ND=2.32)
Filter Wheel #2 Position ---------- (1) Neutral Density 0.494



************************************************************
HS scan start time = 05:10:26
Dark Count =  4.5 


Time (GMT)  Wavelength (Ang)  Step Number  Raw Counts  Counts/Second

  310.80        2950.00           1222          44.00       172.19
  310.87        2950.25           1226          46.00       180.91
  310.90        2950.50           1229          41.00       159.11
  310.93        2950.75           1232          41.00       159.11
  310.96        2951.00           1236          46.00       180.91
  310.99        2951.25           1239          45.00       176.55
  311.03        2951.50           1242          51.00       202.70
  311.06        2951.75           1246          43.00       167.83
  311.09        2952.00           1249          49.00       193.99
  311.12        2952.25           1252          50.00       198.34
  311.15        2952.50           1256          40.00       154.75
  311.18        2952.75           1259          43.00       167.83
  311.21        2953.00           1262          45.00       176.55
  311.24        2953.25           1266          45.00       176.55
  311.27        2953.50           1269          50.00       198.34
  311.30        2953.75           1272          44.00       172.19
  311.34        2954.00           1276          39.00       150.39
  311.37        2954.25           1279          48.00       189.63
  311.40        2954.50           1282          43.00       167.83
  311.43        2954.75           1286          39.00       150.39
  311.46        2955.00           1289          44.00       172.19
  311.49        2955.25           1292          43.00       167.83
  311.52        2955.50           1296          49.00       193.99
  311.55        2955.75           1299          60.00       241.94
  311.58        2956.00           1302          46.00       180.91
  311.61        2956.25           1306          48.00       189.63
  311.64        2956.50           1309          38.00       146.03
  311.68        2956.75           1312          46.00       180.91
  311.71        2957.00           1316          48.00       189.63
  311.74        2957.25           1319          46.00       180.91
  311.77        2957.50           1322          38.00       146.03
  311.80        2957.75           1326          48.00       189.63
  311.83        2958.00           1329          47.00       185.27
  311.86        2958.25           1332          44.00       172.19
  311.89        2958.50           1336          48.00       189.63
  311.92        2958.75           1339          49.00       193.99
  311.95        2959.00           1342          48.00       189.63
  311.98        2959.25           1346          53.00       211.42
  312.01        2959.50           1349          46.00       180.91
  312.04        2959.75           1352          57.00       228.86
  312.08        2960.00           1356          78.00       320.40
  312.11        2960.25           1359         101.00       420.67
  312.14        2960.50           1362         138.00       581.96
  312.17        2960.75           1366         185.00       786.85
  312.20        2961.00           1369         234.00      1000.47
  312.23        2961.25           1372         264.00      1131.25
  312.26        2961.50           1376         378.00      1628.24
  312.29        2961.75           1379         596.00      2578.67
  312.32        2962.00           1382        1226.00      5325.61
  312.35        2962.25           1386        2823.00     12290.93
  312.39        2962.50           1389        4404.00     19189.34
  312.42        2962.75           1392        6089.00     26544.67
  312.45        2963.00           1396        8215.00     35829.69
  312.48        2963.25           1399        9856.00     43000.08
  312.51        2963.50           1402       11513.00     50243.51
  312.54        2963.75           1406       13946.00     60884.87
  312.57        2964.00           1409       15412.00     67300.09
  312.60        2964.25           1412       17190.00     75083.94
  312.63        2964.50           1416       19233.00     84032.41
  312.67        2964.75           1419       20889.00     91289.34
  312.70        2965.00           1422       22527.00     98470.51
  312.73        2965.25           1426       24926.00    108993.60
  312.76        2965.50           1429       26543.00    116090.20
  312.79        2965.75           1432       28097.00    122913.20
  312.82        2966.00           1436       30352.00    132818.90
  312.85        2966.25           1439       31921.00    139714.70
  312.88        2966.50           1442       33382.00    146138.40
  312.91        2966.75           1446       34851.00    152599.80
  312.94        2967.00           1449       35459.00    155274.80
  312.98        2967.25           1452       35571.00    155767.60
  313.01        2967.50           1456       35584.00    155824.80
  313.04        2967.75           1459       35611.00    155943.60
  313.07        2968.00           1462       35330.00    154707.20
  313.10        2968.25           1466       34516.00    151126.10
  313.13        2968.50           1469       33071.00    144770.80
  313.16        2968.75           1472       31628.00    138426.80
  313.19        2969.00           1476       29330.00    128328.80
  313.22        2969.25           1479       27722.00    121266.40
  313.25        2969.50           1482       26215.00    114650.40
  313.29        2969.75           1486       23778.00    103957.10
  313.32        2970.00           1489       22232.00     97176.96
  313.35        2970.25           1492       20841.00     91078.96
  313.38        2970.50           1496       18681.00     81614.15
  313.41        2970.75           1499       16995.00     74230.07
  313.44        2971.00           1502       15626.00     68236.76
  313.47        2971.25           1506       13326.00     58172.49
  313.50        2971.50           1509       11610.00     50667.64
  313.53        2971.75           1513        9272.00     40447.92
  313.57        2972.00           1516        7650.00     33361.63
  313.60        2972.25           1519        5991.00     26116.79
  313.63        2972.50           1523        3894.00     16963.73
  313.66        2972.75           1526        2485.00     10816.50
  313.69        2973.00           1529        1283.00      5574.17
  313.72        2973.25           1533         533.00      2304.00
  313.75        2973.50           1536         382.00      1645.68
  313.78        2973.75           1539         317.00      1362.31
  313.81        2974.00           1543         268.00      1148.69
  313.84        2974.25           1546         227.00       969.95
  313.88        2974.50           1549         165.00       699.67
  313.91        2974.75           1553         134.00       564.53
  313.94        2975.00           1556          88.00       364.00
  313.97        2975.25           1559          64.00       259.37
  314.00        2975.50           1563          52.00       207.06
  314.03        2975.75           1566          61.00       246.30
  314.06        2976.00           1569          57.00       228.86
  314.09        2976.25           1573          46.00       180.91
  314.12        2976.50           1576          47.00       185.27
  314.15        2976.75           1579          59.00       237.58
  314.18        2977.00           1583          56.00       224.50
  314.21        2977.25           1586          51.00       202.70
  314.24        2977.50           1590          46.00       180.91
  314.27        2977.75           1593          45.00       176.55
  314.30        2978.00           1596          41.00       159.11
  314.34        2978.25           1600          46.00       180.91
  314.37        2978.50           1603          46.00       180.91
  314.40        2978.75           1606          40.00       154.75
  314.43        2979.00           1610          44.00       172.19
  314.46        2979.25           1613          50.00       198.34
  314.49        2979.50           1616          45.00       176.55
  314.52        2979.75           1620          41.00       159.11
  314.55        2980.00           1623          46.00       180.91
  314.58        2980.25           1626          43.00       167.83
  314.61        2980.50           1630          40.00       154.75
  314.64        2980.75           1633          45.00       176.55
  314.67        2981.00           1637          38.00       146.03
  314.70        2981.25           1640          38.00       146.03
  314.74        2981.50           1643          42.00       163.47
  314.77        2981.75           1647          41.00       159.11
  314.80        2982.00           1650          46.00       180.91
  314.83        2982.25           1653          44.00       172.19
  314.86        2982.50           1657          34.00       128.60
  314.89        2982.75           1660          47.00       185.27
  314.92        2983.00           1663          47.00       185.27
  314.95        2983.25           1667          46.00       180.91
  314.98        2983.50           1670          36.00       137.32
  315.01        2983.75           1673          46.00       180.91
  315.04        2984.00           1677          40.00       154.75
HS scan finished at 05:15:16
end
************************************************************
  HS Scan of (1) Internal mercury lamp
************************************************************
Integration time is 0.2294 seconds per sample
dh290117Manchester 53.47 2.23 2.804185pr1000
************************************************************
Dead Time -------------------------  3E-08 
Number of Cycles Used -------------  4 
Starting Wavelength (Angstroms) ---  2950 
Final Wavelength (Angstoms) -------  2984 
Wavelength Increment (Angstroms) --  .25 
Filter Wheel #1 Position ---------- (1) Ground quartz diffuser (ND=2.32)
Filter Wheel #2 Position ---------- (1) Neutral Density 0.494



************************************************************
HS scan start time = 17:42:00
Dark Count =  5.6 


Time (GMT)  Wavelength (Ang)  Step Number  Raw Counts  Counts/Second

 1062.38        2950.00           1222          46.00       176.11
 1062.45        2950.25           1226          41.00       154.32
 1062.48        2950.50           1229          42.00       158.68
 1062.51        2950.75           1232          46.00       176.11
 1062.54        2951.00           1236          37.00       136.88
 1062.57        2951.25           1239          43.00       163.03
 1062.60        2951.50           1242          43.00       163.03
 1062.63        2951.75           1246          48.00       184.83
 1062.66        2952.00           1249          41.00       154.32
 1062.69        2952.25           1252          46.00       176.11
 1062.72        2952.50           1256          44.00       167.39
 1062.76        2952.75           1259          50.00       193.55
 1062.79        2953.00           1262          45.00       171.75
 1062.82        2953.25           1266          45.00       171.75
 1062.85        2953.50           1269          37.00       136.88
 1062.88        2953.75           1272          40.00       149.96
 1062.91        2954.00           1276          47.00       180.47
 1062.94        2954.25           1279          49.00       189.19
 1062.97        2954.50           1282          48.00       184.83
 1063.00        2954.75           1286          43.00       163.03
 1063.03        2955.00           1289          49.00       189.19
 1063.07        2955.25           1292          40.00       149.96
 1063.10        2955.50           1296          41.00       154.32
 1063.13        2955.75           1299          50.00       193.55
 1063.16        2956.00           1302          41.00       154.32
 1063.19        2956.25           1306          44.00       167.39
 1063.22        2956.50           1309          46.00       176.11
 1063.25        2956.75           1312          42.00       158.68
 1063.28        2957.00           1316          41.00       154.32
 1063.31        2957.25           1319          48.00       184.83
 1063.34        2957.50           1322          49.00       189.19
 1063.37        2957.75           1326          46.00       176.11
 1063.41        2958.00           1329          50.00       193.55
 1063.44        2958.25           1332          39.00       145.60
 1063.47        2958.50           1336          45.00       171.75
 1063.50        2958.75           1339          45.00       171.75
 1063.53        2959.00           1342          56.00       219.71
 1063.56        2959.25           1346          44.00       167.39
 1063.59        2959.50           1349          49.00       189.19
 1063.62        2959.75           1352          57.00       224.06
 1063.65        2960.00           1356          79.00       319.97
 1063.68        2960.25           1359         110.00       455.11
 1063.71        2960.50           1362         144.00       603.32
 1063.74        2960.75           1366         197.00       834.37
 1063.77        2961.00           1369         237.00      1008.75
 1063.81        2961.25           1372         290.00      1239.80
 1063.84        2961.50           1376         368.00      1579.85
 1063.87        2961.75           1379         577.00      2491.03
 1063.90        2962.00           1382        1150.00      4989.41
 1063.93        2962.25           1386        2878.00     12526.07
 1063.96        2962.50           1389        4418.00     19245.64
 1063.99        2962.75           1392        5950.00     25932.99
 1064.02        2963.00           1396        8206.00     35785.57
 1064.05        2963.25           1399        9908.00     43222.53
 1064.08        2963.50           1402       11498.00     50173.12
 1064.12        2963.75           1406       13776.00     60136.30
 1064.15        2964.00           1409       15435.00     67395.94
 1064.18        2964.25           1412       17115.00     74750.71
 1064.21        2964.50           1416       19425.00     84868.82
 1064.24        2964.75           1419       20994.00     91744.76
 1064.27        2965.00           1422       22644.00     98978.74
 1064.30        2965.25           1426       24745.00    108194.60
 1064.33        2965.50           1429       26560.00    116160.00
 1064.36        2965.75           1432       28350.00    124019.40
 1064.40        2966.00           1436       30557.00    133714.90
 1064.43        2966.25           1439       31940.00    139793.40
 1064.46        2966.50           1442       33484.00    146582.10
 1064.49        2966.75           1446       35082.00    153611.20
 1064.52        2967.00           1449       35739.00    156502.00
 1064.55        2967.25           1452       35726.00    156444.80
 1064.58        2967.50           1456       35815.00    156836.50
 1064.61        2967.75           1459       35709.00    156370.00
 1064.64        2968.00           1462       35669.00    156194.00
 1064.67        2968.25           1466       34723.00    152031.90
 1064.71        2968.50           1469       33189.00    145284.90
 1064.74        2968.75           1472       31656.00    138545.00
 1064.77        2969.00           1476       29585.00    129444.20
 1064.80        2969.25           1479       27972.00    122359.40
 1064.83        2969.50           1482       26339.00    115189.90
 1064.86        2969.75           1486       24112.00    105417.40
 1064.89        2970.00           1489       22450.00     98128.03
 1064.92        2970.25           1492       20822.00     90990.85
 1064.95        2970.50           1496       18790.00     82086.82
 1064.99        2970.75           1499       17026.00     74361.00
 1065.02        2971.00           1502       15541.00     67859.90
 1065.05        2971.25           1506       13321.00     58145.82
 1065.08        2971.50           1509       11521.00     50273.67
 1065.11        2971.75           1513        9437.00     41164.15
 1065.14        2972.00           1516        7788.00     33959.61
 1065.17        2972.25           1519        6105.00     26609.73
 1065.20        2972.50           1523        3742.00     16295.67
 1065.23        2972.75           1526        2280.00      9917.51
 1065.26        2973.00           1529        1145.00      4967.61
 1065.30        2973.25           1533         505.00      2177.13
 1065.33        2973.50           1536         351.00      1505.74
 1065.36        2973.75           1539         273.00      1165.69
 1065.39        2974.00           1543         241.00      1026.19
 1065.42        2974.25           1546         179.00       755.90
 1065.45        2974.50           1549         147.00       616.40
 1065.48        2974.75           1553          80.00       324.33
 1065.51        2975.00           1556          69.00       276.38
 1065.54        2975.25           1559          51.00       197.91
 1065.57        2975.50           1563          55.00       215.35
 1065.60        2975.75           1566          45.00       171.75
 1065.63        2976.00           1569          41.00       154.32
 1065.66        2976.25           1573          43.00       163.03
 1065.70        2976.50           1576          41.00       154.32
 1065.73        2976.75           1579          45.00       171.75
 1065.76        2977.00           1583          41.00       154.32
 1065.79        2977.25           1586          40.00       149.96
 1065.82        2977.50           1590          47.00       180.47
 1065.85        2977.75           1593          46.00       176.11
 1065.88        2978.00           1596          48.00       184.83
 1065.91        2978.25           1600          39.00       145.60
 1065.94        2978.50           1603          51.00       197.91
 1065.97        2978.75           1606          48.00       184.83
 1066.00        2979.00           1610          48.00       184.83
 1066.04        2979.25           1613          37.00       136.88
 1066.07        2979.50           1616          49.00       189.19
 1066.10        2979.75           1620          57.00       224.06
 1066.13        2980.00           1623          41.00       154.32
 1066.16        2980.25           1626          47.00       180.47
 1066.19        2980.50           1630          44.00       167.39
 1066.22        2980.75           1633          42.00       158.68
 1066.25        2981.00           1637          52.00       202.27
 1066.28        2981.25           1640          44.00       167.39
 1066.31        2981.50           1643          47.00       180.47
 1066.34        2981.75           1647          42.00       158.68
 1066.37        2982.00           1650          38.00       141.24
 1066.41        2982.25           1653          44.00       167.39
 1066.44        2982.50           1657          44.00       167.39
 1066.47        2982.75           1660          43.00       163.03
 1066.50        2983.00           1663          38.00       141.24
 1066.53        2983.25           1667          40.00       149.96
 1066.56        2983.50           1670          45.00       171.75
 1066.59        2983.75           1673          42.00       158.68
 1066.62        2984.00           1677          38.00       141.24
HS scan finished at 17:46:50
end
