************************************************************
  HS Scan of (1) Internal mercury lamp
************************************************************
Integration time is 0.2294 seconds per sample
dh210117Manchester 53.47 2.23 2.750537pr1000
************************************************************
Dead Time -------------------------  3E-08 
Number of Cycles Used -------------  4 
Starting Wavelength (Angstroms) ---  2950 
Final Wavelength (Angstoms) -------  2984 
Wavelength Increment (Angstroms) --  .25 
Filter Wheel #1 Position ---------- (1) Ground quartz diffuser (ND=2.32)
Filter Wheel #2 Position ---------- (1) Neutral Density 0.494



************************************************************
HS scan start time = 05:19:08
Dark Count =  5.2 


Time (GMT)  Wavelength (Ang)  Step Number  Raw Counts  Counts/Second

  319.51        2950.00           1222          44.00       169.14
  319.57        2950.25           1226          44.00       169.14
  319.61        2950.50           1229          48.00       186.57
  319.64        2950.75           1232          42.00       160.42
  319.67        2951.00           1236          45.00       173.50
  319.70        2951.25           1239          43.00       164.78
  319.73        2951.50           1242          47.00       182.22
  319.76        2951.75           1246          51.00       199.65
  319.79        2952.00           1249          47.00       182.22
  319.82        2952.25           1252          42.00       160.42
  319.85        2952.50           1256          47.00       182.22
  319.88        2952.75           1259          44.00       169.14
  319.91        2953.00           1262          46.00       177.86
  319.95        2953.25           1266          45.00       173.50
  319.98        2953.50           1269          47.00       182.22
  320.01        2953.75           1272          45.00       173.50
  320.04        2954.00           1276          48.00       186.57
  320.07        2954.25           1279          39.00       147.34
  320.10        2954.50           1282          40.00       151.70
  320.13        2954.75           1286          46.00       177.86
  320.16        2955.00           1289          46.00       177.86
  320.19        2955.25           1292          43.00       164.78
  320.22        2955.50           1296          39.00       147.34
  320.25        2955.75           1299          45.00       173.50
  320.29        2956.00           1302          44.00       169.14
  320.32        2956.25           1306          44.00       169.14
  320.35        2956.50           1309          47.00       182.22
  320.38        2956.75           1312          45.00       173.50
  320.41        2957.00           1316          45.00       173.50
  320.44        2957.25           1319          43.00       164.78
  320.47        2957.50           1322          52.00       204.01
  320.50        2957.75           1326          50.00       195.29
  320.53        2958.00           1329          42.00       160.42
  320.56        2958.25           1332          47.00       182.22
  320.59        2958.50           1336          46.00       177.86
  320.62        2958.75           1339          44.00       169.14
  320.65        2959.00           1342          51.00       199.65
  320.68        2959.25           1346          47.00       182.22
  320.71        2959.50           1349          57.00       225.81
  320.75        2959.75           1352          62.00       247.60
  320.78        2960.00           1356          92.00       378.38
  320.81        2960.25           1359         136.00       570.19
  320.84        2960.50           1362         168.00       709.69
  320.87        2960.75           1366         227.00       966.90
  320.90        2961.00           1369         261.00      1115.12
  320.93        2961.25           1372         307.00      1315.66
  320.96        2961.50           1376         390.00      1677.50
  320.99        2961.75           1379         515.00      2222.47
  321.02        2962.00           1382         894.00      3874.91
  321.06        2962.25           1386        2283.00      9932.34
  321.09        2962.50           1389        3957.00     17235.59
  321.12        2962.75           1392        5580.00     24319.39
  321.15        2963.00           1396        7670.00     33445.92
  321.18        2963.25           1399        9295.00     40545.37
  321.21        2963.50           1402       10944.00     47752.76
  321.24        2963.75           1406       13170.00     57487.03
  321.27        2964.00           1409       14807.00     64649.24
  321.30        2964.25           1412       16488.00     72007.18
  321.33        2964.50           1416       18636.00     81413.96
  321.36        2964.75           1419       20361.00     88972.12
  321.40        2965.00           1422       21929.00     95845.38
  321.43        2965.25           1426       24137.00    105528.90
  321.46        2965.50           1429       25998.00    113694.90
  321.49        2965.75           1432       27613.00    120784.80
  321.52        2966.00           1436       29748.00    130162.00
  321.55        2966.25           1439       31459.00    137680.90
  321.58        2966.50           1442       32858.00    143831.10
  321.61        2966.75           1446       34376.00    150507.20
  321.64        2967.00           1449       35080.00    153604.20
  321.67        2967.25           1452       35412.00    155064.90
  321.71        2967.50           1456       35382.00    154932.90
  321.74        2967.75           1459       35548.00    155663.40
  321.77        2968.00           1462       35262.00    154404.90
  321.80        2968.25           1466       34529.00    151180.20
  321.83        2968.50           1469       33172.00    145211.90
  321.86        2968.75           1472       31739.00    138911.60
  321.89        2969.00           1476       29653.00    129744.70
  321.92        2969.25           1479       27940.00    122220.60
  321.95        2969.50           1482       26300.00    115020.50
  321.99        2969.75           1486       24159.00    105625.40
  322.02        2970.00           1489       22598.00     98778.78
  322.05        2970.25           1492       21097.00     92197.99
  322.08        2970.50           1496       18818.00     82211.25
  322.11        2970.75           1499       17255.00     75365.51
  322.14        2971.00           1502       15509.00     67721.58
  322.17        2971.25           1506       13266.00     57906.96
  322.20        2971.50           1509       11437.00     49908.15
  322.23        2971.75           1513        9285.00     40501.67
  322.26        2972.00           1516        7710.00     33620.64
  322.29        2972.25           1519        6005.00     26174.86
  322.33        2972.50           1523        4063.00     17698.15
  322.36        2972.75           1526        2571.00     11188.59
  322.39        2973.00           1529        1329.00      5771.71
  322.42        2973.25           1533         534.00      2305.30
  322.45        2973.50           1536         345.00      1481.32
  322.48        2973.75           1539         293.00      1254.62
  322.51        2974.00           1543         242.00      1032.29
  322.54        2974.25           1546         178.00       753.29
  322.57        2974.50           1549         140.00       587.63
  322.60        2974.75           1553          92.00       378.38
  322.63        2975.00           1556          66.00       265.04
  322.67        2975.25           1559          58.00       230.17
  322.70        2975.50           1563          45.00       173.50
  322.73        2975.75           1566          44.00       169.14
  322.76        2976.00           1569          47.00       182.22
  322.79        2976.25           1573          50.00       195.29
  322.82        2976.50           1576          49.00       190.93
  322.85        2976.75           1579          47.00       182.22
  322.88        2977.00           1583          42.00       160.42
  322.91        2977.25           1586          48.00       186.57
  322.94        2977.50           1590          44.00       169.14
  322.98        2977.75           1593          42.00       160.42
  323.01        2978.00           1596          49.00       190.93
  323.04        2978.25           1600          45.00       173.50
  323.07        2978.50           1603          46.00       177.86
  323.10        2978.75           1606          47.00       182.22
  323.13        2979.00           1610          42.00       160.42
  323.16        2979.25           1613          42.00       160.42
  323.19        2979.50           1616          47.00       182.22
  323.22        2979.75           1620          47.00       182.22
  323.25        2980.00           1623          44.00       169.14
  323.28        2980.25           1626          44.00       169.14
  323.32        2980.50           1630          40.00       151.70
  323.35        2980.75           1633          55.00       217.09
  323.38        2981.00           1637          42.00       160.42
  323.41        2981.25           1640          36.00       134.26
  323.44        2981.50           1643          42.00       160.42
  323.47        2981.75           1647          46.00       177.86
  323.50        2982.00           1650          45.00       173.50
  323.53        2982.25           1653          42.00       160.42
  323.56        2982.50           1657          45.00       173.50
  323.59        2982.75           1660          44.00       169.14
  323.62        2983.00           1663          44.00       169.14
  323.65        2983.25           1667          48.00       186.57
  323.68        2983.50           1670          43.00       164.78
  323.72        2983.75           1673          33.00       121.19
  323.75        2984.00           1677          40.00       151.70
HS scan finished at 05:23:58
end
************************************************************
  HS Scan of (1) Internal mercury lamp
************************************************************
Integration time is 0.2294 seconds per sample
dh210117Manchester 53.47 2.23 2.750537pr1000
************************************************************
Dead Time -------------------------  3E-08 
Number of Cycles Used -------------  4 
Starting Wavelength (Angstroms) ---  2950 
Final Wavelength (Angstoms) -------  2984 
Wavelength Increment (Angstroms) --  .25 
Filter Wheel #1 Position ---------- (1) Ground quartz diffuser (ND=2.32)
Filter Wheel #2 Position ---------- (1) Neutral Density 0.494



************************************************************
HS scan start time = 17:42:08
Dark Count =  6.7 


Time (GMT)  Wavelength (Ang)  Step Number  Raw Counts  Counts/Second

 1062.51        2950.00           1222          48.00       180.04
 1062.58        2950.25           1226          56.00       214.91
 1062.61        2950.50           1229          44.00       162.60
 1062.64        2950.75           1232          48.00       180.04
 1062.67        2951.00           1236          45.00       166.96
 1062.70        2951.25           1239          51.00       193.11
 1062.73        2951.50           1242          48.00       180.04
 1062.76        2951.75           1246          43.00       158.24
 1062.79        2952.00           1249          35.00       123.37
 1062.82        2952.25           1252          46.00       171.32
 1062.85        2952.50           1256          49.00       184.40
 1062.88        2952.75           1259          46.00       171.32
 1062.92        2953.00           1262          46.00       171.32
 1062.95        2953.25           1266          49.00       184.40
 1062.98        2953.50           1269          41.00       149.52
 1063.01        2953.75           1272          45.00       166.96
 1063.04        2954.00           1276          47.00       175.68
 1063.07        2954.25           1279          44.00       162.60
 1063.10        2954.50           1282          47.00       175.68
 1063.13        2954.75           1286          45.00       166.96
 1063.16        2955.00           1289          48.00       180.04
 1063.19        2955.25           1292          41.00       149.52
 1063.22        2955.50           1296          45.00       166.96
 1063.25        2955.75           1299          49.00       184.40
 1063.28        2956.00           1302          37.00       132.08
 1063.32        2956.25           1306          44.00       162.60
 1063.35        2956.50           1309          42.00       153.88
 1063.38        2956.75           1312          40.00       145.16
 1063.41        2957.00           1316          40.00       145.16
 1063.44        2957.25           1319          45.00       166.96
 1063.47        2957.50           1322          42.00       153.88
 1063.50        2957.75           1326          53.00       201.83
 1063.53        2958.00           1329          43.00       158.24
 1063.56        2958.25           1332          43.00       158.24
 1063.59        2958.50           1336          49.00       184.40
 1063.63        2958.75           1339          49.00       184.40
 1063.66        2959.00           1342          42.00       153.88
 1063.69        2959.25           1346          45.00       166.96
 1063.72        2959.50           1349          47.00       175.68
 1063.75        2959.75           1352          56.00       214.91
 1063.78        2960.00           1356         102.00       415.44
 1063.81        2960.25           1359         118.00       485.19
 1063.84        2960.50           1362         157.00       655.20
 1063.87        2960.75           1366         237.00      1003.95
 1063.91        2961.00           1369         264.00      1121.66
 1063.94        2961.25           1372         316.00      1348.35
 1063.97        2961.50           1376         391.00      1675.32
 1064.00        2961.75           1379         556.00      2394.68
 1064.03        2962.00           1382        1143.00      4954.09
 1064.06        2962.25           1386        2753.00     11975.97
 1064.09        2962.50           1389        4210.00     18333.10
 1064.12        2962.75           1392        5671.00     24710.12
 1064.15        2963.00           1396        7790.00     33963.54
 1064.18        2963.25           1399        9284.00     40490.74
 1064.22        2963.50           1402       10936.00     47711.23
 1064.25        2963.75           1406       13062.00     57008.05
 1064.28        2964.00           1409       14745.00     64371.36
 1064.31        2964.25           1412       16682.00     72849.98
 1064.34        2964.50           1416       18712.00     81740.31
 1064.37        2964.75           1419       20365.00     88983.09
 1064.40        2965.00           1422       22231.00     97162.94
 1064.43        2965.25           1426       24398.00    106667.30
 1064.46        2965.50           1429       25948.00    113468.90
 1064.49        2965.75           1432       27594.00    120694.70
 1064.53        2966.00           1436       29746.00    130146.70
 1064.56        2966.25           1439       31154.00    136333.70
 1064.59        2966.50           1442       32842.00    143754.20
 1064.62        2966.75           1446       34475.00    150936.10
 1064.65        2967.00           1449       35253.00    154358.80
 1064.68        2967.25           1452       35539.00    155617.10
 1064.71        2967.50           1456       35351.00    154790.00
 1064.74        2967.75           1459       35218.00    154204.80
 1064.77        2968.00           1462       35362.00    154838.30
 1064.80        2968.25           1466       34510.00    151090.00
 1064.84        2968.50           1469       33272.00    145645.00
 1064.87        2968.75           1472       31702.00    138742.40
 1064.90        2969.00           1476       29858.00    130638.70
 1064.93        2969.25           1479       28332.00    123935.50
 1064.96        2969.50           1482       26629.00    116458.10
 1064.99        2969.75           1486       24623.00    107654.50
 1065.02        2970.00           1489       22781.00     99574.69
 1065.05        2970.25           1492       21332.00     93221.56
 1065.08        2970.50           1496       19004.00     83019.51
 1065.11        2970.75           1499       17423.00     76094.62
 1065.15        2971.00           1502       15577.00     68012.65
 1065.18        2971.25           1506       13542.00     59107.77
 1065.21        2971.50           1509       11879.00     51834.25
 1065.24        2971.75           1513        9526.00     41548.27
 1065.27        2972.00           1516        8005.00     34902.70
 1065.30        2972.25           1519        6473.00     28211.75
 1065.33        2972.50           1523        4367.00     19018.26
 1065.36        2972.75           1526        2925.00     12726.31
 1065.39        2973.00           1529        1659.00      7204.26
 1065.42        2973.25           1533         606.00      2612.67
 1065.45        2973.50           1536         362.00      1548.90
 1065.48        2973.75           1539         299.00      1274.24
 1065.52        2974.00           1543         244.00      1034.47
 1065.55        2974.25           1546         185.00       777.26
 1065.58        2974.50           1549         141.00       585.45
 1065.61        2974.75           1553          95.00       384.92
 1065.64        2975.00           1556          72.00       284.66
 1065.67        2975.25           1559          62.00       241.07
 1065.70        2975.50           1563          47.00       175.68
 1065.73        2975.75           1566          43.00       158.24
 1065.76        2976.00           1569          45.00       166.96
 1065.79        2976.25           1573          50.00       188.75
 1065.82        2976.50           1576          50.00       188.75
 1065.85        2976.75           1579          57.00       219.27
 1065.89        2977.00           1583          42.00       153.88
 1065.92        2977.25           1586          42.00       153.88
 1065.95        2977.50           1590          49.00       184.40
 1065.98        2977.75           1593          46.00       171.32
 1066.01        2978.00           1596          52.00       197.47
 1066.04        2978.25           1600          42.00       153.88
 1066.07        2978.50           1603          43.00       158.24
 1066.10        2978.75           1606          44.00       162.60
 1066.13        2979.00           1610          43.00       158.24
 1066.16        2979.25           1613          41.00       149.52
 1066.19        2979.50           1616          39.00       140.80
 1066.22        2979.75           1620          42.00       153.88
 1066.25        2980.00           1623          46.00       171.32
 1066.29        2980.25           1626          38.00       136.44
 1066.32        2980.50           1630          40.00       145.16
 1066.35        2980.75           1633          41.00       149.52
 1066.38        2981.00           1637          41.00       149.52
 1066.41        2981.25           1640          42.00       153.88
 1066.44        2981.50           1643          40.00       145.16
 1066.47        2981.75           1647          45.00       166.96
 1066.50        2982.00           1650          41.00       149.52
 1066.53        2982.25           1653          47.00       175.68
 1066.56        2982.50           1657          50.00       188.75
 1066.59        2982.75           1660          41.00       149.52
 1066.63        2983.00           1663          40.00       145.16
 1066.66        2983.25           1667          39.00       140.80
 1066.69        2983.50           1670          47.00       175.68
 1066.72        2983.75           1673          41.00       149.52
 1066.75        2984.00           1677          50.00       188.75
HS scan finished at 17:46:58
end
