************************************************************
  HS Scan of (1) Internal mercury lamp
************************************************************
Integration time is 0.2294 seconds per sample
dh300119Manchester 53.47 2.23 2.750537pr1000
************************************************************
Dead Time -------------------------  3E-08 
Number of Cycles Used -------------  4 
Starting Wavelength (Angstroms) ---  2950 
Final Wavelength (Angstoms) -------  2984 
Wavelength Increment (Angstroms) --  .25 
Filter Wheel #1 Position ---------- (1) Ground quartz diffuser (ND=2.32)
Filter Wheel #2 Position ---------- (1) Neutral Density 0.494



************************************************************
HS scan start time = 05:08:37
Dark Count =  8.899999 


Time (GMT)  Wavelength (Ang)  Step Number  Raw Counts  Counts/Second

  308.98        2950.00           1222          54.00       196.60
  309.05        2950.25           1226          62.00       231.48
  309.08        2950.50           1229          56.00       205.32
  309.11        2950.75           1232          54.00       196.60
  309.14        2951.00           1236          55.00       200.96
  309.17        2951.25           1239          53.00       192.24
  309.20        2951.50           1242          57.00       209.68
  309.23        2951.75           1246          58.00       214.04
  309.26        2952.00           1249          55.00       200.96
  309.29        2952.25           1252          47.00       166.09
  309.32        2952.50           1256          62.00       231.48
  309.35        2952.75           1259          62.00       231.48
  309.38        2953.00           1262          50.00       179.16
  309.42        2953.25           1266          49.00       174.80
  309.45        2953.50           1269          59.00       218.40
  309.48        2953.75           1272          60.00       222.76
  309.51        2954.00           1276          59.00       218.40
  309.54        2954.25           1279          57.00       209.68
  309.57        2954.50           1282          50.00       179.16
  309.60        2954.75           1286          60.00       222.76
  309.63        2955.00           1289          53.00       192.24
  309.66        2955.25           1292          50.00       179.16
  309.70        2955.50           1296          59.00       218.40
  309.73        2955.75           1299          56.00       205.32
  309.76        2956.00           1302          64.00       240.19
  309.79        2956.25           1306          53.00       192.24
  309.82        2956.50           1309          57.00       209.68
  309.85        2956.75           1312          52.00       187.88
  309.88        2957.00           1316          50.00       179.16
  309.91        2957.25           1319          68.00       257.63
  309.94        2957.50           1322          47.00       166.09
  309.98        2957.75           1326          55.00       200.96
  310.01        2958.00           1329          62.00       231.48
  310.04        2958.25           1332          55.00       200.96
  310.07        2958.50           1336          58.00       214.04
  310.10        2958.75           1339          53.00       192.24
  310.13        2959.00           1342          50.00       179.16
  310.16        2959.25           1346          60.00       222.76
  310.19        2959.50           1349          50.00       179.16
  310.22        2959.75           1352          53.00       192.24
  310.25        2960.00           1356          85.00       331.74
  310.28        2960.25           1359         110.00       440.72
  310.32        2960.50           1362         134.00       545.34
  310.35        2960.75           1366         173.00       715.36
  310.38        2961.00           1369         197.00       819.99
  310.41        2961.25           1372         249.00      1046.68
  310.44        2961.50           1376         298.00      1260.29
  310.47        2961.75           1379         420.00      1792.16
  310.50        2962.00           1382         847.00      3653.84
  310.53        2962.25           1386        2157.00      9366.63
  310.56        2962.50           1389        3323.00     14453.08
  310.59        2962.75           1392        4463.00     19427.63
  310.62        2963.00           1396        6005.00     26158.71
  310.65        2963.25           1399        7138.00     31106.18
  310.69        2963.50           1402        8382.00     36540.04
  310.72        2963.75           1406        9906.00     43199.37
  310.75        2964.00           1409       11186.00     48794.57
  310.78        2964.25           1412       12523.00     54640.94
  310.81        2964.50           1416       14002.00     61110.63
  310.84        2964.75           1419       15253.00     66584.91
  310.87        2965.00           1422       16365.00     71452.48
  310.90        2965.25           1426       17898.00     78165.21
  310.93        2965.50           1429       19085.00     83364.73
  310.96        2965.75           1432       20195.00     88228.42
  310.99        2966.00           1436       21832.00     95403.88
  311.03        2966.25           1439       23088.00    100911.40
  311.06        2966.50           1442       24168.00    105648.60
  311.09        2966.75           1446       25405.00    111076.20
  311.12        2967.00           1449       25752.00    112599.00
  311.15        2967.25           1452       25739.00    112541.90
  311.18        2967.50           1456       25817.00    112884.30
  311.21        2967.75           1459       25787.00    112752.60
  311.24        2968.00           1462       25585.00    111866.10
  311.27        2968.25           1466       25110.00    109781.60
  311.31        2968.50           1469       23860.00    104297.50
  311.34        2968.75           1472       22912.00    100139.50
  311.37        2969.00           1476       21389.00     93461.77
  311.40        2969.25           1479       20050.00     87592.99
  311.43        2969.50           1482       18931.00     82690.05
  311.46        2969.75           1486       17378.00     75887.93
  311.49        2970.00           1489       16240.00     70905.25
  311.52        2970.25           1492       15108.00     65950.32
  311.55        2970.50           1496       13518.00     58993.15
  311.59        2970.75           1499       12396.00     54085.51
  311.62        2971.00           1502       11179.00     48763.96
  311.65        2971.25           1506        9563.00     41700.35
  311.68        2971.50           1509        8293.00     36151.22
  311.71        2971.75           1513        6730.00     29324.39
  311.74        2972.00           1516        5603.00     24403.65
  311.77        2972.25           1519        4416.00     19222.50
  311.80        2972.50           1523        2884.00     12537.85
  311.83        2972.75           1526        1704.00      7390.91
  311.87        2973.00           1529         759.00      3270.16
  311.90        2973.25           1533         378.00      1609.06
  311.93        2973.50           1536         275.00      1160.02
  311.96        2973.75           1539         242.00      1016.16
  311.99        2974.00           1543         213.00       889.74
  312.02        2974.25           1546         173.00       715.36
  312.05        2974.50           1549         143.00       584.58
  312.08        2974.75           1553         103.00       410.21
  312.11        2975.00           1556          87.00       340.46
  312.15        2975.25           1559          67.00       253.27
  312.18        2975.50           1563          57.00       209.68
  312.21        2975.75           1566          52.00       187.88
  312.24        2976.00           1569          51.00       183.52
  312.27        2976.25           1573          52.00       187.88
  312.30        2976.50           1576          50.00       179.16
  312.33        2976.75           1579          53.00       192.24
  312.36        2977.00           1583          55.00       200.96
  312.39        2977.25           1586          55.00       200.96
  312.43        2977.50           1590          48.00       170.45
  312.46        2977.75           1593          53.00       192.24
  312.49        2978.00           1596          55.00       200.96
  312.52        2978.25           1600          44.00       153.01
  312.55        2978.50           1603          52.00       187.88
  312.58        2978.75           1606          48.00       170.45
  312.61        2979.00           1610          52.00       187.88
  312.64        2979.25           1613          63.00       235.83
  312.67        2979.50           1616          49.00       174.80
  312.70        2979.75           1620          50.00       179.16
  312.73        2980.00           1623          49.00       174.80
  312.77        2980.25           1626          57.00       209.68
  312.80        2980.50           1630          45.00       157.37
  312.83        2980.75           1633          50.00       179.16
  312.86        2981.00           1637          52.00       187.88
  312.89        2981.25           1640          53.00       192.24
  312.92        2981.50           1643          49.00       174.80
  312.95        2981.75           1647          54.00       196.60
  312.98        2982.00           1650          47.00       166.09
  313.01        2982.25           1653          50.00       179.16
  313.04        2982.50           1657          51.00       183.52
  313.07        2982.75           1660          50.00       179.16
  313.10        2983.00           1663          55.00       200.96
  313.14        2983.25           1667          54.00       196.60
  313.17        2983.50           1670          46.00       161.73
  313.20        2983.75           1673          47.00       166.09
  313.23        2984.00           1677          50.00       179.16
HS scan finished at 05:13:27
end
************************************************************
  HS Scan of (1) Internal mercury lamp
************************************************************
Integration time is 0.2294 seconds per sample
dh300119Manchester 53.47 2.23 2.750537pr1000
************************************************************
Dead Time -------------------------  3E-08 
Number of Cycles Used -------------  4 
Starting Wavelength (Angstroms) ---  2950 
Final Wavelength (Angstoms) -------  2984 
Wavelength Increment (Angstroms) --  .25 
Filter Wheel #1 Position ---------- (1) Ground quartz diffuser (ND=2.32)
Filter Wheel #2 Position ---------- (1) Neutral Density 0.494



************************************************************
HS scan start time = 17:42:10
Dark Count =  5.6 


Time (GMT)  Wavelength (Ang)  Step Number  Raw Counts  Counts/Second

 1062.54        2950.00           1222          57.00       224.06
 1062.61        2950.25           1226          57.00       224.06
 1062.64        2950.50           1229          56.00       219.71
 1062.67        2950.75           1232          53.00       206.63
 1062.70        2951.00           1236          55.00       215.35
 1062.73        2951.25           1239          52.00       202.27
 1062.77        2951.50           1242          54.00       210.99
 1062.80        2951.75           1246          64.00       254.58
 1062.83        2952.00           1249          59.00       232.78
 1062.86        2952.25           1252          56.00       219.71
 1062.89        2952.50           1256          57.00       224.06
 1062.92        2952.75           1259          54.00       210.99
 1062.95        2953.00           1262          55.00       215.35
 1062.98        2953.25           1266          55.00       215.35
 1063.01        2953.50           1269          50.00       193.55
 1063.04        2953.75           1272          73.00       293.81
 1063.08        2954.00           1276          58.00       228.42
 1063.11        2954.25           1279          54.00       210.99
 1063.14        2954.50           1282          49.00       189.19
 1063.17        2954.75           1286          57.00       224.06
 1063.20        2955.00           1289          48.00       184.83
 1063.23        2955.25           1292          61.00       241.50
 1063.26        2955.50           1296          58.00       228.42
 1063.29        2955.75           1299          55.00       215.35
 1063.32        2956.00           1302          48.00       184.83
 1063.35        2956.25           1306          60.00       237.14
 1063.38        2956.50           1309          42.00       158.68
 1063.42        2956.75           1312          55.00       215.35
 1063.45        2957.00           1316          58.00       228.42
 1063.48        2957.25           1319          56.00       219.71
 1063.51        2957.50           1322          53.00       206.63
 1063.54        2957.75           1326          59.00       232.78
 1063.57        2958.00           1329          55.00       215.35
 1063.60        2958.25           1332          61.00       241.50
 1063.63        2958.50           1336          49.00       189.19
 1063.66        2958.75           1339          64.00       254.58
 1063.70        2959.00           1342          62.00       245.86
 1063.73        2959.25           1346          55.00       215.35
 1063.76        2959.50           1349          55.00       215.35
 1063.79        2959.75           1352          64.00       254.58
 1063.82        2960.00           1356          93.00       381.00
 1063.85        2960.25           1359         127.00       529.22
 1063.88        2960.50           1362         140.00       585.89
 1063.91        2960.75           1366         169.00       712.31
 1063.94        2961.00           1369         198.00       838.73
 1063.98        2961.25           1372         248.00      1056.70
 1064.01        2961.50           1376         291.00      1244.16
 1064.04        2961.75           1379         433.00      1863.23
 1064.07        2962.00           1382         927.00      4017.05
 1064.10        2962.25           1386        2098.00      9123.68
 1064.13        2962.50           1389        3250.00     14148.99
 1064.16        2962.75           1392        4476.00     19498.76
 1064.19        2963.00           1396        6035.00     26304.10
 1064.22        2963.25           1399        7271.00     31701.45
 1064.26        2963.50           1402        8453.00     36864.64
 1064.29        2963.75           1406       10035.00     43777.60
 1064.32        2964.00           1409       11255.00     49110.67
 1064.35        2964.25           1412       12657.00     55241.43
 1064.38        2964.50           1416       14106.00     61580.10
 1064.41        2964.75           1419       15367.00     67098.31
 1064.44        2965.00           1422       16562.00     72329.40
 1064.47        2965.25           1426       18194.00     79476.11
 1064.50        2965.50           1429       19330.00     84452.59
 1064.54        2965.75           1432       20624.00     90123.02
 1064.57        2966.00           1436       22254.00     97268.60
 1064.60        2966.25           1439       23289.00    101807.40
 1064.63        2966.50           1442       24333.00    106387.00
 1064.66        2966.75           1446       25360.00    110893.20
 1064.69        2967.00           1449       25755.00    112626.60
 1064.72        2967.25           1452       25549.00    111722.60
 1064.75        2967.50           1456       25832.00    112964.60
 1064.79        2967.75           1459       25548.00    111718.20
 1064.82        2968.00           1462       25635.00    112100.00
 1064.85        2968.25           1466       24915.00    108940.50
 1064.88        2968.50           1469       23804.00    104066.30
 1064.91        2968.75           1472       22569.00     98649.85
 1064.94        2969.00           1476       21074.00     92095.43
 1064.97        2969.25           1479       19794.00     86485.66
 1065.00        2969.50           1482       18680.00     81604.95
 1065.03        2969.75           1486       17100.00     74685.03
 1065.07        2970.00           1489       15763.00     68831.61
 1065.10        2970.25           1492       14920.00     65142.01
 1065.13        2970.50           1496       13308.00     58088.94
 1065.16        2970.75           1499       12176.00     53137.83
 1065.19        2971.00           1502       10950.00     47777.24
 1065.22        2971.25           1506        9519.00     41522.49
 1065.25        2971.50           1509        8347.00     36401.55
 1065.28        2971.75           1513        6579.00     28679.42
 1065.31        2972.00           1516        5348.00     23304.87
 1065.35        2972.25           1519        4231.00     18429.54
 1065.38        2972.50           1523        2714.00     11810.64
 1065.41        2972.75           1526        1590.00      6908.15
 1065.44        2973.00           1529         745.00      3223.50
 1065.47        2973.25           1533         349.00      1497.02
 1065.50        2973.50           1536         251.00      1069.78
 1065.53        2973.75           1539         220.00       934.64
 1065.56        2974.00           1543         175.00       738.46
 1065.59        2974.25           1546         129.00       537.93
 1065.62        2974.50           1549         106.00       437.67
 1065.66        2974.75           1553          70.00       280.73
 1065.69        2975.00           1556          63.00       250.22
 1065.72        2975.25           1559          55.00       215.35
 1065.75        2975.50           1563          56.00       219.71
 1065.78        2975.75           1566          47.00       180.47
 1065.81        2976.00           1569          47.00       180.47
 1065.84        2976.25           1573          58.00       228.42
 1065.87        2976.50           1576          44.00       167.39
 1065.90        2976.75           1579          54.00       210.99
 1065.93        2977.00           1583          53.00       206.63
 1065.97        2977.25           1586          50.00       193.55
 1066.00        2977.50           1590          58.00       228.42
 1066.03        2977.75           1593          59.00       232.78
 1066.06        2978.00           1596          53.00       206.63
 1066.09        2978.25           1600          54.00       210.99
 1066.12        2978.50           1603          44.00       167.39
 1066.15        2978.75           1606          51.00       197.91
 1066.18        2979.00           1610          52.00       202.27
 1066.21        2979.25           1613          56.00       219.71
 1066.24        2979.50           1616          45.00       171.75
 1066.28        2979.75           1620          49.00       189.19
 1066.31        2980.00           1623          48.00       184.83
 1066.34        2980.25           1626          50.00       193.55
 1066.37        2980.50           1630          50.00       193.55
 1066.40        2980.75           1633          54.00       210.99
 1066.43        2981.00           1637          51.00       197.91
 1066.46        2981.25           1640          48.00       184.83
 1066.49        2981.50           1643          52.00       202.27
 1066.52        2981.75           1647          44.00       167.39
 1066.55        2982.00           1650          49.00       189.19
 1066.58        2982.25           1653          48.00       184.83
 1066.63        2982.50           1657          50.00       193.55
 1066.66        2982.75           1660          45.00       171.75
 1066.69        2983.00           1663          54.00       210.99
 1066.72        2983.25           1667          50.00       193.55
 1066.75        2983.50           1670          47.00       180.47
 1066.78        2983.75           1673          41.00       154.32
 1066.81        2984.00           1677          53.00       206.63
HS scan finished at 17:47:02
end
