************************************************************
  HS Scan of (1) Internal mercury lamp
************************************************************
Integration time is 0.2294 seconds per sample
dh310119Manchester 53.47 2.23 2.750537pr1000
************************************************************
Dead Time -------------------------  3E-08 
Number of Cycles Used -------------  4 
Starting Wavelength (Angstroms) ---  2950 
Final Wavelength (Angstoms) -------  2984 
Wavelength Increment (Angstroms) --  .25 
Filter Wheel #1 Position ---------- (1) Ground quartz diffuser (ND=2.32)
Filter Wheel #2 Position ---------- (1) Neutral Density 0.494



************************************************************
HS scan start time = 05:07:15
Dark Count =  5.2 


Time (GMT)  Wavelength (Ang)  Step Number  Raw Counts  Counts/Second

  307.62        2950.00           1222          54.00       212.73
  307.69        2950.25           1226          51.00       199.65
  307.72        2950.50           1229          45.00       173.50
  307.75        2950.75           1232          63.00       251.96
  307.78        2951.00           1236          64.00       256.32
  307.81        2951.25           1239          53.00       208.37
  307.84        2951.50           1242          55.00       217.09
  307.87        2951.75           1246          57.00       225.81
  307.90        2952.00           1249          59.00       234.53
  307.93        2952.25           1252          54.00       212.73
  307.96        2952.50           1256          54.00       212.73
  307.99        2952.75           1259          56.00       221.45
  308.02        2953.00           1262          48.00       186.57
  308.05        2953.25           1266          56.00       221.45
  308.08        2953.50           1269          60.00       238.89
  308.12        2953.75           1272          56.00       221.45
  308.15        2954.00           1276          59.00       234.53
  308.18        2954.25           1279          55.00       217.09
  308.21        2954.50           1282          58.00       230.17
  308.24        2954.75           1286          55.00       217.09
  308.27        2955.00           1289          56.00       221.45
  308.30        2955.25           1292          54.00       212.73
  308.33        2955.50           1296          59.00       234.53
  308.36        2955.75           1299          56.00       221.45
  308.39        2956.00           1302          52.00       204.01
  308.42        2956.25           1306          63.00       251.96
  308.46        2956.50           1309          56.00       221.45
  308.49        2956.75           1312          56.00       221.45
  308.52        2957.00           1316          61.00       243.25
  308.55        2957.25           1319          52.00       204.01
  308.58        2957.50           1322          58.00       230.17
  308.61        2957.75           1326          58.00       230.17
  308.64        2958.00           1329          59.00       234.53
  308.67        2958.25           1332          61.00       243.25
  308.70        2958.50           1336          56.00       221.45
  308.73        2958.75           1339          45.00       173.50
  308.76        2959.00           1342          59.00       234.53
  308.79        2959.25           1346          54.00       212.73
  308.83        2959.50           1349          60.00       238.89
  308.86        2959.75           1352          60.00       238.89
  308.89        2960.00           1356          88.00       360.95
  308.92        2960.25           1359         107.00       443.77
  308.95        2960.50           1362         127.00       530.96
  308.98        2960.75           1366         162.00       683.54
  309.01        2961.00           1369         201.00       853.55
  309.04        2961.25           1372         230.00       979.98
  309.07        2961.50           1376         295.00      1263.34
  309.10        2961.75           1379         368.00      1581.59
  309.13        2962.00           1382         764.00      3308.09
  309.16        2962.25           1386        2051.00      8920.43
  309.20        2962.50           1389        3116.00     13566.11
  309.23        2962.75           1392        4300.00     18732.41
  309.26        2963.00           1396        5703.00     24856.37
  309.29        2963.25           1399        6974.00     30406.10
  309.32        2963.50           1402        8112.00     35376.67
  309.35        2963.75           1406        9660.00     42140.43
  309.38        2964.00           1409       10867.00     47416.14
  309.41        2964.25           1412       12193.00     53213.92
  309.44        2964.50           1416       13970.00     60986.81
  309.48        2964.75           1419       15066.00     65782.71
  309.51        2965.00           1422       16297.00     71170.98
  309.54        2965.25           1426       17878.00     78093.82
  309.57        2965.50           1429       18957.00     82820.18
  309.60        2965.75           1432       20249.00     88481.30
  309.63        2966.00           1436       21772.00     95157.06
  309.66        2966.25           1439       22770.00     99533.04
  309.69        2966.50           1442       23928.00    104612.00
  309.72        2966.75           1446       25309.00    110671.10
  309.76        2967.00           1449       25757.00    112637.20
  309.79        2967.25           1452       25791.00    112786.40
  309.82        2967.50           1456       25935.00    113418.40
  309.85        2967.75           1459       25800.00    112825.90
  309.88        2968.00           1462       25834.00    112975.10
  309.91        2968.25           1466       25247.00    110399.00
  309.94        2968.50           1469       24313.00    106301.00
  309.97        2968.75           1472       23334.00    102006.50
  310.00        2969.00           1476       21721.00     94933.46
  310.04        2969.25           1479       20763.00     90734.01
  310.07        2969.50           1482       19580.00     85549.71
  310.10        2969.75           1486       17971.00     78501.15
  310.13        2970.00           1489       16799.00     73368.81
  310.16        2970.25           1492       15546.00     67883.53
  310.19        2970.50           1496       14062.00     61389.33
  310.22        2970.75           1499       12811.00     55916.74
  310.25        2971.00           1502       11430.00     49877.54
  310.28        2971.25           1506        9821.00     42844.05
  310.31        2971.50           1509        8725.00     38054.76
  310.35        2971.75           1513        7159.00     31214.05
  310.38        2972.00           1516        6022.00     26249.08
  310.41        2972.25           1519        4905.00     21372.90
  310.44        2972.50           1523        3213.00     13989.31
  310.47        2972.75           1526        2136.00      9291.17
  310.50        2973.00           1529        1206.00      5235.35
  310.53        2973.25           1533         428.00      1843.17
  310.56        2973.50           1536         275.00      1176.15
  310.59        2973.75           1539         215.00       914.58
  310.63        2974.00           1543         185.00       783.80
  310.66        2974.25           1546         142.00       596.35
  310.69        2974.50           1549         119.00       496.08
  310.72        2974.75           1553          77.00       312.99
  310.75        2975.00           1556          72.00       291.20
  310.78        2975.25           1559          55.00       217.09
  310.81        2975.50           1563          52.00       204.01
  310.84        2975.75           1566          56.00       221.45
  310.87        2976.00           1569          58.00       230.17
  310.90        2976.25           1573          47.00       182.22
  310.94        2976.50           1576          60.00       238.89
  310.97        2976.75           1579          54.00       212.73
  311.00        2977.00           1583          52.00       204.01
  311.03        2977.25           1586          52.00       204.01
  311.06        2977.50           1590          53.00       208.37
  311.09        2977.75           1593          49.00       190.93
  311.12        2978.00           1596          52.00       204.01
  311.15        2978.25           1600          56.00       221.45
  311.18        2978.50           1603          59.00       234.53
  311.21        2978.75           1606          46.00       177.86
  311.24        2979.00           1610          47.00       182.22
  311.27        2979.25           1613          51.00       199.65
  311.30        2979.50           1616          50.00       195.29
  311.33        2979.75           1620          58.00       230.17
  311.37        2980.00           1623          46.00       177.86
  311.40        2980.25           1626          43.00       164.78
  311.43        2980.50           1630          48.00       186.57
  311.46        2980.75           1633          57.00       225.81
  311.49        2981.00           1637          47.00       182.22
  311.52        2981.25           1640          47.00       182.22
  311.55        2981.50           1643          52.00       204.01
  311.58        2981.75           1647          52.00       204.01
  311.61        2982.00           1650          48.00       186.57
  311.64        2982.25           1653          49.00       190.93
  311.67        2982.50           1657          57.00       225.81
  311.70        2982.75           1660          48.00       186.57
  311.74        2983.00           1663          54.00       212.73
  311.77        2983.25           1667          41.00       156.06
  311.80        2983.50           1670          44.00       169.14
  311.83        2983.75           1673          45.00       173.50
  311.86        2984.00           1677          46.00       177.86
HS scan finished at 05:12:05
end
************************************************************
  HS Scan of (1) Internal mercury lamp
************************************************************
Integration time is 0.2294 seconds per sample
dh310119Manchester 53.47 2.23 2.750537pr1000
************************************************************
Dead Time -------------------------  3E-08 
Number of Cycles Used -------------  4 
Starting Wavelength (Angstroms) ---  2950 
Final Wavelength (Angstoms) -------  2984 
Wavelength Increment (Angstroms) --  .25 
Filter Wheel #1 Position ---------- (1) Ground quartz diffuser (ND=2.32)
Filter Wheel #2 Position ---------- (1) Neutral Density 0.494



************************************************************
HS scan start time = 17:42:16
Dark Count =  7 


Time (GMT)  Wavelength (Ang)  Step Number  Raw Counts  Counts/Second

 1062.64        2950.00           1222          63.00       244.12
 1062.70        2950.25           1226          61.00       235.40
 1062.74        2950.50           1229          53.00       200.52
 1062.77        2950.75           1232          58.00       222.32
 1062.80        2951.00           1236          58.00       222.32
 1062.83        2951.25           1239          54.00       204.88
 1062.86        2951.50           1242          60.00       231.04
 1062.89        2951.75           1246          53.00       200.52
 1062.92        2952.00           1249          55.00       209.24
 1062.95        2952.25           1252          58.00       222.32
 1062.98        2952.50           1256          50.00       187.45
 1063.01        2952.75           1259          51.00       191.81
 1063.04        2953.00           1262          47.00       174.37
 1063.08        2953.25           1266          60.00       231.04
 1063.11        2953.50           1269          50.00       187.45
 1063.14        2953.75           1272          52.00       196.17
 1063.17        2954.00           1276          52.00       196.17
 1063.20        2954.25           1279          54.00       204.88
 1063.23        2954.50           1282          52.00       196.17
 1063.26        2954.75           1286          48.00       178.73
 1063.29        2955.00           1289          63.00       244.12
 1063.32        2955.25           1292          52.00       196.17
 1063.35        2955.50           1296          61.00       235.40
 1063.39        2955.75           1299          54.00       204.88
 1063.42        2956.00           1302          58.00       222.32
 1063.45        2956.25           1306          55.00       209.24
 1063.48        2956.50           1309          50.00       187.45
 1063.51        2956.75           1312          60.00       231.04
 1063.54        2957.00           1316          64.00       248.48
 1063.57        2957.25           1319          51.00       191.81
 1063.60        2957.50           1322          53.00       200.52
 1063.63        2957.75           1326          51.00       191.81
 1063.66        2958.00           1329          55.00       209.24
 1063.69        2958.25           1332          57.00       217.96
 1063.72        2958.50           1336          55.00       209.24
 1063.76        2958.75           1339          55.00       209.24
 1063.79        2959.00           1342          51.00       191.81
 1063.82        2959.25           1346          57.00       217.96
 1063.85        2959.50           1349          58.00       222.32
 1063.88        2959.75           1352          62.00       239.76
 1063.91        2960.00           1356          90.00       361.82
 1063.94        2960.25           1359         115.00       470.80
 1063.97        2960.50           1362         147.00       610.30
 1064.00        2960.75           1366         174.00       728.00
 1064.04        2961.00           1369         194.00       815.19
 1064.07        2961.25           1372         252.00      1068.04
 1064.10        2961.50           1376         275.00      1168.31
 1064.13        2961.75           1379         341.00      1456.04
 1064.16        2962.00           1382         608.00      2620.08
 1064.19        2962.25           1386        1653.00      7176.78
 1064.22        2962.50           1389        2769.00     12044.46
 1064.25        2962.75           1392        3907.00     17009.55
 1064.28        2963.00           1396        5442.00     23709.10
 1064.32        2963.25           1399        6697.00     29188.59
 1064.35        2963.50           1402        7776.00     33901.07
 1064.38        2963.75           1406        9431.00     41131.81
 1064.41        2964.00           1409       10649.00     46455.28
 1064.44        2964.25           1412       11794.00     51461.26
 1064.47        2964.50           1416       13439.00     58655.87
 1064.50        2964.75           1419       14580.00     63648.01
 1064.53        2965.00           1422       15713.00     68606.63
 1064.56        2965.25           1426       17390.00     75948.79
 1064.60        2965.50           1429       18657.00     81498.06
 1064.63        2965.75           1432       19842.00     86689.86
 1064.66        2966.00           1436       21392.00     93483.26
 1064.69        2966.25           1439       22593.00     98748.96
 1064.72        2966.50           1442       23905.00    104503.20
 1064.75        2966.75           1446       24872.00    108745.70
 1064.78        2967.00           1449       25429.00    111189.80
 1064.81        2967.25           1452       25747.00    112585.40
 1064.84        2967.50           1456       25866.00    113107.70
 1064.88        2967.75           1459       25724.00    112484.40
 1064.91        2968.00           1462       25751.00    112602.90
 1064.94        2968.25           1466       25196.00    110167.30
 1064.97        2968.50           1469       24398.00    106666.00
 1065.00        2968.75           1472       23348.00    102060.10
 1065.03        2969.00           1476       21828.00     95394.68
 1065.06        2969.25           1479       20634.00     90160.71
 1065.09        2969.50           1482       19475.00     85081.76
 1065.12        2969.75           1486       17819.00     77827.53
 1065.16        2970.00           1489       16776.00     73260.23
 1065.19        2970.25           1492       15513.00     67731.21
 1065.22        2970.50           1496       13917.00     60747.05
 1065.25        2970.75           1499       12769.00     55725.17
 1065.28        2971.00           1502       11781.00     51404.41
 1065.31        2971.25           1506       10239.00     44663.12
 1065.34        2971.50           1509        9084.00     39615.49
 1065.37        2971.75           1513        7336.00     31979.23
 1065.40        2972.00           1516        6125.00     26690.94
 1065.44        2972.25           1519        5077.00     22115.80
 1065.47        2972.50           1523        3471.00     15107.11
 1065.50        2972.75           1526        2337.00     10160.03
 1065.53        2973.00           1529        1290.00      5593.79
 1065.56        2973.25           1533         445.00      1909.44
 1065.59        2973.50           1536         272.00      1155.23
 1065.62        2973.75           1539         226.00       954.69
 1065.65        2974.00           1543         182.00       762.88
 1065.68        2974.25           1546         140.00       579.78
 1065.71        2974.50           1549         114.00       466.44
 1065.75        2974.75           1553          77.00       305.15
 1065.78        2975.00           1556          59.00       226.68
 1065.81        2975.25           1559          49.00       183.09
 1065.84        2975.50           1563          52.00       196.17
 1065.87        2975.75           1566          57.00       217.96
 1065.90        2976.00           1569          56.00       213.60
 1065.93        2976.25           1573          54.00       204.88
 1065.96        2976.50           1576          56.00       213.60
 1065.99        2976.75           1579          51.00       191.81
 1066.02        2977.00           1583          42.00       152.57
 1066.05        2977.25           1586          56.00       213.60
 1066.09        2977.50           1590          61.00       235.40
 1066.12        2977.75           1593          47.00       174.37
 1066.15        2978.00           1596          57.00       217.96
 1066.18        2978.25           1600          53.00       200.52
 1066.21        2978.50           1603          50.00       187.45
 1066.24        2978.75           1606          50.00       187.45
 1066.27        2979.00           1610          54.00       204.88
 1066.30        2979.25           1613          53.00       200.52
 1066.33        2979.50           1616          55.00       209.24
 1066.36        2979.75           1620          45.00       165.65
 1066.40        2980.00           1623          63.00       244.12
 1066.43        2980.25           1626          51.00       191.81
 1066.46        2980.50           1630          53.00       200.52
 1066.49        2980.75           1633          47.00       174.37
 1066.52        2981.00           1637          52.00       196.17
 1066.55        2981.25           1640          47.00       174.37
 1066.58        2981.50           1643          51.00       191.81
 1066.61        2981.75           1647          46.00       170.01
 1066.64        2982.00           1650          48.00       178.73
 1066.67        2982.25           1653          53.00       200.52
 1066.70        2982.50           1657          53.00       200.52
 1066.73        2982.75           1660          45.00       165.65
 1066.76        2983.00           1663          52.00       196.17
 1066.80        2983.25           1667          50.00       187.45
 1066.83        2983.50           1670          47.00       174.37
 1066.86        2983.75           1673          46.00       170.01
 1066.89        2984.00           1677          52.00       196.17
HS scan finished at 17:47:06
end
