************************************************************
  HS Scan of (1) Internal mercury lamp
************************************************************
Integration time is 0.2294 seconds per sample
dh300117Manchester 53.47 2.23 2.750537pr1000
************************************************************
Dead Time -------------------------  3E-08 
Number of Cycles Used -------------  4 
Starting Wavelength (Angstroms) ---  2950 
Final Wavelength (Angstoms) -------  2984 
Wavelength Increment (Angstroms) --  .25 
Filter Wheel #1 Position ---------- (1) Ground quartz diffuser (ND=2.32)
Filter Wheel #2 Position ---------- (1) Neutral Density 0.494



************************************************************
HS scan start time = 05:07:50
Dark Count =  7.5 


Time (GMT)  Wavelength (Ang)  Step Number  Raw Counts  Counts/Second

  308.20        2950.00           1222          47.00       172.19
  308.27        2950.25           1226          43.00       154.75
  308.30        2950.50           1229          41.00       146.03
  308.33        2950.75           1232          45.00       163.47
  308.36        2951.00           1236          40.00       141.67
  308.39        2951.25           1239          43.00       154.75
  308.42        2951.50           1242          47.00       172.19
  308.45        2951.75           1246          44.00       159.11
  308.48        2952.00           1249          41.00       146.03
  308.52        2952.25           1252          49.00       180.91
  308.55        2952.50           1256          42.00       150.39
  308.58        2952.75           1259          46.00       167.83
  308.61        2953.00           1262          46.00       167.83
  308.64        2953.25           1266          41.00       146.03
  308.67        2953.50           1269          47.00       172.19
  308.70        2953.75           1272          49.00       180.91
  308.73        2954.00           1276          44.00       159.11
  308.76        2954.25           1279          45.00       163.47
  308.79        2954.50           1282          41.00       146.03
  308.82        2954.75           1286          45.00       163.47
  308.85        2955.00           1289          40.00       141.67
  308.89        2955.25           1292          46.00       167.83
  308.92        2955.50           1296          46.00       167.83
  308.95        2955.75           1299          44.00       159.11
  308.98        2956.00           1302          43.00       154.75
  309.01        2956.25           1306          45.00       163.47
  309.04        2956.50           1309          39.00       137.32
  309.07        2956.75           1312          49.00       180.91
  309.10        2957.00           1316          44.00       159.11
  309.13        2957.25           1319          41.00       146.03
  309.17        2957.50           1322          50.00       185.27
  309.20        2957.75           1326          41.00       146.03
  309.23        2958.00           1329          41.00       146.03
  309.26        2958.25           1332          46.00       167.83
  309.29        2958.50           1336          45.00       163.47
  309.32        2958.75           1339          47.00       172.19
  309.35        2959.00           1342          44.00       159.11
  309.38        2959.25           1346          52.00       193.99
  309.41        2959.50           1349          58.00       220.14
  309.44        2959.75           1352          63.00       241.94
  309.47        2960.00           1356          81.00       320.40
  309.50        2960.25           1359         115.00       468.62
  309.53        2960.50           1362         133.00       547.09
  309.56        2960.75           1366         212.00       891.48
  309.59        2961.00           1369         251.00      1061.50
  309.63        2961.25           1372         302.00      1283.83
  309.66        2961.50           1376         387.00      1654.40
  309.69        2961.75           1379         602.00      2591.74
  309.72        2962.00           1382        1218.00      5277.64
  309.75        2962.25           1386        2948.00     12823.15
  309.78        2962.50           1389        4430.00     19289.71
  309.81        2962.75           1392        6114.00     26640.73
  309.84        2963.00           1396        8130.00     35445.26
  309.87        2963.25           1399        9691.00     42265.85
  309.90        2963.50           1402       11452.00     49963.67
  309.94        2963.75           1406       13590.00     59314.26
  309.97        2964.00           1409       15358.00     67050.61
  310.00        2964.25           1412       17233.00     75259.10
  310.03        2964.50           1416       19382.00     84672.09
  310.06        2964.75           1419       21109.00     92240.51
  310.09        2965.00           1422       22722.00     99312.44
  310.12        2965.25           1426       24865.00    108712.70
  310.15        2965.50           1429       26560.00    116151.60
  310.18        2965.75           1432       28143.00    123102.00
  310.21        2966.00           1436       30319.00    132660.80
  310.24        2966.25           1439       31944.00    139802.60
  310.28        2966.50           1442       33494.00    146617.80
  310.31        2966.75           1446       35300.00    154562.00
  310.34        2967.00           1449       35911.00    157250.60
  310.37        2967.25           1452       36283.00    158887.70
  310.40        2967.50           1456       36228.00    158645.60
  310.43        2967.75           1459       36128.00    158205.50
  310.46        2968.00           1462       35935.00    157356.20
  310.49        2968.25           1466       35133.00    153827.30
  310.52        2968.50           1469       33726.00    147638.10
  310.55        2968.75           1472       32374.00    141693.00
  310.58        2969.00           1476       30325.00    132687.10
  310.62        2969.25           1479       28528.00    124792.80
  310.65        2969.50           1482       27073.00    118403.70
  310.68        2969.75           1486       24760.00    108252.00
  310.71        2970.00           1489       23070.00    100838.60
  310.74        2970.25           1492       21541.00     94134.25
  310.77        2970.50           1496       19285.00     84247.09
  310.80        2970.75           1499       17817.00     77816.60
  310.83        2971.00           1502       16003.00     69873.88
  310.86        2971.25           1506       13810.00     60276.74
  310.89        2971.50           1509       12168.00     53094.53
  310.93        2971.75           1513        9962.00     43450.24
  310.96        2972.00           1516        8136.00     35471.47
  310.99        2972.25           1519        6584.00     28692.95
  311.02        2972.50           1523        4300.00     18722.37
  311.05        2972.75           1526        2820.00     12264.76
  311.08        2973.00           1529        1424.00      6175.95
  311.11        2973.25           1533         523.00      2247.32
  311.14        2973.50           1536         361.00      1541.05
  311.17        2973.75           1539         307.00      1305.63
  311.20        2974.00           1543         257.00      1087.66
  311.23        2974.25           1546         182.00       760.70
  311.27        2974.50           1549         150.00       621.20
  311.30        2974.75           1553          92.00       368.36
  311.33        2975.00           1556          74.00       289.89
  311.36        2975.25           1559          57.00       215.78
  311.39        2975.50           1563          45.00       163.47
  311.42        2975.75           1566          47.00       172.19
  311.45        2976.00           1569          44.00       159.11
  311.48        2976.25           1573          48.00       176.55
  311.51        2976.50           1576          50.00       185.27
  311.54        2976.75           1579          51.00       189.63
  311.57        2977.00           1583          45.00       163.47
  311.60        2977.25           1586          64.00       246.30
  311.63        2977.50           1590          43.00       154.75
  311.66        2977.75           1593          47.00       172.19
  311.69        2978.00           1596          45.00       163.47
  311.73        2978.25           1600          51.00       189.63
  311.76        2978.50           1603          48.00       176.55
  311.79        2978.75           1606          42.00       150.39
  311.82        2979.00           1610          48.00       176.55
  311.85        2979.25           1613          44.00       159.11
  311.88        2979.50           1616          47.00       172.19
  311.91        2979.75           1620          43.00       154.75
  311.94        2980.00           1623          41.00       146.03
  311.97        2980.25           1626          43.00       154.75
  312.00        2980.50           1630          54.00       202.70
  312.03        2980.75           1633          60.00       228.86
  312.06        2981.00           1637          46.00       167.83
  312.09        2981.25           1640          45.00       163.47
  312.13        2981.50           1643          41.00       146.03
  312.16        2981.75           1647          43.00       154.75
  312.19        2982.00           1650          51.00       189.63
  312.22        2982.25           1653          43.00       154.75
  312.25        2982.50           1657          41.00       146.03
  312.28        2982.75           1660          41.00       146.03
  312.31        2983.00           1663          44.00       159.11
  312.34        2983.25           1667          43.00       154.75
  312.37        2983.50           1670          41.00       146.03
  312.40        2983.75           1673          40.00       141.67
  312.44        2984.00           1677          42.00       150.39
HS scan finished at 05:12:39
end
************************************************************
  HS Scan of (1) Internal mercury lamp
************************************************************
Integration time is 0.2294 seconds per sample
dh300117Manchester 53.47 2.23 2.750537pr1000
************************************************************
Dead Time -------------------------  3E-08 
Number of Cycles Used -------------  4 
Starting Wavelength (Angstroms) ---  2950 
Final Wavelength (Angstoms) -------  2984 
Wavelength Increment (Angstroms) --  .25 
Filter Wheel #1 Position ---------- (1) Ground quartz diffuser (ND=2.32)
Filter Wheel #2 Position ---------- (1) Neutral Density 0.494



************************************************************
HS scan start time = 17:43:17
Dark Count =  5.9 


Time (GMT)  Wavelength (Ang)  Step Number  Raw Counts  Counts/Second

 1063.65        2950.00           1222          43.00       161.73
 1063.72        2950.25           1226          41.00       153.01
 1063.75        2950.50           1229          56.00       218.40
 1063.78        2950.75           1232          46.00       174.80
 1063.81        2951.00           1236          48.00       183.52
 1063.84        2951.25           1239          52.00       200.96
 1063.87        2951.50           1242          46.00       174.80
 1063.90        2951.75           1246          46.00       174.80
 1063.93        2952.00           1249          43.00       161.73
 1063.96        2952.25           1252          43.00       161.73
 1064.00        2952.50           1256          50.00       192.24
 1064.03        2952.75           1259          45.00       170.45
 1064.06        2953.00           1262          45.00       170.45
 1064.09        2953.25           1266          43.00       161.73
 1064.12        2953.50           1269          47.00       179.16
 1064.15        2953.75           1272          48.00       183.52
 1064.18        2954.00           1276          45.00       170.45
 1064.21        2954.25           1279          47.00       179.16
 1064.24        2954.50           1282          52.00       200.96
 1064.27        2954.75           1286          41.00       153.01
 1064.31        2955.00           1289          55.00       214.04
 1064.34        2955.25           1292          39.00       144.29
 1064.37        2955.50           1296          42.00       157.37
 1064.40        2955.75           1299          47.00       179.16
 1064.43        2956.00           1302          40.00       148.65
 1064.46        2956.25           1306          46.00       174.80
 1064.49        2956.50           1309          46.00       174.80
 1064.52        2956.75           1312          39.00       144.29
 1064.55        2957.00           1316          46.00       174.80
 1064.58        2957.25           1319          46.00       174.80
 1064.61        2957.50           1322          55.00       214.04
 1064.65        2957.75           1326          49.00       187.88
 1064.68        2958.00           1329          50.00       192.24
 1064.71        2958.25           1332          42.00       157.37
 1064.74        2958.50           1336          44.00       166.09
 1064.77        2958.75           1339          42.00       157.37
 1064.80        2959.00           1342          48.00       183.52
 1064.83        2959.25           1346          53.00       205.32
 1064.86        2959.50           1349          54.00       209.68
 1064.89        2959.75           1352          66.00       261.99
 1064.92        2960.00           1356          85.00       344.82
 1064.96        2960.25           1359         125.00       519.19
 1064.99        2960.50           1362         170.00       715.36
 1065.02        2960.75           1366         219.00       928.97
 1065.05        2961.00           1369         261.00      1112.07
 1065.08        2961.25           1372         292.00      1247.21
 1065.11        2961.50           1376         383.00      1643.93
 1065.14        2961.75           1379         538.00      2319.69
 1065.17        2962.00           1382         993.00      4303.52
 1065.20        2962.25           1386        2527.00     10993.60
 1065.23        2962.50           1389        4072.00     17734.37
 1065.26        2962.75           1392        5562.00     24237.76
 1065.30        2963.00           1396        7937.00     34609.15
 1065.33        2963.25           1399        9580.00     41787.75
 1065.36        2963.50           1402       11162.00     48702.76
 1065.39        2963.75           1406       13524.00     59032.53
 1065.42        2964.00           1409       15270.00     66672.46
 1065.45        2964.25           1412       16871.00     73681.00
 1065.48        2964.50           1416       19221.00     83973.71
 1065.51        2964.75           1419       20859.00     91151.71
 1065.54        2965.00           1422       22431.00     98043.41
 1065.58        2965.25           1426       24555.00    107359.60
 1065.61        2965.50           1429       26324.00    115122.70
 1065.64        2965.75           1432       27943.00    122230.70
 1065.67        2966.00           1436       30316.00    132654.60
 1065.70        2966.25           1439       32062.00    140328.40
 1065.73        2966.50           1442       33417.00    146286.20
 1065.76        2966.75           1446       35121.00    153781.50
 1065.79        2967.00           1449       35678.00    156232.30
 1065.82        2967.25           1452       35764.00    156610.70
 1065.86        2967.50           1456       35863.00    157046.40
 1065.89        2967.75           1459       35682.00    156249.90
 1065.92        2968.00           1462       35332.00    154709.90
 1065.95        2968.25           1466       34606.00    151515.90
 1065.98        2968.50           1469       33357.00    146022.30
 1066.01        2968.75           1472       31884.00    139545.90
 1066.04        2969.00           1476       29469.00    128933.20
 1066.07        2969.25           1479       28068.00    122779.70
 1066.10        2969.50           1482       26411.00    115504.60
 1066.13        2969.75           1486       23925.00    104595.80
 1066.17        2970.00           1489       22407.00     97938.16
 1066.20        2970.25           1492       20803.00     90906.26
 1066.23        2970.50           1496       18588.00     81200.63
 1066.26        2970.75           1499       17045.00     74442.88
 1066.29        2971.00           1502       15472.00     67556.56
 1066.32        2971.25           1506       13221.00     57707.05
 1066.35        2971.50           1509       11451.00     49966.30
 1066.38        2971.75           1513        9172.00     40004.83
 1066.41        2972.00           1516        7559.00     32958.03
 1066.44        2972.25           1519        5762.00     25110.89
 1066.47        2972.50           1523        3668.00     15971.47
 1066.51        2972.75           1526        2261.00      9833.33
 1066.54        2973.00           1529        1107.00      4800.60
 1066.57        2973.25           1533         471.00      2027.59
 1066.60        2973.50           1536         347.00      1486.99
 1066.63        2973.75           1539         272.00      1160.02
 1066.66        2974.00           1543         236.00      1003.08
 1066.69        2974.25           1546         166.00       697.92
 1066.72        2974.50           1549         124.00       514.83
 1066.75        2974.75           1553          95.00       388.41
 1066.78        2975.00           1556          59.00       231.48
 1066.81        2975.25           1559          51.00       196.60
 1066.84        2975.50           1563          52.00       200.96
 1066.87        2975.75           1566          51.00       196.60
 1066.90        2976.00           1569          50.00       192.24
 1066.94        2976.25           1573          45.00       170.45
 1066.97        2976.50           1576          47.00       179.16
 1067.00        2976.75           1579          46.00       174.80
 1067.03        2977.00           1583          40.00       148.65
 1067.06        2977.25           1586          44.00       166.09
 1067.09        2977.50           1590          44.00       166.09
 1067.12        2977.75           1593          46.00       174.80
 1067.15        2978.00           1596          39.00       144.29
 1067.18        2978.25           1600          51.00       196.60
 1067.21        2978.50           1603          43.00       161.73
 1067.24        2978.75           1606          44.00       166.09
 1067.27        2979.00           1610          50.00       192.24
 1067.31        2979.25           1613          40.00       148.65
 1067.34        2979.50           1616          44.00       166.09
 1067.37        2979.75           1620          46.00       174.80
 1067.40        2980.00           1623          42.00       157.37
 1067.43        2980.25           1626          53.00       205.32
 1067.46        2980.50           1630          41.00       153.01
 1067.49        2980.75           1633          52.00       200.96
 1067.52        2981.00           1637          46.00       174.80
 1067.55        2981.25           1640          44.00       166.09
 1067.58        2981.50           1643          41.00       153.01
 1067.61        2981.75           1647          41.00       153.01
 1067.64        2982.00           1650          43.00       161.73
 1067.67        2982.25           1653          48.00       183.52
 1067.70        2982.50           1657          45.00       170.45
 1067.74        2982.75           1660          51.00       196.60
 1067.77        2983.00           1663          45.00       170.45
 1067.80        2983.25           1667          48.00       183.52
 1067.83        2983.50           1670          43.00       161.73
 1067.86        2983.75           1673          42.00       157.37
 1067.89        2984.00           1677          46.00       174.80
HS scan finished at 17:48:06
end
