************************************************************
  HS Scan of (1) Internal mercury lamp
************************************************************
Integration time is 0.2294 seconds per sample
dh010219Manchester 53.47 2.23 2.750537pr1000
************************************************************
Dead Time -------------------------  3E-08 
Number of Cycles Used -------------  4 
Starting Wavelength (Angstroms) ---  2950 
Final Wavelength (Angstoms) -------  2984 
Wavelength Increment (Angstroms) --  .25 
Filter Wheel #1 Position ---------- (1) Ground quartz diffuser (ND=2.32)
Filter Wheel #2 Position ---------- (1) Neutral Density 0.494



************************************************************
HS scan start time = 05:05:56
Dark Count =  4 


Time (GMT)  Wavelength (Ang)  Step Number  Raw Counts  Counts/Second

  306.31        2950.00           1222          55.00       222.32
  306.37        2950.25           1226          58.00       235.40
  306.41        2950.50           1229          60.00       244.12
  306.44        2950.75           1232          60.00       244.12
  306.47        2951.00           1236          57.00       231.04
  306.50        2951.25           1239          51.00       204.88
  306.53        2951.50           1242          52.00       209.24
  306.56        2951.75           1246          48.00       191.81
  306.59        2952.00           1249          48.00       191.81
  306.62        2952.25           1252          49.00       196.17
  306.65        2952.50           1256          61.00       248.48
  306.68        2952.75           1259          67.00       274.63
  306.71        2953.00           1262          54.00       217.96
  306.74        2953.25           1266          54.00       217.96
  306.77        2953.50           1269          54.00       217.96
  306.80        2953.75           1272          58.00       235.40
  306.83        2954.00           1276          55.00       222.32
  306.86        2954.25           1279          59.00       239.76
  306.89        2954.50           1282          49.00       196.17
  306.93        2954.75           1286          54.00       217.96
  306.96        2955.00           1289          55.00       222.32
  306.99        2955.25           1292          56.00       226.68
  307.02        2955.50           1296          59.00       239.76
  307.05        2955.75           1299          59.00       239.76
  307.08        2956.00           1302          62.00       252.84
  307.11        2956.25           1306          49.00       196.17
  307.14        2956.50           1309          48.00       191.81
  307.17        2956.75           1312          58.00       235.40
  307.20        2957.00           1316          63.00       257.19
  307.23        2957.25           1319          57.00       231.04
  307.27        2957.50           1322          62.00       252.84
  307.30        2957.75           1326          59.00       239.76
  307.33        2958.00           1329          56.00       226.68
  307.36        2958.25           1332          57.00       231.04
  307.39        2958.50           1336          46.00       183.09
  307.42        2958.75           1339          49.00       196.17
  307.45        2959.00           1342          58.00       235.40
  307.48        2959.25           1346          60.00       244.12
  307.51        2959.50           1349          59.00       239.76
  307.54        2959.75           1352          72.00       296.43
  307.57        2960.00           1356          94.00       392.33
  307.60        2960.25           1359         110.00       462.08
  307.63        2960.50           1362         136.00       575.42
  307.66        2960.75           1366         183.00       780.31
  307.70        2961.00           1369         216.00       924.18
  307.73        2961.25           1372         239.00      1024.44
  307.76        2961.50           1376         298.00      1281.65
  307.79        2961.75           1379         431.00      1861.48
  307.82        2962.00           1382         868.00      3766.77
  307.85        2962.25           1386        2130.00      9270.23
  307.88        2962.50           1389        3290.00     14330.48
  307.91        2962.75           1392        4406.00     19200.24
  307.94        2963.00           1396        5902.00     25730.41
  307.97        2963.25           1399        7111.00     31009.65
  308.00        2963.50           1402        8319.00     36286.21
  308.03        2963.75           1406        9844.00     42949.82
  308.07        2964.00           1409       11100.00     48440.00
  308.10        2964.25           1412       12470.00     54430.57
  308.13        2964.50           1416       14102.00     61569.60
  308.16        2964.75           1419       15370.00     67118.45
  308.19        2965.00           1422       16556.00     72310.13
  308.22        2965.25           1426       18166.00     79360.48
  308.25        2965.50           1429       19529.00     85331.51
  308.28        2965.75           1432       20532.00     89726.82
  308.32        2966.00           1436       22201.00     97043.22
  308.35        2966.25           1439       23293.00    101832.00
  308.38        2966.50           1442       24257.00    106060.60
  308.41        2966.75           1446       25509.00    111554.10
  308.44        2967.00           1449       25837.00    112993.50
  308.47        2967.25           1452       25890.00    113226.20
  308.50        2967.50           1456       25689.00    112344.00
  308.53        2967.75           1459       25922.00    113366.60
  308.57        2968.00           1462       25760.00    112655.60
  308.60        2968.25           1466       24826.00    108557.00
  308.63        2968.50           1469       23960.00    104757.70
  308.66        2968.75           1472       22979.00    100454.90
  308.69        2969.00           1476       21367.00     93386.82
  308.72        2969.25           1479       20256.00     88517.22
  308.75        2969.50           1482       19279.00     84236.15
  308.78        2969.75           1486       17579.00     76789.60
  308.81        2970.00           1489       16271.00     71062.41
  308.84        2970.25           1492       15219.00     66457.56
  308.88        2970.50           1496       13718.00     59889.55
  308.91        2970.75           1499       12506.00     54588.02
  308.94        2971.00           1502       11235.00     49030.22
  308.97        2971.25           1506        9491.00     41407.12
  309.00        2971.50           1509        8231.00     35901.77
  309.03        2971.75           1513        6895.00     30066.34
  309.06        2972.00           1516        5684.00     24778.66
  309.09        2972.25           1519        4530.00     19741.42
  309.12        2972.50           1523        3008.00     13100.18
  309.15        2972.75           1526        1922.00      8363.04
  309.18        2973.00           1529         892.00      3871.42
  309.21        2973.25           1533         344.00      1482.19
  309.25        2973.50           1536         247.00      1059.32
  309.28        2973.75           1539         230.00       985.21
  309.31        2974.00           1543         170.00       723.64
  309.34        2974.25           1546         121.00       510.03
  309.37        2974.50           1549         112.00       470.80
  309.40        2974.75           1553          72.00       296.43
  309.43        2975.00           1556          71.00       292.07
  309.46        2975.25           1559          59.00       239.76
  309.49        2975.50           1563          56.00       226.68
  309.52        2975.75           1566          49.00       196.17
  309.55        2976.00           1569          51.00       204.88
  309.58        2976.25           1573          48.00       191.81
  309.62        2976.50           1576          50.00       200.52
  309.65        2976.75           1579          60.00       244.12
  309.68        2977.00           1583          56.00       226.68
  309.71        2977.25           1586          62.00       252.84
  309.74        2977.50           1590          51.00       204.88
  309.77        2977.75           1593          60.00       244.12
  309.80        2978.00           1596          55.00       222.32
  309.83        2978.25           1600          49.00       196.17
  309.86        2978.50           1603          52.00       209.24
  309.89        2978.75           1606          53.00       213.60
  309.92        2979.00           1610          48.00       191.81
  309.95        2979.25           1613          50.00       200.52
  309.99        2979.50           1616          54.00       217.96
  310.02        2979.75           1620          54.00       217.96
  310.05        2980.00           1623          50.00       200.52
  310.08        2980.25           1626          54.00       217.96
  310.11        2980.50           1630          51.00       204.88
  310.14        2980.75           1633          49.00       196.17
  310.17        2981.00           1637          54.00       217.96
  310.20        2981.25           1640          49.00       196.17
  310.23        2981.50           1643          55.00       222.32
  310.26        2981.75           1647          46.00       183.09
  310.29        2982.00           1650          55.00       222.32
  310.32        2982.25           1653          45.00       178.73
  310.36        2982.50           1657          60.00       244.12
  310.39        2982.75           1660          51.00       204.88
  310.42        2983.00           1663          47.00       187.45
  310.45        2983.25           1667          50.00       200.52
  310.48        2983.50           1670          55.00       222.32
  310.51        2983.75           1673          42.00       165.65
  310.54        2984.00           1677          59.00       239.76
HS scan finished at 05:10:45
end
************************************************************
  HS Scan of (1) Internal mercury lamp
************************************************************
Integration time is 0.2294 seconds per sample
dh010219Manchester 53.47 2.23 2.750537pr1000
************************************************************
Dead Time -------------------------  3E-08 
Number of Cycles Used -------------  4 
Starting Wavelength (Angstroms) ---  2950 
Final Wavelength (Angstoms) -------  2984 
Wavelength Increment (Angstroms) --  .25 
Filter Wheel #1 Position ---------- (1) Ground quartz diffuser (ND=2.32)
Filter Wheel #2 Position ---------- (1) Neutral Density 0.494



************************************************************
HS scan start time = 17:42:19
Dark Count =  7.7 


Time (GMT)  Wavelength (Ang)  Step Number  Raw Counts  Counts/Second

 1062.68        2950.00           1222          60.00       227.99
 1062.75        2950.25           1226          53.00       197.47
 1062.78        2950.50           1229          54.00       201.83
 1062.81        2950.75           1232          53.00       197.47
 1062.84        2951.00           1236          55.00       206.19
 1062.87        2951.25           1239          57.00       214.91
 1062.90        2951.50           1242          62.00       236.71
 1062.93        2951.75           1246          52.00       193.11
 1062.96        2952.00           1249          59.00       223.63
 1062.99        2952.25           1252          54.00       201.83
 1063.02        2952.50           1256          49.00       180.04
 1063.06        2952.75           1259          55.00       206.19
 1063.09        2953.00           1262          60.00       227.99
 1063.12        2953.25           1266          56.00       210.55
 1063.15        2953.50           1269          54.00       201.83
 1063.18        2953.75           1272          55.00       206.19
 1063.21        2954.00           1276          53.00       197.47
 1063.24        2954.25           1279          56.00       210.55
 1063.27        2954.50           1282          55.00       206.19
 1063.30        2954.75           1286          53.00       197.47
 1063.33        2955.00           1289          62.00       236.71
 1063.37        2955.25           1292          55.00       206.19
 1063.40        2955.50           1296          49.00       180.04
 1063.43        2955.75           1299          53.00       197.47
 1063.46        2956.00           1302          51.00       188.75
 1063.49        2956.25           1306          53.00       197.47
 1063.52        2956.50           1309          52.00       193.11
 1063.55        2956.75           1312          50.00       184.40
 1063.58        2957.00           1316          59.00       223.63
 1063.61        2957.25           1319          63.00       241.07
 1063.64        2957.50           1322          54.00       201.83
 1063.67        2957.75           1326          55.00       206.19
 1063.71        2958.00           1329          53.00       197.47
 1063.74        2958.25           1332          55.00       206.19
 1063.77        2958.50           1336          50.00       184.40
 1063.80        2958.75           1339          52.00       193.11
 1063.83        2959.00           1342          61.00       232.35
 1063.86        2959.25           1346          49.00       180.04
 1063.89        2959.50           1349          63.00       241.07
 1063.92        2959.75           1352          70.00       271.58
 1063.95        2960.00           1356          86.00       341.33
 1063.99        2960.25           1359         116.00       472.11
 1064.02        2960.50           1362         140.00       576.73
 1064.05        2960.75           1366         171.00       711.87
 1064.08        2961.00           1369         201.00       842.65
 1064.11        2961.25           1372         236.00       995.23
 1064.14        2961.50           1376         295.00      1252.44
 1064.17        2961.75           1379         413.00      1766.88
 1064.20        2962.00           1382         843.00      3641.64
 1064.23        2962.25           1386        2168.00      9419.84
 1064.26        2962.50           1389        3233.00     14065.65
 1064.29        2962.75           1392        4336.00     18878.60
 1064.32        2963.00           1396        6033.00     26286.20
 1064.35        2963.25           1399        7203.00     31395.29
 1064.39        2963.50           1402        8558.00     37314.20
 1064.42        2963.75           1406       10055.00     43855.83
 1064.45        2964.00           1409       11239.00     49031.53
 1064.48        2964.25           1412       12697.00     55407.19
 1064.51        2964.50           1416       14251.00     62205.34
 1064.54        2964.75           1419       15297.00     66782.75
 1064.57        2965.00           1422       16429.00     71737.93
 1064.60        2965.25           1426       18159.00     79313.62
 1064.63        2965.50           1429       19275.00     84202.41
 1064.67        2965.75           1432       20682.00     90368.03
 1064.70        2966.00           1436       22046.00     96347.41
 1064.73        2966.25           1439       23183.00    101333.30
 1064.76        2966.50           1442       24386.00    106610.30
 1064.79        2966.75           1446       25313.00    110677.70
 1064.82        2967.00           1449       25647.00    112143.40
 1064.85        2967.25           1452       25788.00    112762.30
 1064.88        2967.50           1456       25852.00    113043.10
 1064.92        2967.75           1459       25662.00    112209.30
 1064.95        2968.00           1462       25619.00    112020.60
 1064.98        2968.25           1466       24825.00    108536.40
 1065.01        2968.50           1469       23785.00    103973.80
 1065.04        2968.75           1472       22680.00     99127.39
 1065.07        2969.00           1476       21105.00     92222.11
 1065.10        2969.25           1479       19823.00     86603.53
 1065.13        2969.50           1482       18747.00     81889.25
 1065.16        2969.75           1486       17115.00     74741.51
 1065.19        2970.00           1489       16014.00     69921.15
 1065.23        2970.25           1492       14838.00     64773.97
 1065.26        2970.50           1496       13303.00     58057.88
 1065.29        2970.75           1499       12091.00     52756.93
 1065.32        2971.00           1502       11058.00     48240.21
 1065.35        2971.25           1506        9531.00     41565.75
 1065.38        2971.50           1509        8253.00     35981.72
 1065.41        2971.75           1513        6627.00     28879.85
 1065.44        2972.00           1516        5445.00     23719.14
 1065.47        2972.25           1519        4288.00     18669.13
 1065.50        2972.50           1523        2790.00     12133.01
 1065.54        2972.75           1526        1705.00      7400.51
 1065.57        2973.00           1529         838.00      3619.84
 1065.60        2973.25           1533         358.00      1527.10
 1065.63        2973.50           1536         256.00      1082.42
 1065.66        2973.75           1539         220.00       925.48
 1065.69        2974.00           1543         193.00       807.78
 1065.72        2974.25           1546         149.00       615.97
 1065.75        2974.50           1549         119.00       485.19
 1065.78        2974.75           1553          81.00       319.53
 1065.82        2975.00           1556          63.00       241.07
 1065.85        2975.25           1559          63.00       241.07
 1065.88        2975.50           1563          61.00       232.35
 1065.91        2975.75           1566          55.00       206.19
 1065.94        2976.00           1569          50.00       184.40
 1065.97        2976.25           1573          52.00       193.11
 1066.00        2976.50           1576          47.00       171.32
 1066.03        2976.75           1579          44.00       158.24
 1066.06        2977.00           1583          52.00       193.11
 1066.10        2977.25           1586          54.00       201.83
 1066.13        2977.50           1590          54.00       201.83
 1066.16        2977.75           1593          53.00       197.47
 1066.19        2978.00           1596          46.00       166.96
 1066.22        2978.25           1600          50.00       184.40
 1066.25        2978.50           1603          54.00       201.83
 1066.28        2978.75           1606          55.00       206.19
 1066.31        2979.00           1610          45.00       162.60
 1066.34        2979.25           1613          51.00       188.75
 1066.37        2979.50           1616          52.00       193.11
 1066.40        2979.75           1620          51.00       188.75
 1066.43        2980.00           1623          44.00       158.24
 1066.47        2980.25           1626          49.00       180.04
 1066.50        2980.50           1630          50.00       184.40
 1066.53        2980.75           1633          50.00       184.40
 1066.56        2981.00           1637          59.00       223.63
 1066.59        2981.25           1640          48.00       175.68
 1066.62        2981.50           1643          46.00       166.96
 1066.65        2981.75           1647          51.00       188.75
 1066.68        2982.00           1650          51.00       188.75
 1066.71        2982.25           1653          49.00       180.04
 1066.74        2982.50           1657          44.00       158.24
 1066.77        2982.75           1660          47.00       171.32
 1066.81        2983.00           1663          53.00       197.47
 1066.84        2983.25           1667          50.00       184.40
 1066.87        2983.50           1670          51.00       188.75
 1066.90        2983.75           1673          50.00       184.40
 1066.93        2984.00           1677          54.00       201.83
HS scan finished at 17:47:09
end
