************************************************************
  HS Scan of (1) Internal mercury lamp
************************************************************
Integration time is 0.2294 seconds per sample
dh050219Manchester 53.47 2.23 2.750537pr1000
************************************************************
Dead Time -------------------------  3E-08 
Number of Cycles Used -------------  4 
Starting Wavelength (Angstroms) ---  2950 
Final Wavelength (Angstoms) -------  2984 
Wavelength Increment (Angstroms) --  .25 
Filter Wheel #1 Position ---------- (1) Ground quartz diffuser (ND=2.32)
Filter Wheel #2 Position ---------- (1) Neutral Density 0.494



************************************************************
HS scan start time = 04:59:54
Dark Count =  5.4 


Time (GMT)  Wavelength (Ang)  Step Number  Raw Counts  Counts/Second

  300.26        2950.00           1222          58.00       229.30
  300.33        2950.25           1226          55.00       216.22
  300.36        2950.50           1229          53.00       207.50
  300.39        2950.75           1232          52.00       203.14
  300.42        2951.00           1236          58.00       229.30
  300.45        2951.25           1239          59.00       233.65
  300.48        2951.50           1242          53.00       207.50
  300.51        2951.75           1246          51.00       198.78
  300.54        2952.00           1249          59.00       233.65
  300.58        2952.25           1252          50.00       194.42
  300.61        2952.50           1256          56.00       220.58
  300.64        2952.75           1259          60.00       238.01
  300.67        2953.00           1262          56.00       220.58
  300.70        2953.25           1266          54.00       211.86
  300.73        2953.50           1269          59.00       233.65
  300.76        2953.75           1272          49.00       190.06
  300.79        2954.00           1276          53.00       207.50
  300.82        2954.25           1279          54.00       211.86
  300.86        2954.50           1282          60.00       238.01
  300.89        2954.75           1286          55.00       216.22
  300.92        2955.00           1289          52.00       203.14
  300.95        2955.25           1292          57.00       224.94
  300.98        2955.50           1296          53.00       207.50
  301.01        2955.75           1299          50.00       194.42
  301.04        2956.00           1302          55.00       216.22
  301.07        2956.25           1306          52.00       203.14
  301.10        2956.50           1309          65.00       259.81
  301.13        2956.75           1312          50.00       194.42
  301.17        2957.00           1316          53.00       207.50
  301.20        2957.25           1319          58.00       229.30
  301.23        2957.50           1322          56.00       220.58
  301.26        2957.75           1326          52.00       203.14
  301.29        2958.00           1329          56.00       220.58
  301.32        2958.25           1332          50.00       194.42
  301.35        2958.50           1336          54.00       211.86
  301.38        2958.75           1339          56.00       220.58
  301.41        2959.00           1342          56.00       220.58
  301.44        2959.25           1346          61.00       242.37
  301.48        2959.50           1349          55.00       216.22
  301.51        2959.75           1352          60.00       238.01
  301.54        2960.00           1356          89.00       364.43
  301.57        2960.25           1359         105.00       434.18
  301.60        2960.50           1362         128.00       534.45
  301.63        2960.75           1366         170.00       717.54
  301.66        2961.00           1369         204.00       865.76
  301.69        2961.25           1372         211.00       896.28
  301.72        2961.50           1376         269.00      1149.12
  301.75        2961.75           1379         386.00      1659.19
  301.79        2962.00           1382         816.00      3533.94
  301.82        2962.25           1386        2024.00      8801.80
  301.85        2962.50           1389        3184.00     13861.91
  301.88        2962.75           1392        4355.00     18971.56
  301.91        2963.00           1396        5910.00     25759.22
  301.94        2963.25           1399        7042.00     30702.20
  301.97        2963.50           1402        8251.00     35983.02
  302.00        2963.75           1406        9807.00     42781.99
  302.03        2964.00           1409       11145.00     48630.62
  302.07        2964.25           1412       12530.00     54686.86
  302.10        2964.50           1416       13936.00     60837.18
  302.13        2964.75           1419       15241.00     66547.72
  302.16        2965.00           1422       16380.00     71533.47
  302.19        2965.25           1426       18022.00     78723.63
  302.22        2965.50           1429       19038.00     83174.15
  302.25        2965.75           1432       20427.00     89260.50
  302.28        2966.00           1436       22089.00     96546.02
  302.31        2966.25           1439       23077.00    100878.50
  302.35        2966.50           1442       24090.00    105321.80
  302.38        2966.75           1446       25358.00    110885.30
  302.41        2967.00           1449       25646.00    112149.10
  302.44        2967.25           1452       25590.00    111903.40
  302.47        2967.50           1456       25767.00    112680.20
  302.50        2967.75           1459       25753.00    112618.70
  302.53        2968.00           1462       25656.00    112193.00
  302.56        2968.25           1466       24933.00    109020.30
  302.59        2968.50           1469       23902.00    104497.10
  302.63        2968.75           1472       22927.00    100220.70
  302.66        2969.00           1476       21489.00     93915.50
  302.69        2969.25           1479       20240.00     88440.96
  302.72        2969.50           1482       18948.00     82779.86
  302.75        2969.75           1486       17311.00     75609.85
  302.78        2970.00           1489       16247.00     70951.21
  302.81        2970.25           1492       15231.00     66503.96
  302.84        2970.50           1496       13539.00     59100.33
  302.88        2970.75           1499       12316.00     53750.95
  302.91        2971.00           1502       11264.00     49150.89
  302.94        2971.25           1506        9628.00     41999.70
  302.97        2971.50           1509        8568.00     37367.93
  303.00        2971.75           1513        6957.00     30330.99
  303.03        2972.00           1516        5828.00     25401.22
  303.06        2972.25           1519        4666.00     20328.87
  303.09        2972.50           1523        3111.00     13543.43
  303.13        2972.75           1526        1962.00      8531.39
  303.16        2973.00           1529         982.00      4257.74
  303.19        2973.25           1533         406.00      1746.39
  303.22        2973.50           1536         290.00      1240.67
  303.25        2973.75           1539         241.00      1027.06
  303.28        2974.00           1543         212.00       900.63
  303.31        2974.25           1546         176.00       743.70
  303.34        2974.50           1549         141.00       591.12
  303.37        2974.75           1553          91.00       373.15
  303.40        2975.00           1556          76.00       307.76
  303.44        2975.25           1559          56.00       220.58
  303.47        2975.50           1563          61.00       242.37
  303.50        2975.75           1566          47.00       181.34
  303.53        2976.00           1569          50.00       194.42
  303.56        2976.25           1573          58.00       229.30
  303.59        2976.50           1576          50.00       194.42
  303.62        2976.75           1579          49.00       190.06
  303.65        2977.00           1583          50.00       194.42
  303.69        2977.25           1586          53.00       207.50
  303.72        2977.50           1590          56.00       220.58
  303.75        2977.75           1593          49.00       190.06
  303.78        2978.00           1596          49.00       190.06
  303.81        2978.25           1600          50.00       194.42
  303.84        2978.50           1603          59.00       233.65
  303.87        2978.75           1606          47.00       181.34
  303.90        2979.00           1610          58.00       229.30
  303.94        2979.25           1613          60.00       238.01
  303.97        2979.50           1616          55.00       216.22
  304.00        2979.75           1620          48.00       185.70
  304.03        2980.00           1623          49.00       190.06
  304.06        2980.25           1626          55.00       216.22
  304.09        2980.50           1630          45.00       172.63
  304.12        2980.75           1633          47.00       181.34
  304.15        2981.00           1637          47.00       181.34
  304.18        2981.25           1640          47.00       181.34
  304.21        2981.50           1643          46.00       176.98
  304.25        2981.75           1647          45.00       172.63
  304.28        2982.00           1650          43.00       163.91
  304.31        2982.25           1653          48.00       185.70
  304.34        2982.50           1657          45.00       172.63
  304.37        2982.75           1660          50.00       194.42
  304.40        2983.00           1663          49.00       190.06
  304.43        2983.25           1667          47.00       181.34
  304.46        2983.50           1670          50.00       194.42
  304.49        2983.75           1673          47.00       181.34
  304.52        2984.00           1677          47.00       181.34
HS scan finished at 05:04:44
end
************************************************************
  HS Scan of (1) Internal mercury lamp
************************************************************
Integration time is 0.2294 seconds per sample
dh050219Manchester 53.47 2.23 2.804185pr1000
************************************************************
Dead Time -------------------------  3E-08 
Number of Cycles Used -------------  4 
Starting Wavelength (Angstroms) ---  2950 
Final Wavelength (Angstoms) -------  2984 
Wavelength Increment (Angstroms) --  .25 
Filter Wheel #1 Position ---------- (1) Ground quartz diffuser (ND=2.32)
Filter Wheel #2 Position ---------- (1) Neutral Density 0.494



************************************************************
HS scan start time = 18:12:17
Dark Count =  6.5 


Time (GMT)  Wavelength (Ang)  Step Number  Raw Counts  Counts/Second

 1092.66        2950.00           1222          53.00       202.70
 1092.73        2950.25           1226          52.00       198.34
 1092.76        2950.50           1229          54.00       207.06
 1092.79        2950.75           1232          54.00       207.06
 1092.82        2951.00           1236          50.00       189.63
 1092.85        2951.25           1239          54.00       207.06
 1092.88        2951.50           1242          55.00       211.42
 1092.91        2951.75           1246          57.00       220.14
 1092.94        2952.00           1249          57.00       220.14
 1092.98        2952.25           1252          49.00       185.27
 1093.01        2952.50           1256          54.00       207.06
 1093.04        2952.75           1259          62.00       241.94
 1093.07        2953.00           1262          61.00       237.58
 1093.10        2953.25           1266          53.00       202.70
 1093.13        2953.50           1269          58.00       224.50
 1093.16        2953.75           1272          53.00       202.70
 1093.19        2954.00           1276          52.00       198.34
 1093.22        2954.25           1279          51.00       193.99
 1093.25        2954.50           1282          50.00       189.63
 1093.28        2954.75           1286          52.00       198.34
 1093.31        2955.00           1289          61.00       237.58
 1093.35        2955.25           1292          54.00       207.06
 1093.38        2955.50           1296          50.00       189.63
 1093.41        2955.75           1299          61.00       237.58
 1093.44        2956.00           1302          60.00       233.22
 1093.47        2956.25           1306          55.00       211.42
 1093.50        2956.50           1309          49.00       185.27
 1093.53        2956.75           1312          54.00       207.06
 1093.56        2957.00           1316          61.00       237.58
 1093.59        2957.25           1319          64.00       250.66
 1093.62        2957.50           1322          52.00       198.34
 1093.65        2957.75           1326          60.00       233.22
 1093.68        2958.00           1329          49.00       185.27
 1093.72        2958.25           1332          50.00       189.63
 1093.75        2958.50           1336          49.00       185.27
 1093.78        2958.75           1339          54.00       207.06
 1093.81        2959.00           1342          60.00       233.22
 1093.84        2959.25           1346          58.00       224.50
 1093.87        2959.50           1349          63.00       246.30
 1093.90        2959.75           1352          66.00       259.37
 1093.93        2960.00           1356          94.00       381.43
 1093.96        2960.25           1359         108.00       442.46
 1093.99        2960.50           1362         131.00       542.73
 1094.03        2960.75           1366         173.00       725.82
 1094.06        2961.00           1369         203.00       856.60
 1094.09        2961.25           1372         233.00       987.39
 1094.12        2961.50           1376         321.00      1371.02
 1094.15        2961.75           1379         458.00      1968.29
 1094.18        2962.00           1382        1014.00      4392.47
 1094.21        2962.25           1386        2357.00     10249.45
 1094.24        2962.50           1389        3541.00     15414.71
 1094.27        2962.75           1392        4662.00     20306.61
 1094.30        2963.00           1396        6262.00     27291.30
 1094.34        2963.25           1399        7425.00     32370.13
 1094.37        2963.50           1402        8742.00     38123.35
 1094.40        2963.75           1406       10255.00     44735.24
 1094.43        2964.00           1409       11528.00     50300.35
 1094.46        2964.25           1412       12801.00     55867.32
 1094.49        2964.50           1416       14443.00     63050.71
 1094.52        2964.75           1419       15599.00     68109.82
 1094.55        2965.00           1422       16838.00     73533.88
 1094.58        2965.25           1426       18263.00     79774.38
 1094.62        2965.50           1429       19490.00     85149.68
 1094.65        2965.75           1432       20880.00     91241.12
 1094.68        2966.00           1436       22602.00     98790.61
 1094.71        2966.25           1439       23694.00    103579.90
 1094.74        2966.50           1442       24655.00    107795.70
 1094.77        2966.75           1446       25528.00    111626.50
 1094.80        2967.00           1449       25617.00    112017.00
 1094.83        2967.25           1452       25759.00    112640.20
 1094.86        2967.50           1456       25839.00    112991.40
 1094.90        2967.75           1459       25601.00    111946.80
 1094.93        2968.00           1462       25349.00    110840.90
 1094.96        2968.25           1466       24459.00    106935.80
 1094.99        2968.50           1469       23331.00    101987.70
 1095.02        2968.75           1472       22236.00     97185.72
 1095.05        2969.00           1476       20645.00     90211.12
 1095.08        2969.25           1479       19524.00     85298.65
 1095.11        2969.50           1482       18273.00     79818.19
 1095.14        2969.75           1486       16680.00     72842.09
 1095.18        2970.00           1489       15464.00     67518.93
 1095.21        2970.25           1492       14445.00     63059.46
 1095.24        2970.50           1496       12837.00     56024.78
 1095.27        2970.75           1499       11772.00     51367.24
 1095.30        2971.00           1502       10629.00     46370.05
 1095.33        2971.25           1506        9099.00     39683.22
 1095.36        2971.50           1509        7807.00     34038.67
 1095.39        2971.75           1513        6102.00     26592.70
 1095.42        2972.00           1516        4920.00     21432.70
 1095.45        2972.25           1519        3760.00     16370.29
 1095.49        2972.50           1523        2194.00      9538.48
 1095.52        2972.75           1526        1231.00      5338.69
 1095.55        2973.00           1529         588.00      2535.07
 1095.58        2973.25           1533         329.00      1405.90
 1095.61        2973.50           1536         253.00      1074.58
 1095.64        2973.75           1539         240.00      1017.90
 1095.67        2974.00           1543         195.00       821.73
 1095.70        2974.25           1546         158.00       660.43
 1095.73        2974.50           1549         126.00       520.93
 1095.76        2974.75           1553          86.00       346.56
 1095.80        2975.00           1556          73.00       289.89
 1095.83        2975.25           1559          86.00       346.56
 1095.86        2975.50           1563          51.00       193.99
 1095.89        2975.75           1566          50.00       189.63
 1095.92        2976.00           1569          53.00       202.70
 1095.95        2976.25           1573          51.00       193.99
 1095.98        2976.50           1576          49.00       185.27
 1096.01        2976.75           1579          60.00       233.22
 1096.04        2977.00           1583          57.00       220.14
 1096.07        2977.25           1586          50.00       189.63
 1096.10        2977.50           1590          54.00       207.06
 1096.13        2977.75           1593          51.00       193.99
 1096.17        2978.00           1596          49.00       185.27
 1096.20        2978.25           1600          53.00       202.70
 1096.23        2978.50           1603          49.00       185.27
 1096.26        2978.75           1606          53.00       202.70
 1096.29        2979.00           1610          61.00       237.58
 1096.32        2979.25           1613          54.00       207.06
 1096.35        2979.50           1616          52.00       198.34
 1096.38        2979.75           1620          58.00       224.50
 1096.41        2980.00           1623          46.00       172.19
 1096.44        2980.25           1626          58.00       224.50
 1096.47        2980.50           1630          47.00       176.55
 1096.51        2980.75           1633          54.00       207.06
 1096.54        2981.00           1637          53.00       202.70
 1096.57        2981.25           1640          54.00       207.06
 1096.60        2981.50           1643          53.00       202.70
 1096.63        2981.75           1647          43.00       159.11
 1096.66        2982.00           1650          51.00       193.99
 1096.69        2982.25           1653          51.00       193.99
 1096.72        2982.50           1657          52.00       198.34
 1096.75        2982.75           1660          44.00       163.47
 1096.79        2983.00           1663          47.00       176.55
 1096.82        2983.25           1667          52.00       198.34
 1096.85        2983.50           1670          49.00       185.27
 1096.88        2983.75           1673          50.00       189.63
 1096.91        2984.00           1677          47.00       176.55
HS scan finished at 18:17:07
end
