************************************************************
  HS Scan of (1) Internal mercury lamp
************************************************************
Integration time is 0.2294 seconds per sample
dh030219Manchester 53.47 2.23 2.750537pr1000
************************************************************
Dead Time -------------------------  3E-08 
Number of Cycles Used -------------  4 
Starting Wavelength (Angstroms) ---  2950 
Final Wavelength (Angstoms) -------  2984 
Wavelength Increment (Angstroms) --  .25 
Filter Wheel #1 Position ---------- (1) Ground quartz diffuser (ND=2.32)
Filter Wheel #2 Position ---------- (1) Neutral Density 0.494



************************************************************
HS scan start time = 05:03:03
Dark Count =  7.1 


Time (GMT)  Wavelength (Ang)  Step Number  Raw Counts  Counts/Second

  303.41        2950.00           1222          60.00       230.60
  303.48        2950.25           1226          54.00       204.45
  303.51        2950.50           1229          59.00       226.24
  303.54        2950.75           1232          59.00       226.24
  303.57        2951.00           1236          55.00       208.81
  303.60        2951.25           1239          59.00       226.24
  303.63        2951.50           1242          53.00       200.09
  303.66        2951.75           1246          50.00       187.01
  303.69        2952.00           1249          56.00       213.17
  303.73        2952.25           1252          60.00       230.60
  303.76        2952.50           1256          46.00       169.57
  303.79        2952.75           1259          60.00       230.60
  303.82        2953.00           1262          59.00       226.24
  303.85        2953.25           1266          51.00       191.37
  303.88        2953.50           1269          51.00       191.37
  303.91        2953.75           1272          55.00       208.81
  303.94        2954.00           1276          56.00       213.17
  303.97        2954.25           1279          55.00       208.81
  304.00        2954.50           1282          56.00       213.17
  304.03        2954.75           1286          57.00       217.53
  304.06        2955.00           1289          55.00       208.81
  304.09        2955.25           1292          57.00       217.53
  304.12        2955.50           1296          59.00       226.24
  304.16        2955.75           1299          54.00       204.45
  304.19        2956.00           1302          61.00       234.96
  304.22        2956.25           1306          62.00       239.32
  304.25        2956.50           1309          58.00       221.88
  304.28        2956.75           1312          52.00       195.73
  304.31        2957.00           1316          53.00       200.09
  304.34        2957.25           1319          52.00       195.73
  304.37        2957.50           1322          60.00       230.60
  304.40        2957.75           1326          52.00       195.73
  304.43        2958.00           1329          56.00       213.17
  304.46        2958.25           1332          56.00       213.17
  304.49        2958.50           1336          58.00       221.88
  304.53        2958.75           1339          52.00       195.73
  304.56        2959.00           1342          53.00       200.09
  304.59        2959.25           1346          54.00       204.45
  304.62        2959.50           1349          54.00       204.45
  304.65        2959.75           1352          62.00       239.32
  304.68        2960.00           1356          74.00       291.63
  304.71        2960.25           1359         104.00       422.41
  304.74        2960.50           1362         127.00       522.68
  304.77        2960.75           1366         174.00       727.57
  304.80        2961.00           1369         193.00       810.39
  304.83        2961.25           1372         230.00       971.69
  304.87        2961.50           1376         264.00      1119.92
  304.90        2961.75           1379         336.00      1433.80
  304.93        2962.00           1382         712.00      3073.08
  304.96        2962.25           1386        1906.00      8279.74
  304.99        2962.50           1389        2956.00     12859.80
  305.02        2962.75           1392        4171.00     18161.16
  305.05        2963.00           1396        5635.00     24551.21
  305.08        2963.25           1399        6767.00     29493.83
  305.11        2963.50           1402        8056.00     35123.74
  305.14        2963.75           1406        9746.00     42507.97
  305.17        2964.00           1409       10841.00     47294.17
  305.20        2964.25           1412       12131.00     52934.48
  305.23        2964.50           1416       13793.00     60204.11
  305.26        2964.75           1419       15039.00     65656.23
  305.30        2965.00           1422       16278.00     71079.49
  305.33        2965.25           1426       17802.00     77752.65
  305.36        2965.50           1429       18973.00     82881.95
  305.39        2965.75           1432       20135.00     87973.37
  305.42        2966.00           1436       21545.00     94153.55
  305.45        2966.25           1439       22924.00    100200.10
  305.48        2966.50           1442       23923.00    104581.80
  305.51        2966.75           1446       25317.00    110697.90
  305.54        2967.00           1449       25541.00    111680.90
  305.58        2967.25           1452       25661.00    112207.50
  305.61        2967.50           1456       25548.00    111711.60
  305.64        2967.75           1459       25649.00    112154.90
  305.67        2968.00           1462       25533.00    111645.80
  305.70        2968.25           1466       24963.00    109144.50
  305.73        2968.50           1469       24172.00    105674.10
  305.76        2968.75           1472       23193.00    101379.80
  305.79        2969.00           1476       21503.00     93969.42
  305.82        2969.25           1479       20556.00     89818.42
  305.85        2969.50           1482       19244.00     84069.22
  305.89        2969.75           1486       17674.00     77192.07
  305.92        2970.00           1489       16468.00     71911.30
  305.95        2970.25           1492       15311.00     66846.65
  305.98        2970.50           1496       13674.00     59683.49
  306.01        2970.75           1499       12564.00     54828.13
  306.04        2971.00           1502       11373.00     49620.03
  306.07        2971.25           1506        9829.00     42870.71
  306.10        2971.50           1509        8684.00     37867.32
  306.13        2971.75           1513        7242.00     31568.24
  306.17        2972.00           1516        6092.00     26546.42
  306.20        2972.25           1519        4860.00     21168.19
  306.23        2972.50           1523        3256.00     14168.62
  306.26        2972.75           1526        2161.00      9391.92
  306.29        2973.00           1529        1064.00      4607.87
  306.32        2973.25           1533         445.00      1909.00
  306.35        2973.50           1536         292.00      1241.98
  306.38        2973.75           1539         236.00       997.85
  306.42        2974.00           1543         226.00       954.26
  306.45        2974.25           1546         172.00       718.85
  306.48        2974.50           1549         134.00       553.19
  306.51        2974.75           1553         100.00       404.97
  306.54        2975.00           1556          75.00       295.99
  306.57        2975.25           1559          75.00       295.99
  306.60        2975.50           1563          54.00       204.45
  306.63        2975.75           1566          55.00       208.81
  306.66        2976.00           1569          52.00       195.73
  306.69        2976.25           1573          52.00       195.73
  306.72        2976.50           1576          47.00       173.93
  306.75        2976.75           1579          49.00       182.65
  306.78        2977.00           1583          53.00       200.09
  306.82        2977.25           1586          54.00       204.45
  306.85        2977.50           1590          51.00       191.37
  306.88        2977.75           1593          53.00       200.09
  306.91        2978.00           1596          51.00       191.37
  306.94        2978.25           1600          55.00       208.81
  306.97        2978.50           1603          47.00       173.93
  307.00        2978.75           1606          49.00       182.65
  307.03        2979.00           1610          53.00       200.09
  307.06        2979.25           1613          53.00       200.09
  307.09        2979.50           1616          53.00       200.09
  307.12        2979.75           1620          42.00       152.14
  307.16        2980.00           1623          54.00       204.45
  307.19        2980.25           1626          51.00       191.37
  307.22        2980.50           1630          54.00       204.45
  307.25        2980.75           1633          48.00       178.29
  307.28        2981.00           1637          48.00       178.29
  307.31        2981.25           1640          54.00       204.45
  307.34        2981.50           1643          46.00       169.57
  307.37        2981.75           1647          52.00       195.73
  307.40        2982.00           1650          53.00       200.09
  307.43        2982.25           1653          59.00       226.24
  307.47        2982.50           1657          45.00       165.21
  307.50        2982.75           1660          43.00       156.50
  307.53        2983.00           1663          49.00       182.65
  307.56        2983.25           1667          52.00       195.73
  307.59        2983.50           1670          47.00       173.93
  307.62        2983.75           1673          54.00       204.45
  307.65        2984.00           1677          56.00       213.17
HS scan finished at 05:07:52
end
************************************************************
  HS Scan of (1) Internal mercury lamp
************************************************************
Integration time is 0.2294 seconds per sample
dh030219Manchester 53.47 2.23 2.804185pr1000
************************************************************
Dead Time -------------------------  3E-08 
Number of Cycles Used -------------  4 
Starting Wavelength (Angstroms) ---  2950 
Final Wavelength (Angstoms) -------  2984 
Wavelength Increment (Angstroms) --  .25 
Filter Wheel #1 Position ---------- (1) Ground quartz diffuser (ND=2.32)
Filter Wheel #2 Position ---------- (1) Neutral Density 0.494



************************************************************
HS scan start time = 17:42:17
Dark Count =  7.9 


Time (GMT)  Wavelength (Ang)  Step Number  Raw Counts  Counts/Second

 1062.65        2950.00           1222          60.00       227.12
 1062.72        2950.25           1226          52.00       192.24
 1062.75        2950.50           1229          66.00       253.27
 1062.78        2950.75           1232          58.00       218.40
 1062.81        2951.00           1236          57.00       214.04
 1062.85        2951.25           1239          61.00       231.48
 1062.88        2951.50           1242          58.00       218.40
 1062.91        2951.75           1246          49.00       179.16
 1062.94        2952.00           1249          57.00       214.04
 1062.97        2952.25           1252          54.00       200.96
 1063.00        2952.50           1256          57.00       214.04
 1063.03        2952.75           1259          58.00       218.40
 1063.06        2953.00           1262          58.00       218.40
 1063.09        2953.25           1266          50.00       183.52
 1063.12        2953.50           1269          56.00       209.68
 1063.15        2953.75           1272          55.00       205.32
 1063.18        2954.00           1276          57.00       214.04
 1063.21        2954.25           1279          67.00       257.63
 1063.25        2954.50           1282          53.00       196.60
 1063.28        2954.75           1286          56.00       209.68
 1063.31        2955.00           1289          50.00       183.52
 1063.34        2955.25           1292          49.00       179.16
 1063.37        2955.50           1296          60.00       227.12
 1063.40        2955.75           1299          59.00       222.76
 1063.43        2956.00           1302          48.00       174.80
 1063.46        2956.25           1306          52.00       192.24
 1063.49        2956.50           1309          60.00       227.12
 1063.52        2956.75           1312          52.00       192.24
 1063.56        2957.00           1316          49.00       179.16
 1063.59        2957.25           1319          56.00       209.68
 1063.62        2957.50           1322          53.00       196.60
 1063.65        2957.75           1326          56.00       209.68
 1063.68        2958.00           1329          47.00       170.45
 1063.71        2958.25           1332          54.00       200.96
 1063.74        2958.50           1336          61.00       231.48
 1063.77        2958.75           1339          49.00       179.16
 1063.80        2959.00           1342          55.00       205.32
 1063.83        2959.25           1346          62.00       235.83
 1063.87        2959.50           1349          66.00       253.27
 1063.90        2959.75           1352          59.00       222.76
 1063.93        2960.00           1356          83.00       327.38
 1063.96        2960.25           1359         116.00       471.24
 1063.99        2960.50           1362         131.00       536.63
 1064.02        2960.75           1366         181.00       754.59
 1064.05        2961.00           1369         203.00       850.50
 1064.08        2961.25           1372         239.00      1007.44
 1064.12        2961.50           1376         281.00      1190.54
 1064.15        2961.75           1379         392.00      1674.45
 1064.18        2962.00           1382         736.00      3174.23
 1064.21        2962.25           1386        1958.00      8503.04
 1064.24        2962.50           1389        3085.00     13419.09
 1064.27        2962.75           1392        4223.00     18384.59
 1064.30        2963.00           1396        5869.00     25569.30
 1064.33        2963.25           1399        7002.00     30516.59
 1064.36        2963.50           1402        8191.00     35709.99
 1064.40        2963.75           1406        9735.00     42456.39
 1064.43        2964.00           1409       10945.00     47745.33
 1064.46        2964.25           1412       12099.00     52791.04
 1064.49        2964.50           1416       13674.00     59679.99
 1064.52        2964.75           1419       14891.00     65005.03
 1064.55        2965.00           1422       16079.00     70204.81
 1064.58        2965.25           1426       17656.00     77109.74
 1064.61        2965.50           1429       18674.00     81568.60
 1064.64        2965.75           1432       20157.00     88066.28
 1064.68        2966.00           1436       21611.00     94439.37
 1064.71        2966.25           1439       22781.00     99569.43
 1064.74        2966.50           1442       23916.00    104547.50
 1064.77        2966.75           1446       25164.00    110023.00
 1064.80        2967.00           1449       25506.00    111523.80
 1064.83        2967.25           1452       25580.00    111848.50
 1064.86        2967.50           1456       25324.00    110725.10
 1064.89        2967.75           1459       25691.00    112335.70
 1064.93        2968.00           1462       25643.00    112125.00
 1064.96        2968.25           1466       24907.00    108895.30
 1064.99        2968.50           1469       23903.00    104490.50
 1065.02        2968.75           1472       22627.00     98894.09
 1065.05        2969.00           1476       21269.00     92940.12
 1065.08        2969.25           1479       20026.00     87492.21
 1065.11        2969.50           1482       18953.00     82790.81
 1065.14        2969.75           1486       17511.00     76474.74
 1065.17        2970.00           1489       16232.00     70874.60
 1065.20        2970.25           1492       15100.00     65919.69
 1065.24        2970.50           1496       13609.00     59395.63
 1065.27        2970.75           1499       12488.00     54492.24
 1065.30        2971.00           1502       11232.00     49000.05
 1065.33        2971.25           1506        9518.00     41508.06
 1065.36        2971.50           1509        8401.00     36627.41
 1065.39        2971.75           1513        6888.00     30018.74
 1065.42        2972.00           1516        5732.00     24971.19
 1065.45        2972.25           1519        4518.00     19672.03
 1065.49        2972.50           1523        2854.00     12411.33
 1065.52        2972.75           1526        1770.00      7683.11
 1065.55        2973.00           1529         840.00      3627.68
 1065.58        2973.25           1533         374.00      1595.98
 1065.61        2973.50           1536         271.00      1146.94
 1065.64        2973.75           1539         209.00       876.66
 1065.67        2974.00           1543         187.00       780.75
 1065.70        2974.25           1546         156.00       645.61
 1065.73        2974.50           1549         129.00       527.91
 1065.76        2974.75           1553          95.00       379.69
 1065.79        2975.00           1556          75.00       292.50
 1065.83        2975.25           1559          61.00       231.48
 1065.86        2975.50           1563          56.00       209.68
 1065.89        2975.75           1566          53.00       196.60
 1065.92        2976.00           1569          60.00       227.12
 1065.95        2976.25           1573          53.00       196.60
 1065.98        2976.50           1576          49.00       179.16
 1066.01        2976.75           1579          49.00       179.16
 1066.04        2977.00           1583          42.00       148.65
 1066.07        2977.25           1586          52.00       192.24
 1066.11        2977.50           1590          48.00       174.80
 1066.14        2977.75           1593          45.00       161.73
 1066.17        2978.00           1596          57.00       214.04
 1066.20        2978.25           1600          58.00       218.40
 1066.23        2978.50           1603          55.00       205.32
 1066.26        2978.75           1606          50.00       183.52
 1066.29        2979.00           1610          53.00       196.60
 1066.32        2979.25           1613          55.00       205.32
 1066.35        2979.50           1616          54.00       200.96
 1066.38        2979.75           1620          51.00       187.88
 1066.41        2980.00           1623          49.00       179.16
 1066.44        2980.25           1626          54.00       200.96
 1066.48        2980.50           1630          46.00       166.09
 1066.51        2980.75           1633          49.00       179.16
 1066.54        2981.00           1637          44.00       157.37
 1066.57        2981.25           1640          44.00       157.37
 1066.60        2981.50           1643          48.00       174.80
 1066.63        2981.75           1647          59.00       222.76
 1066.66        2982.00           1650          44.00       157.37
 1066.69        2982.25           1653          43.00       153.01
 1066.72        2982.50           1657          48.00       174.80
 1066.76        2982.75           1660          54.00       200.96
 1066.79        2983.00           1663          50.00       183.52
 1066.82        2983.25           1667          53.00       196.60
 1066.85        2983.50           1670          48.00       174.80
 1066.88        2983.75           1673          47.00       170.45
 1066.91        2984.00           1677          49.00       179.16
HS scan finished at 17:47:08
end
