************************************************************
  HS Scan of (1) Internal mercury lamp
************************************************************
Integration time is 0.2294 seconds per sample
dh010217Manchester 53.47 2.23 2.804185pr1000
************************************************************
Dead Time -------------------------  3E-08 
Number of Cycles Used -------------  4 
Starting Wavelength (Angstroms) ---  2950 
Final Wavelength (Angstoms) -------  2984 
Wavelength Increment (Angstroms) --  .25 
Filter Wheel #1 Position ---------- (1) Ground quartz diffuser (ND=2.32)
Filter Wheel #2 Position ---------- (1) Neutral Density 0.494



************************************************************
HS scan start time = 05:05:07
Dark Count =  7.2 


Time (GMT)  Wavelength (Ang)  Step Number  Raw Counts  Counts/Second

  305.48        2950.00           1222          52.00       195.29
  305.55        2950.25           1226          40.00       142.98
  305.58        2950.50           1229          44.00       160.42
  305.61        2950.75           1232          49.00       182.22
  305.64        2951.00           1236          37.00       129.90
  305.67        2951.25           1239          38.00       134.26
  305.70        2951.50           1242          43.00       156.06
  305.73        2951.75           1246          45.00       164.78
  305.76        2952.00           1249          48.00       177.86
  305.79        2952.25           1252          40.00       142.98
  305.82        2952.50           1256          48.00       177.86
  305.86        2952.75           1259          44.00       160.42
  305.89        2953.00           1262          52.00       195.29
  305.92        2953.25           1266          45.00       164.78
  305.95        2953.50           1269          52.00       195.29
  305.98        2953.75           1272          47.00       173.50
  306.01        2954.00           1276          42.00       151.70
  306.04        2954.25           1279          49.00       182.22
  306.07        2954.50           1282          47.00       173.50
  306.10        2954.75           1286          55.00       208.37
  306.13        2955.00           1289          45.00       164.78
  306.16        2955.25           1292          59.00       225.81
  306.19        2955.50           1296          44.00       160.42
  306.22        2955.75           1299          38.00       134.26
  306.25        2956.00           1302          42.00       151.70
  306.28        2956.25           1306          48.00       177.86
  306.32        2956.50           1309          40.00       142.98
  306.35        2956.75           1312          51.00       190.93
  306.38        2957.00           1316          43.00       156.06
  306.41        2957.25           1319          41.00       147.34
  306.44        2957.50           1322          42.00       151.70
  306.47        2957.75           1326          41.00       147.34
  306.50        2958.00           1329          46.00       169.14
  306.53        2958.25           1332          51.00       190.93
  306.56        2958.50           1336          42.00       151.70
  306.59        2958.75           1339          55.00       208.37
  306.63        2959.00           1342          47.00       173.50
  306.66        2959.25           1346          48.00       177.86
  306.69        2959.50           1349          52.00       195.29
  306.72        2959.75           1352          63.00       243.25
  306.75        2960.00           1356          84.00       334.79
  306.78        2960.25           1359         109.00       443.77
  306.81        2960.50           1362         171.00       714.05
  306.84        2960.75           1366         206.00       866.63
  306.87        2961.00           1369         247.00      1045.37
  306.91        2961.25           1372         306.00      1302.58
  306.94        2961.50           1376         352.00      1503.12
  306.97        2961.75           1379         496.00      2130.91
  307.00        2962.00           1382         816.00      3526.09
  307.03        2962.25           1386        2194.00      9535.42
  307.06        2962.50           1389        3721.00     16197.06
  307.09        2962.75           1392        5322.00     23184.39
  307.12        2963.00           1396        7369.00     32122.49
  307.15        2963.25           1399        8925.00     38919.87
  307.18        2963.50           1402       10626.00     46353.87
  307.21        2963.75           1406       12847.00     56065.45
  307.25        2964.00           1409       14584.00     63664.64
  307.28        2964.25           1412       16515.00     72116.63
  307.31        2964.50           1416       18808.00     82158.66
  307.34        2964.75           1419       20446.00     89335.88
  307.37        2965.00           1422       22358.00     97717.62
  307.40        2965.25           1426       24376.00    106568.60
  307.43        2965.50           1429       26175.00    114463.00
  307.46        2965.75           1432       27824.00    121702.50
  307.49        2966.00           1436       29962.00    131093.50
  307.52        2966.25           1439       31525.00    137962.20
  307.55        2966.50           1442       33247.00    145532.90
  307.59        2966.75           1446       34936.00    152961.90
  307.62        2967.00           1449       35716.00    156393.80
  307.65        2967.25           1452       36087.00    158026.40
  307.68        2967.50           1456       36242.00    158708.50
  307.71        2967.75           1459       36359.00    159223.50
  307.74        2968.00           1462       36123.00    158184.80
  307.77        2968.25           1466       35578.00    155786.60
  307.80        2968.50           1469       34531.00    151180.20
  307.83        2968.75           1472       33274.00    145651.60
  307.87        2969.00           1476       31032.00    135795.40
  307.90        2969.25           1479       29661.00    129771.00
  307.93        2969.50           1482       27870.00    121904.50
  307.96        2969.75           1486       25810.00    112861.00
  307.99        2970.00           1489       24129.00    105485.00
  308.02        2970.25           1492       22247.00     97230.90
  308.05        2970.50           1496       19958.00     87197.30
  308.08        2970.75           1499       18371.00     80244.38
  308.11        2971.00           1502       16672.00     72804.01
  308.15        2971.25           1506       14446.00     63060.78
  308.18        2971.50           1509       12712.00     55474.99
  308.21        2971.75           1513       10575.00     46130.93
  308.24        2972.00           1516        8995.00     39225.73
  308.27        2972.25           1519        7306.00     31847.33
  308.30        2972.50           1523        5273.00     22970.49
  308.33        2972.75           1526        3787.00     16485.05
  308.36        2973.00           1529        2259.00      9818.93
  308.39        2973.25           1533         803.00      3469.41
  308.42        2973.50           1536         418.00      1790.85
  308.45        2973.75           1539         326.00      1389.77
  308.49        2974.00           1543         278.00      1180.51
  308.52        2974.25           1546         212.00       892.79
  308.55        2974.50           1549         162.00       674.82
  308.58        2974.75           1553         108.00       439.41
  308.61        2975.00           1556          81.00       321.71
  308.64        2975.25           1559          62.00       238.89
  308.67        2975.50           1563          56.00       212.73
  308.70        2975.75           1566          49.00       182.22
  308.73        2976.00           1569          45.00       164.78
  308.76        2976.25           1573          40.00       142.98
  308.79        2976.50           1576          41.00       147.34
  308.82        2976.75           1579          44.00       160.42
  308.85        2977.00           1583          45.00       164.78
  308.88        2977.25           1586          50.00       186.57
  308.92        2977.50           1590          51.00       190.93
  308.95        2977.75           1593          49.00       182.22
  308.98        2978.00           1596          48.00       177.86
  309.01        2978.25           1600          56.00       212.73
  309.04        2978.50           1603          43.00       156.06
  309.07        2978.75           1606          45.00       164.78
  309.10        2979.00           1610          43.00       156.06
  309.13        2979.25           1613          49.00       182.22
  309.16        2979.50           1616          46.00       169.14
  309.19        2979.75           1620          43.00       156.06
  309.22        2980.00           1623          42.00       151.70
  309.25        2980.25           1626          47.00       173.50
  309.28        2980.50           1630          44.00       160.42
  309.32        2980.75           1633          40.00       142.98
  309.35        2981.00           1637          49.00       182.22
  309.38        2981.25           1640          41.00       147.34
  309.41        2981.50           1643          42.00       151.70
  309.44        2981.75           1647          43.00       156.06
  309.47        2982.00           1650          37.00       129.90
  309.50        2982.25           1653          40.00       142.98
  309.53        2982.50           1657          52.00       195.29
  309.56        2982.75           1660          48.00       177.86
  309.59        2983.00           1663          36.00       125.55
  309.62        2983.25           1667          45.00       164.78
  309.65        2983.50           1670          35.00       121.19
  309.69        2983.75           1673          46.00       169.14
  309.72        2984.00           1677          32.00       108.11
HS scan finished at 05:09:56
end
************************************************************
  HS Scan of (1) Internal mercury lamp
************************************************************
Integration time is 0.2294 seconds per sample
dh010217Manchester 53.47 2.23 2.804185pr1000
************************************************************
Dead Time -------------------------  3E-08 
Number of Cycles Used -------------  4 
Starting Wavelength (Angstroms) ---  2950 
Final Wavelength (Angstoms) -------  2984 
Wavelength Increment (Angstroms) --  .25 
Filter Wheel #1 Position ---------- (1) Ground quartz diffuser (ND=2.32)
Filter Wheel #2 Position ---------- (1) Neutral Density 0.494



************************************************************
HS scan start time = 17:42:02
Dark Count =  6.7 


Time (GMT)  Wavelength (Ang)  Step Number  Raw Counts  Counts/Second

 1062.39        2950.00           1222          38.00       136.44
 1062.46        2950.25           1226          44.00       162.60
 1062.49        2950.50           1229          43.00       158.24
 1062.52        2950.75           1232          44.00       162.60
 1062.55        2951.00           1236          39.00       140.80
 1062.58        2951.25           1239          51.00       193.11
 1062.62        2951.50           1242          46.00       171.32
 1062.65        2951.75           1246          45.00       166.96
 1062.68        2952.00           1249          42.00       153.88
 1062.71        2952.25           1252          48.00       180.04
 1062.74        2952.50           1256          49.00       184.40
 1062.77        2952.75           1259          45.00       166.96
 1062.80        2953.00           1262          45.00       166.96
 1062.83        2953.25           1266          53.00       201.83
 1062.86        2953.50           1269          53.00       201.83
 1062.89        2953.75           1272          40.00       145.16
 1062.93        2954.00           1276          41.00       149.52
 1062.96        2954.25           1279          46.00       171.32
 1062.99        2954.50           1282          40.00       145.16
 1063.02        2954.75           1286          38.00       136.44
 1063.05        2955.00           1289          40.00       145.16
 1063.08        2955.25           1292          41.00       149.52
 1063.11        2955.50           1296          48.00       180.04
 1063.14        2955.75           1299          43.00       158.24
 1063.17        2956.00           1302          40.00       145.16
 1063.20        2956.25           1306          45.00       166.96
 1063.23        2956.50           1309          44.00       162.60
 1063.26        2956.75           1312          51.00       193.11
 1063.29        2957.00           1316          49.00       184.40
 1063.32        2957.25           1319          47.00       175.68
 1063.35        2957.50           1322          42.00       153.88
 1063.38        2957.75           1326          49.00       184.40
 1063.42        2958.00           1329          45.00       166.96
 1063.45        2958.25           1332          47.00       175.68
 1063.48        2958.50           1336          50.00       188.75
 1063.51        2958.75           1339          42.00       153.88
 1063.54        2959.00           1342          45.00       166.96
 1063.57        2959.25           1346          50.00       188.75
 1063.60        2959.50           1349          48.00       180.04
 1063.63        2959.75           1352          61.00       236.71
 1063.66        2960.00           1356          87.00       350.05
 1063.69        2960.25           1359         126.00       520.06
 1063.72        2960.50           1362         151.00       629.04
 1063.75        2960.75           1366         225.00       951.64
 1063.79        2961.00           1369         248.00      1051.91
 1063.82        2961.25           1372         296.00      1261.16
 1063.85        2961.50           1376         378.00      1618.65
 1063.88        2961.75           1379         515.00      2215.93
 1063.91        2962.00           1382        1003.00      4343.64
 1063.94        2962.25           1386        2548.00     11081.71
 1063.97        2962.50           1389        4072.00     17730.88
 1064.00        2962.75           1392        5579.00     24308.48
 1064.03        2963.00           1396        7655.00     33373.85
 1064.06        2963.25           1399        9204.00     40141.17
 1064.09        2963.50           1402       10879.00     47462.04
 1064.13        2963.75           1406       13296.00     58031.63
 1064.16        2964.00           1409       14914.00     65110.94
 1064.19        2964.25           1412       16825.00     73476.09
 1064.22        2964.50           1416       19109.00     83479.52
 1064.25        2964.75           1419       20944.00     91520.78
 1064.28        2965.00           1422       22538.00     98509.09
 1064.31        2965.25           1426       24785.00    108365.20
 1064.34        2965.50           1429       26525.00    116001.50
 1064.37        2965.75           1432       28189.00    123307.50
 1064.40        2966.00           1436       30266.00    132431.40
 1064.43        2966.25           1439       31717.00    138808.30
 1064.47        2966.50           1442       33492.00    146612.50
 1064.50        2966.75           1446       35048.00    153456.80
 1064.53        2967.00           1449       35661.00    156154.00
 1064.56        2967.25           1452       35895.00    157183.70
 1064.59        2967.50           1456       35842.00    156950.40
 1064.62        2967.75           1459       35747.00    156532.40
 1064.65        2968.00           1462       35574.00    155771.20
 1064.68        2968.25           1466       35118.00    153764.80
 1064.71        2968.50           1469       33787.00    147909.90
 1064.74        2968.75           1472       32169.00    140795.30
 1064.78        2969.00           1476       30062.00    131535.00
 1064.81        2969.25           1479       28641.00    125292.70
 1064.84        2969.50           1482       27094.00    118499.40
 1064.87        2969.75           1486       24737.00    108154.60
 1064.90        2970.00           1489       23154.00    101210.50
 1064.93        2970.25           1492       21455.00     93760.75
 1064.96        2970.50           1496       19333.00     84460.91
 1064.99        2970.75           1499       17640.00     77044.91
 1065.02        2971.00           1502       16004.00     69881.75
 1065.06        2971.25           1506       13683.00     59724.62
 1065.09        2971.50           1509       12036.00     52520.79
 1065.12        2971.75           1513       10008.00     43654.78
 1065.15        2972.00           1516        8409.00     36667.60
 1065.18        2972.25           1519        6769.00     29504.31
 1065.21        2972.50           1523        4591.00     19995.86
 1065.24        2972.75           1526        3177.00     13825.70
 1065.27        2973.00           1529        1699.00      7378.70
 1065.30        2973.25           1533         579.00      2494.96
 1065.34        2973.50           1536         360.00      1540.18
 1065.37        2973.75           1539         288.00      1226.29
 1065.40        2974.00           1543         247.00      1047.55
 1065.43        2974.25           1546         165.00       690.08
 1065.46        2974.50           1549         124.00       511.34
 1065.49        2974.75           1553          83.00       332.61
 1065.52        2975.00           1556          56.00       214.91
 1065.55        2975.25           1559          58.00       223.63
 1065.58        2975.50           1563          47.00       175.68
 1065.61        2975.75           1566          49.00       184.40
 1065.64        2976.00           1569          51.00       193.11
 1065.67        2976.25           1573          39.00       140.80
 1065.70        2976.50           1576          44.00       162.60
 1065.73        2976.75           1579          45.00       166.96
 1065.77        2977.00           1583          61.00       236.71
 1065.80        2977.25           1586          49.00       184.40
 1065.83        2977.50           1590          40.00       145.16
 1065.86        2977.75           1593          43.00       158.24
 1065.89        2978.00           1596          46.00       171.32
 1065.92        2978.25           1600          49.00       184.40
 1065.95        2978.50           1603          40.00       145.16
 1065.98        2978.75           1606          45.00       166.96
 1066.01        2979.00           1610          37.00       132.08
 1066.04        2979.25           1613          47.00       175.68
 1066.07        2979.50           1616          38.00       136.44
 1066.10        2979.75           1620          47.00       175.68
 1066.13        2980.00           1623          46.00       171.32
 1066.17        2980.25           1626          46.00       171.32
 1066.20        2980.50           1630          51.00       193.11
 1066.23        2980.75           1633          44.00       162.60
 1066.26        2981.00           1637          45.00       166.96
 1066.29        2981.25           1640          46.00       171.32
 1066.32        2981.50           1643          45.00       166.96
 1066.35        2981.75           1647          43.00       158.24
 1066.38        2982.00           1650          41.00       149.52
 1066.41        2982.25           1653          50.00       188.75
 1066.44        2982.50           1657          41.00       149.52
 1066.47        2982.75           1660          40.00       145.16
 1066.50        2983.00           1663          40.00       145.16
 1066.53        2983.25           1667          42.00       153.88
 1066.56        2983.50           1670          42.00       153.88
 1066.60        2983.75           1673          37.00       132.08
 1066.63        2984.00           1677          46.00       171.32
HS scan finished at 17:46:51
end
