************************************************************
  HS Scan of (1) Internal mercury lamp
************************************************************
Integration time is 0.2294 seconds per sample
dh040217Manchester 53.47 2.23 2.750537pr1000
************************************************************
Dead Time -------------------------  3E-08 
Number of Cycles Used -------------  4 
Starting Wavelength (Angstroms) ---  2950 
Final Wavelength (Angstoms) -------  2984 
Wavelength Increment (Angstroms) --  .25 
Filter Wheel #1 Position ---------- (1) Ground quartz diffuser (ND=2.32)
Filter Wheel #2 Position ---------- (1) Neutral Density 0.494



************************************************************
HS scan start time = 05:00:40
Dark Count =  6.8 


Time (GMT)  Wavelength (Ang)  Step Number  Raw Counts  Counts/Second

  301.04        2950.00           1222          39.00       140.37
  301.11        2950.25           1226          43.00       157.80
  301.14        2950.50           1229          36.00       127.29
  301.17        2950.75           1232          49.00       183.96
  301.20        2951.00           1236          44.00       162.16
  301.23        2951.25           1239          35.00       122.93
  301.26        2951.50           1242          52.00       197.04
  301.30        2951.75           1246          46.00       170.88
  301.33        2952.00           1249          38.00       136.01
  301.36        2952.25           1252          40.00       144.73
  301.39        2952.50           1256          51.00       192.68
  301.42        2952.75           1259          51.00       192.68
  301.45        2953.00           1262          40.00       144.73
  301.48        2953.25           1266          42.00       153.44
  301.51        2953.50           1269          45.00       166.52
  301.54        2953.75           1272          41.00       149.09
  301.57        2954.00           1276          53.00       201.40
  301.61        2954.25           1279          48.00       179.60
  301.64        2954.50           1282          49.00       183.96
  301.67        2954.75           1286          45.00       166.52
  301.70        2955.00           1289          49.00       183.96
  301.73        2955.25           1292          49.00       183.96
  301.76        2955.50           1296          41.00       149.09
  301.79        2955.75           1299          48.00       179.60
  301.82        2956.00           1302          46.00       170.88
  301.85        2956.25           1306          43.00       157.80
  301.88        2956.50           1309          47.00       175.24
  301.91        2956.75           1312          39.00       140.37
  301.94        2957.00           1316          52.00       197.04
  301.98        2957.25           1319          48.00       179.60
  302.01        2957.50           1322          50.00       188.32
  302.04        2957.75           1326          47.00       175.24
  302.07        2958.00           1329          46.00       170.88
  302.10        2958.25           1332          45.00       166.52
  302.13        2958.50           1336          45.00       166.52
  302.16        2958.75           1339          46.00       170.88
  302.19        2959.00           1342          45.00       166.52
  302.22        2959.25           1346          52.00       197.04
  302.25        2959.50           1349          51.00       192.68
  302.28        2959.75           1352          68.00       266.79
  302.31        2960.00           1356          95.00       384.49
  302.34        2960.25           1359         135.00       558.86
  302.38        2960.50           1362         164.00       685.28
  302.41        2960.75           1366         218.00       920.69
  302.44        2961.00           1369         282.00      1199.69
  302.47        2961.25           1372         322.00      1374.08
  302.50        2961.50           1376         393.00      1683.61
  302.53        2961.75           1379         542.00      2333.21
  302.56        2962.00           1382        1016.00      4399.88
  302.59        2962.25           1386        2527.00     10989.67
  302.62        2962.50           1389        4038.00     17582.07
  302.65        2962.75           1392        5551.00     24185.81
  302.68        2963.00           1396        7940.00     34618.33
  302.71        2963.25           1399        9424.00     41102.09
  302.75        2963.50           1402       11029.00     48117.37
  302.78        2963.75           1406       13377.00     58385.53
  302.81        2964.00           1409       15021.00     65578.77
  302.84        2964.25           1412       16825.00     73475.65
  302.87        2964.50           1416       19166.00     83728.80
  302.90        2964.75           1419       20981.00     91682.51
  302.93        2965.00           1422       22671.00     99091.87
  302.96        2965.25           1426       24730.00    108123.50
  303.00        2965.50           1429       26372.00    115329.50
  303.03        2965.75           1432       27929.00    122165.30
  303.06        2966.00           1436       30102.00    131710.40
  303.09        2966.25           1439       31598.00    138284.80
  303.12        2966.50           1442       33156.00    145134.50
  303.15        2966.75           1446       34908.00    152840.40
  303.18        2967.00           1449       35603.00    155898.30
  303.21        2967.25           1452       35852.00    156994.00
  303.24        2967.50           1456       36029.00    157772.90
  303.28        2967.75           1459       35914.00    157266.80
  303.31        2968.00           1462       35815.00    156831.20
  303.34        2968.25           1466       35130.00    153817.10
  303.37        2968.50           1469       33680.00    147438.90
  303.40        2968.75           1472       32240.00    141107.00
  303.43        2969.00           1476       30041.00    131442.30
  303.46        2969.25           1479       28643.00    125301.00
  303.49        2969.50           1482       26900.00    117647.30
  303.52        2969.75           1486       24703.00    108005.00
  303.56        2970.00           1489       23176.00    101306.60
  303.59        2970.25           1492       21413.00     93576.18
  303.62        2970.50           1496       19016.00     83071.65
  303.65        2970.75           1499       17355.00     75796.40
  303.68        2971.00           1502       15575.00     68003.46
  303.71        2971.25           1506       13556.00     59168.58
  303.74        2971.50           1509       11823.00     51588.94
  303.77        2971.75           1513        9824.00     42850.17
  303.80        2972.00           1516        8209.00     35793.43
  303.84        2972.25           1519        6677.00     29102.12
  303.87        2972.50           1523        4450.00     19380.06
  303.90        2972.75           1526        2798.00     12171.84
  303.93        2973.00           1529        1419.00      6157.20
  303.96        2973.25           1533         514.00      2211.13
  303.99        2973.50           1536         335.00      1430.75
  304.02        2973.75           1539         272.00      1156.10
  304.05        2974.00           1543         229.00       968.64
  304.08        2974.25           1546         174.00       728.87
  304.11        2974.50           1549         120.00       493.47
  304.15        2974.75           1553          80.00       319.10
  304.18        2975.00           1556          61.00       236.27
  304.21        2975.25           1559          49.00       183.96
  304.24        2975.50           1563          45.00       166.52
  304.27        2975.75           1566          53.00       201.40
  304.30        2976.00           1569          48.00       179.60
  304.33        2976.25           1573          51.00       192.68
  304.36        2976.50           1576          44.00       162.16
  304.39        2976.75           1579          46.00       170.88
  304.42        2977.00           1583          48.00       179.60
  304.45        2977.25           1586          46.00       170.88
  304.49        2977.50           1590          51.00       192.68
  304.52        2977.75           1593          50.00       188.32
  304.55        2978.00           1596          38.00       136.01
  304.58        2978.25           1600          43.00       157.80
  304.61        2978.50           1603          50.00       188.32
  304.64        2978.75           1606          44.00       162.16
  304.67        2979.00           1610          39.00       140.37
  304.70        2979.25           1613          39.00       140.37
  304.73        2979.50           1616          48.00       179.60
  304.76        2979.75           1620          52.00       197.04
  304.79        2980.00           1623          47.00       175.24
  304.82        2980.25           1626          44.00       162.16
  304.85        2980.50           1630          40.00       144.73
  304.89        2980.75           1633          48.00       179.60
  304.92        2981.00           1637          46.00       170.88
  304.95        2981.25           1640          45.00       166.52
  304.98        2981.50           1643          41.00       149.09
  305.01        2981.75           1647          41.00       149.09
  305.04        2982.00           1650          40.00       144.73
  305.07        2982.25           1653          40.00       144.73
  305.10        2982.50           1657          42.00       153.44
  305.13        2982.75           1660          38.00       136.01
  305.16        2983.00           1663          42.00       153.44
  305.19        2983.25           1667          46.00       170.88
  305.23        2983.50           1670          45.00       166.52
  305.26        2983.75           1673          45.00       166.52
  305.29        2984.00           1677          48.00       179.60
HS scan finished at 05:05:30
end
************************************************************
  HS Scan of (1) Internal mercury lamp
************************************************************
Integration time is 0.2294 seconds per sample
dh040217Manchester 53.47 2.23 2.750537pr1000
************************************************************
Dead Time -------------------------  3E-08 
Number of Cycles Used -------------  4 
Starting Wavelength (Angstroms) ---  2950 
Final Wavelength (Angstoms) -------  2984 
Wavelength Increment (Angstroms) --  .25 
Filter Wheel #1 Position ---------- (1) Ground quartz diffuser (ND=2.32)
Filter Wheel #2 Position ---------- (1) Neutral Density 0.494



************************************************************
HS scan start time = 18:12:02
Dark Count =  6.4 


Time (GMT)  Wavelength (Ang)  Step Number  Raw Counts  Counts/Second

 1092.40        2950.00           1222          38.00       137.75
 1092.47        2950.25           1226          38.00       137.75
 1092.50        2950.50           1229          64.00       251.09
 1092.53        2950.75           1232          41.00       150.83
 1092.56        2951.00           1236          47.00       176.98
 1092.59        2951.25           1239          45.00       168.27
 1092.62        2951.50           1242          43.00       159.55
 1092.65        2951.75           1246          41.00       150.83
 1092.68        2952.00           1249          49.00       185.70
 1092.71        2952.25           1252          48.00       181.34
 1092.74        2952.50           1256          46.00       172.63
 1092.77        2952.75           1259          42.00       155.19
 1092.81        2953.00           1262          50.00       190.06
 1092.84        2953.25           1266          45.00       168.27
 1092.87        2953.50           1269          46.00       172.63
 1092.90        2953.75           1272          44.00       163.91
 1092.93        2954.00           1276          43.00       159.55
 1092.96        2954.25           1279          43.00       159.55
 1092.99        2954.50           1282          43.00       159.55
 1093.02        2954.75           1286          47.00       176.98
 1093.05        2955.00           1289          45.00       168.27
 1093.08        2955.25           1292          45.00       168.27
 1093.11        2955.50           1296          48.00       181.34
 1093.15        2955.75           1299          47.00       176.98
 1093.18        2956.00           1302          42.00       155.19
 1093.21        2956.25           1306          42.00       155.19
 1093.24        2956.50           1309          47.00       176.98
 1093.27        2956.75           1312          41.00       150.83
 1093.30        2957.00           1316          53.00       203.14
 1093.33        2957.25           1319          47.00       176.98
 1093.36        2957.50           1322          51.00       194.42
 1093.39        2957.75           1326          48.00       181.34
 1093.42        2958.00           1329          48.00       181.34
 1093.45        2958.25           1332          42.00       155.19
 1093.48        2958.50           1336          46.00       172.63
 1093.52        2958.75           1339          41.00       150.83
 1093.55        2959.00           1342          56.00       216.22
 1093.58        2959.25           1346          44.00       163.91
 1093.61        2959.50           1349          54.00       207.50
 1093.64        2959.75           1352          53.00       203.14
 1093.67        2960.00           1356          83.00       333.92
 1093.70        2960.25           1359         122.00       503.93
 1093.73        2960.50           1362         150.00       625.99
 1093.76        2960.75           1366         210.00       887.56
 1093.79        2961.00           1369         268.00      1140.41
 1093.82        2961.25           1372         285.00      1214.52
 1093.85        2961.50           1376         387.00      1659.19
 1093.88        2961.75           1379         551.00      2374.19
 1093.91        2962.00           1382        1187.00      5147.26
 1093.95        2962.25           1386        2926.00     12731.98
 1093.98        2962.50           1389        4492.00     19565.10
 1094.01        2962.75           1392        5997.00     26134.70
 1094.04        2963.00           1396        8090.00     35275.32
 1094.07        2963.25           1399        9643.00     42060.89
 1094.10        2963.50           1402       11241.00     49045.96
 1094.13        2963.75           1406       13690.00     59756.55
 1094.16        2964.00           1409       15424.00     67344.29
 1094.19        2964.25           1412       17069.00     74545.78
 1094.22        2964.50           1416       19228.00     84002.18
 1094.26        2964.75           1419       20840.00     91066.24
 1094.29        2965.00           1422       22786.00     99597.94
 1094.32        2965.25           1426       24954.00    109108.10
 1094.35        2965.50           1429       26662.00    116604.20
 1094.38        2965.75           1432       28385.00    124169.60
 1094.41        2966.00           1436       30578.00    133803.70
 1094.44        2966.25           1439       32110.00    140537.20
 1094.47        2966.50           1442       33593.00    147058.00
 1094.50        2966.75           1446       35171.00    153999.30
 1094.53        2967.00           1449       35747.00    156533.70
 1094.57        2967.25           1452       35710.00    156370.90
 1094.60        2967.50           1456       35726.00    156441.30
 1094.63        2967.75           1459       35721.00    156419.30
 1094.66        2968.00           1462       35533.00    155592.10
 1094.69        2968.25           1466       34635.00    151641.20
 1094.72        2968.50           1469       33239.00    145501.20
 1094.75        2968.75           1472       31716.00    138805.20
 1094.78        2969.00           1476       29810.00    130429.20
 1094.81        2969.25           1479       27905.00    122061.70
 1094.85        2969.50           1482       26359.00    115274.20
 1094.88        2969.75           1486       24258.00    106054.40
 1094.91        2970.00           1489       22740.00     99396.21
 1094.94        2970.25           1492       21039.00     91938.50
 1094.97        2970.50           1496       19003.00     83016.44
 1095.00        2970.75           1499       17319.00     75640.50
 1095.03        2971.00           1502       15743.00     68740.56
 1095.06        2971.25           1506       13296.00     58032.94
 1095.09        2971.50           1509       11661.00     50882.32
 1095.12        2971.75           1513        9672.00     42187.63
 1095.16        2972.00           1516        7798.00     33999.79
 1095.19        2972.25           1519        6283.00     27383.43
 1095.22        2972.50           1523        4160.00     18116.21
 1095.25        2972.75           1526        2664.00     11589.03
 1095.28        2973.00           1529        1373.00      5958.34
 1095.31        2973.25           1533         495.00      2130.04
 1095.34        2973.50           1536         328.00      1401.98
 1095.37        2973.75           1539         289.00      1231.96
 1095.40        2974.00           1543         224.00       948.59
 1095.44        2974.25           1546         169.00       708.82
 1095.47        2974.50           1549         116.00       477.77
 1095.50        2974.75           1553          83.00       333.92
 1095.53        2975.00           1556          63.00       246.73
 1095.56        2975.25           1559          57.00       220.58
 1095.59        2975.50           1563          52.00       198.78
 1095.62        2975.75           1566          47.00       176.98
 1095.65        2976.00           1569          51.00       194.42
 1095.68        2976.25           1573          42.00       155.19
 1095.71        2976.50           1576          46.00       172.63
 1095.74        2976.75           1579          48.00       181.34
 1095.77        2977.00           1583          52.00       198.78
 1095.80        2977.25           1586          54.00       207.50
 1095.83        2977.50           1590          43.00       159.55
 1095.87        2977.75           1593          49.00       185.70
 1095.90        2978.00           1596          41.00       150.83
 1095.93        2978.25           1600          40.00       146.47
 1095.96        2978.50           1603          46.00       172.63
 1095.99        2978.75           1606          46.00       172.63
 1096.02        2979.00           1610          50.00       190.06
 1096.05        2979.25           1613          42.00       155.19
 1096.08        2979.50           1616          42.00       155.19
 1096.11        2979.75           1620          50.00       190.06
 1096.14        2980.00           1623          46.00       172.63
 1096.17        2980.25           1626          47.00       176.98
 1096.20        2980.50           1630          41.00       150.83
 1096.23        2980.75           1633          39.00       142.11
 1096.26        2981.00           1637          43.00       159.55
 1096.29        2981.25           1640          45.00       168.27
 1096.33        2981.50           1643          47.00       176.98
 1096.36        2981.75           1647          51.00       194.42
 1096.39        2982.00           1650          41.00       150.83
 1096.42        2982.25           1653          40.00       146.47
 1096.45        2982.50           1657          40.00       146.47
 1096.48        2982.75           1660          45.00       168.27
 1096.51        2983.00           1663          45.00       168.27
 1096.54        2983.25           1667          48.00       181.34
 1096.57        2983.50           1670          45.00       168.27
 1096.60        2983.75           1673          40.00       146.47
 1096.63        2984.00           1677          42.00       155.19
HS scan finished at 18:16:51
end
