************************************************************
  HS Scan of (1) Internal mercury lamp
************************************************************
Integration time is 0.2294 seconds per sample
dh020219Manchester 53.47 2.23 2.750537pr1000
************************************************************
Dead Time -------------------------  3E-08 
Number of Cycles Used -------------  4 
Starting Wavelength (Angstroms) ---  2950 
Final Wavelength (Angstoms) -------  2984 
Wavelength Increment (Angstroms) --  .25 
Filter Wheel #1 Position ---------- (1) Ground quartz diffuser (ND=2.32)
Filter Wheel #2 Position ---------- (1) Neutral Density 0.494



************************************************************
HS scan start time = 05:04:35
Dark Count =  5.9 


Time (GMT)  Wavelength (Ang)  Step Number  Raw Counts  Counts/Second

  304.96        2950.00           1222          55.00       214.04
  305.03        2950.25           1226          52.00       200.96
  305.06        2950.50           1229          50.00       192.24
  305.09        2950.75           1232          62.00       244.55
  305.12        2951.00           1236          53.00       205.32
  305.15        2951.25           1239          51.00       196.60
  305.18        2951.50           1242          65.00       257.63
  305.21        2951.75           1246          60.00       235.83
  305.24        2952.00           1249          59.00       231.48
  305.28        2952.25           1252          63.00       248.91
  305.31        2952.50           1256          59.00       231.48
  305.34        2952.75           1259          52.00       200.96
  305.37        2953.00           1262          56.00       218.40
  305.40        2953.25           1266          60.00       235.83
  305.43        2953.50           1269          50.00       192.24
  305.46        2953.75           1272          57.00       222.76
  305.49        2954.00           1276          60.00       235.83
  305.52        2954.25           1279          54.00       209.68
  305.55        2954.50           1282          59.00       231.48
  305.58        2954.75           1286          55.00       214.04
  305.61        2955.00           1289          66.00       261.99
  305.65        2955.25           1292          50.00       192.24
  305.68        2955.50           1296          55.00       214.04
  305.71        2955.75           1299          58.00       227.12
  305.74        2956.00           1302          52.00       200.96
  305.77        2956.25           1306          62.00       244.55
  305.80        2956.50           1309          50.00       192.24
  305.83        2956.75           1312          48.00       183.52
  305.86        2957.00           1316          45.00       170.45
  305.89        2957.25           1319          52.00       200.96
  305.92        2957.50           1322          55.00       214.04
  305.95        2957.75           1326          61.00       240.19
  305.98        2958.00           1329          59.00       231.48
  306.02        2958.25           1332          56.00       218.40
  306.05        2958.50           1336          48.00       183.52
  306.08        2958.75           1339          59.00       231.48
  306.11        2959.00           1342          59.00       231.48
  306.14        2959.25           1346          58.00       227.12
  306.17        2959.50           1349          66.00       261.99
  306.20        2959.75           1352          69.00       275.07
  306.23        2960.00           1356          82.00       331.74
  306.26        2960.25           1359         100.00       410.21
  306.29        2960.50           1362         132.00       549.70
  306.32        2960.75           1366         189.00       798.19
  306.36        2961.00           1369         199.00       841.78
  306.39        2961.25           1372         234.00       994.36
  306.42        2961.50           1376         271.00      1155.66
  306.45        2961.75           1379         381.00      1635.22
  306.48        2962.00           1382         753.00      3257.08
  306.51        2962.25           1386        1940.00      8433.26
  306.54        2962.50           1389        3127.00     13611.05
  306.57        2962.75           1392        4313.00     18786.09
  306.60        2963.00           1396        5942.00     25896.75
  306.64        2963.25           1399        7126.00     31066.87
  306.67        2963.50           1402        8246.00     35959.00
  306.70        2963.75           1406        9840.00     42924.03
  306.73        2964.00           1409       11142.00     48615.32
  306.76        2964.25           1412       12344.00     53871.21
  306.79        2964.50           1416       13768.00     60099.98
  306.82        2964.75           1419       15108.00     65963.45
  306.85        2965.00           1422       16094.00     70279.23
  306.88        2965.25           1426       17892.00     78152.07
  306.91        2965.50           1429       19104.00     83461.11
  306.95        2965.75           1432       20280.00     88614.07
  306.98        2966.00           1436       21888.00     95662.56
  307.01        2966.25           1439       23102.00    100985.90
  307.04        2966.50           1442       24112.00    105416.10
  307.07        2966.75           1446       25303.00    110641.70
  307.10        2967.00           1449       25668.00    112243.50
  307.13        2967.25           1452       25772.00    112699.90
  307.16        2967.50           1456       25718.00    112462.90
  307.20        2967.75           1459       25804.00    112840.40
  307.23        2968.00           1462       25758.00    112638.50
  307.26        2968.25           1466       25012.00    109364.80
  307.29        2968.50           1469       24114.00    105424.90
  307.32        2968.75           1472       23136.00    101135.10
  307.35        2969.00           1476       21480.00     93873.84
  307.38        2969.25           1479       20384.00     89069.86
  307.41        2969.50           1482       19070.00     83312.15
  307.44        2969.75           1486       17421.00     76089.35
  307.48        2970.00           1489       16347.00     71386.81
  307.51        2970.25           1492       15237.00     66528.03
  307.54        2970.50           1496       13645.00     59561.87
  307.57        2970.75           1499       12486.00     54492.24
  307.60        2971.00           1502       11396.00     49725.82
  307.63        2971.25           1506        9858.00     43002.70
  307.66        2971.50           1509        8776.00     38274.53
  307.69        2971.75           1513        7047.00     30721.85
  307.72        2972.00           1516        5745.00     25036.67
  307.75        2972.25           1519        4621.00     20130.29
  307.79        2972.50           1523        3152.00     13720.12
  307.82        2972.75           1526        2042.00      8878.13
  307.85        2973.00           1529        1028.00      4456.13
  307.88        2973.25           1533         418.00      1796.52
  307.91        2973.50           1536         298.00      1273.37
  307.94        2973.75           1539         242.00      1029.24
  307.97        2974.00           1543         203.00       859.22
  308.00        2974.25           1546         150.00       628.17
  308.03        2974.50           1549         119.00       493.03
  308.07        2974.75           1553          91.00       370.97
  308.10        2975.00           1556          84.00       340.46
  308.13        2975.25           1559          64.00       253.27
  308.16        2975.50           1563          58.00       227.12
  308.19        2975.75           1566          53.00       205.32
  308.22        2976.00           1569          49.00       187.88
  308.25        2976.25           1573          48.00       183.52
  308.28        2976.50           1576          52.00       200.96
  308.31        2976.75           1579          44.00       166.09
  308.34        2977.00           1583          51.00       196.60
  308.37        2977.25           1586          56.00       218.40
  308.40        2977.50           1590          60.00       235.83
  308.43        2977.75           1593          55.00       214.04
  308.46        2978.00           1596          54.00       209.68
  308.50        2978.25           1600          49.00       187.88
  308.53        2978.50           1603          49.00       187.88
  308.56        2978.75           1606          46.00       174.80
  308.59        2979.00           1610          60.00       235.83
  308.62        2979.25           1613          48.00       183.52
  308.65        2979.50           1616          48.00       183.52
  308.68        2979.75           1620          48.00       183.52
  308.71        2980.00           1623          56.00       218.40
  308.74        2980.25           1626          51.00       196.60
  308.78        2980.50           1630          50.00       192.24
  308.81        2980.75           1633          49.00       187.88
  308.84        2981.00           1637          54.00       209.68
  308.87        2981.25           1640          55.00       214.04
  308.90        2981.50           1643          51.00       196.60
  308.93        2981.75           1647          49.00       187.88
  308.96        2982.00           1650          48.00       183.52
  308.99        2982.25           1653          48.00       183.52
  309.02        2982.50           1657          51.00       196.60
  309.05        2982.75           1660          53.00       205.32
  309.08        2983.00           1663          56.00       218.40
  309.11        2983.25           1667          48.00       183.52
  309.14        2983.50           1670          48.00       183.52
  309.18        2983.75           1673          48.00       183.52
  309.21        2984.00           1677          60.00       235.83
HS scan finished at 05:09:25
end
************************************************************
  HS Scan of (1) Internal mercury lamp
************************************************************
Integration time is 0.2294 seconds per sample
dh020219Manchester 53.47 2.23 2.750537pr1000
************************************************************
Dead Time -------------------------  3E-08 
Number of Cycles Used -------------  4 
Starting Wavelength (Angstroms) ---  2950 
Final Wavelength (Angstoms) -------  2984 
Wavelength Increment (Angstroms) --  .25 
Filter Wheel #1 Position ---------- (1) Ground quartz diffuser (ND=2.32)
Filter Wheel #2 Position ---------- (1) Neutral Density 0.494



************************************************************
HS scan start time = 17:42:16
Dark Count =  6.9 


Time (GMT)  Wavelength (Ang)  Step Number  Raw Counts  Counts/Second

 1062.64        2950.00           1222          53.00       200.96
 1062.71        2950.25           1226          57.00       218.40
 1062.74        2950.50           1229          56.00       214.04
 1062.77        2950.75           1232          55.00       209.68
 1062.80        2951.00           1236          46.00       170.45
 1062.83        2951.25           1239          50.00       187.88
 1062.87        2951.50           1242          60.00       231.48
 1062.90        2951.75           1246          57.00       218.40
 1062.93        2952.00           1249          56.00       214.04
 1062.96        2952.25           1252          50.00       187.88
 1062.99        2952.50           1256          53.00       200.96
 1063.02        2952.75           1259          48.00       179.16
 1063.05        2953.00           1262          53.00       200.96
 1063.08        2953.25           1266          52.00       196.60
 1063.11        2953.50           1269          48.00       179.16
 1063.14        2953.75           1272          53.00       200.96
 1063.17        2954.00           1276          55.00       209.68
 1063.21        2954.25           1279          50.00       187.88
 1063.24        2954.50           1282          53.00       200.96
 1063.27        2954.75           1286          57.00       218.40
 1063.30        2955.00           1289          55.00       209.68
 1063.33        2955.25           1292          64.00       248.91
 1063.36        2955.50           1296          54.00       205.32
 1063.39        2955.75           1299          49.00       183.52
 1063.42        2956.00           1302          51.00       192.24
 1063.45        2956.25           1306          51.00       192.24
 1063.49        2956.50           1309          54.00       205.32
 1063.52        2956.75           1312          58.00       222.76
 1063.55        2957.00           1316          49.00       183.52
 1063.58        2957.25           1319          61.00       235.83
 1063.61        2957.50           1322          54.00       205.32
 1063.64        2957.75           1326          53.00       200.96
 1063.67        2958.00           1329          56.00       214.04
 1063.70        2958.25           1332          56.00       214.04
 1063.73        2958.50           1336          55.00       209.68
 1063.77        2958.75           1339          53.00       200.96
 1063.80        2959.00           1342          55.00       209.68
 1063.83        2959.25           1346          64.00       248.91
 1063.86        2959.50           1349          60.00       231.48
 1063.89        2959.75           1352          66.00       257.63
 1063.92        2960.00           1356          88.00       353.53
 1063.95        2960.25           1359         119.00       488.67
 1063.98        2960.50           1362         138.00       571.50
 1064.02        2960.75           1366         181.00       758.95
 1064.05        2961.00           1369         209.00       881.02
 1064.08        2961.25           1372         232.00       981.28
 1064.11        2961.50           1376         276.00      1173.10
 1064.14        2961.75           1379         355.00      1517.51
 1064.17        2962.00           1382         701.00      3025.99
 1064.20        2962.25           1386        1910.00      8298.06
 1064.23        2962.50           1389        3096.00     13471.44
 1064.26        2962.75           1392        4178.00     18192.58
 1064.30        2963.00           1396        5695.00     24814.02
 1064.33        2963.25           1399        6888.00     30023.11
 1064.36        2963.50           1402        8130.00     35447.88
 1064.39        2963.75           1406        9568.00     41730.94
 1064.42        2964.00           1409       10828.00     47238.21
 1064.45        2964.25           1412       12081.00     52716.70
 1064.48        2964.50           1416       13767.00     60091.23
 1064.51        2964.75           1419       14780.00     64523.65
 1064.54        2965.00           1422       16062.00     70134.78
 1064.58        2965.25           1426       17665.00     77153.53
 1064.61        2965.50           1429       18897.00     82549.87
 1064.64        2965.75           1432       20136.00     87978.64
 1064.67        2966.00           1436       21376.00     93413.56
 1064.70        2966.25           1439       22681.00     99135.28
 1064.73        2966.50           1442       23808.00    104078.20
 1064.76        2966.75           1446       25110.00    109790.40
 1064.79        2967.00           1449       25357.00    110874.30
 1064.82        2967.25           1452       25590.00    111896.80
 1064.86        2967.50           1456       25475.00    111392.10
 1064.89        2967.75           1459       25514.00    111563.30
 1064.92        2968.00           1462       25459.00    111321.90
 1064.95        2968.25           1466       24787.00    108373.10
 1064.98        2968.50           1469       23874.00    104367.70
 1065.01        2968.75           1472       22888.00    100043.10
 1065.04        2969.00           1476       21231.00     92777.93
 1065.07        2969.25           1479       20090.00     87777.06
 1065.10        2969.50           1482       18872.00     82440.34
 1065.14        2969.75           1486       17344.00     75747.78
 1065.17        2970.00           1489       16179.00     70646.96
 1065.20        2970.25           1492       15061.00     65753.38
 1065.23        2970.50           1496       13584.00     59290.64
 1065.26        2970.75           1499       12451.00     54334.79
 1065.29        2971.00           1502       11161.00     48694.01
 1065.32        2971.25           1506        9542.00     41617.31
 1065.35        2971.50           1509        8338.00     36356.54
 1065.38        2971.75           1513        6838.00     29804.76
 1065.42        2972.00           1516        5632.00     24538.99
 1065.45        2972.25           1519        4541.00     19776.77
 1065.48        2972.50           1523        3023.00     13152.97
 1065.51        2972.75           1526        1989.00      8642.61
 1065.54        2973.00           1529         995.00      4307.88
 1065.57        2973.25           1533         351.00      1500.07
 1065.60        2973.50           1536         271.00      1151.30
 1065.63        2973.75           1539         245.00      1037.96
 1065.66        2974.00           1543         195.00       819.99
 1065.70        2974.25           1546         164.00       684.84
 1065.73        2974.50           1549         119.00       488.67
 1065.76        2974.75           1553          84.00       336.10
 1065.79        2975.00           1556          68.00       266.35
 1065.82        2975.25           1559          55.00       209.68
 1065.85        2975.50           1563          53.00       200.96
 1065.88        2975.75           1566          48.00       179.16
 1065.91        2976.00           1569          57.00       218.40
 1065.94        2976.25           1573          62.00       240.19
 1065.97        2976.50           1576          44.00       161.73
 1066.01        2976.75           1579          46.00       170.45
 1066.04        2977.00           1583          51.00       192.24
 1066.07        2977.25           1586          57.00       218.40
 1066.10        2977.50           1590          51.00       192.24
 1066.13        2977.75           1593          52.00       196.60
 1066.16        2978.00           1596          53.00       200.96
 1066.19        2978.25           1600          48.00       179.16
 1066.22        2978.50           1603          49.00       183.52
 1066.25        2978.75           1606          56.00       214.04
 1066.29        2979.00           1610          55.00       209.68
 1066.32        2979.25           1613          55.00       209.68
 1066.35        2979.50           1616          50.00       187.88
 1066.38        2979.75           1620          55.00       209.68
 1066.41        2980.00           1623          47.00       174.80
 1066.44        2980.25           1626          50.00       187.88
 1066.47        2980.50           1630          47.00       174.80
 1066.50        2980.75           1633          50.00       187.88
 1066.53        2981.00           1637          47.00       174.80
 1066.56        2981.25           1640          45.00       166.09
 1066.59        2981.50           1643          47.00       174.80
 1066.62        2981.75           1647          53.00       200.96
 1066.66        2982.00           1650          50.00       187.88
 1066.69        2982.25           1653          50.00       187.88
 1066.72        2982.50           1657          56.00       214.04
 1066.75        2982.75           1660          53.00       200.96
 1066.78        2983.00           1663          61.00       235.83
 1066.81        2983.25           1667          54.00       205.32
 1066.84        2983.50           1670          56.00       214.04
 1066.87        2983.75           1673          53.00       200.96
 1066.90        2984.00           1677          46.00       170.45
HS scan finished at 17:47:07
end
