************************************************************
  HS Scan of (1) Internal mercury lamp
************************************************************
Integration time is 0.2294 seconds per sample
dh310117Manchester 53.47 2.23 2.750537pr1000
************************************************************
Dead Time -------------------------  3E-08 
Number of Cycles Used -------------  4 
Starting Wavelength (Angstroms) ---  2950 
Final Wavelength (Angstoms) -------  2984 
Wavelength Increment (Angstroms) --  .25 
Filter Wheel #1 Position ---------- (1) Ground quartz diffuser (ND=2.32)
Filter Wheel #2 Position ---------- (1) Neutral Density 0.494



************************************************************
HS scan start time = 05:06:30
Dark Count =  7 


Time (GMT)  Wavelength (Ang)  Step Number  Raw Counts  Counts/Second

  306.87        2950.00           1222          38.00       135.14
  306.94        2950.25           1226          47.00       174.37
  306.97        2950.50           1229          46.00       170.01
  307.00        2950.75           1232          42.00       152.57
  307.03        2951.00           1236          46.00       170.01
  307.06        2951.25           1239          45.00       165.65
  307.09        2951.50           1242          49.00       183.09
  307.12        2951.75           1246          41.00       148.21
  307.15        2952.00           1249          43.00       156.93
  307.18        2952.25           1252          39.00       139.49
  307.21        2952.50           1256          46.00       170.01
  307.24        2952.75           1259          45.00       165.65
  307.28        2953.00           1262          42.00       152.57
  307.31        2953.25           1266          43.00       156.93
  307.34        2953.50           1269          42.00       152.57
  307.37        2953.75           1272          45.00       165.65
  307.40        2954.00           1276          51.00       191.81
  307.43        2954.25           1279          47.00       174.37
  307.46        2954.50           1282          39.00       139.49
  307.49        2954.75           1286          46.00       170.01
  307.52        2955.00           1289          46.00       170.01
  307.55        2955.25           1292          44.00       161.29
  307.58        2955.50           1296          44.00       161.29
  307.62        2955.75           1299          46.00       170.01
  307.65        2956.00           1302          50.00       187.45
  307.68        2956.25           1306          55.00       209.24
  307.71        2956.50           1309          40.00       143.85
  307.74        2956.75           1312          46.00       170.01
  307.77        2957.00           1316          53.00       200.52
  307.80        2957.25           1319          43.00       156.93
  307.83        2957.50           1322          47.00       174.37
  307.86        2957.75           1326          52.00       196.17
  307.89        2958.00           1329          45.00       165.65
  307.92        2958.25           1332          45.00       165.65
  307.95        2958.50           1336          48.00       178.73
  307.99        2958.75           1339          41.00       148.21
  308.02        2959.00           1342          54.00       204.88
  308.05        2959.25           1346          49.00       183.09
  308.08        2959.50           1349          53.00       200.52
  308.11        2959.75           1352          62.00       239.76
  308.14        2960.00           1356          95.00       383.61
  308.17        2960.25           1359         114.00       466.44
  308.20        2960.50           1362         165.00       688.77
  308.23        2960.75           1366         205.00       863.14
  308.27        2961.00           1369         263.00      1115.99
  308.30        2961.25           1372         292.00      1242.42
  308.33        2961.50           1376         373.00      1595.54
  308.36        2961.75           1379         576.00      2480.57
  308.39        2962.00           1382        1190.00      5157.73
  308.42        2962.25           1386        2836.00     12336.74
  308.45        2962.50           1389        4304.00     18742.01
  308.48        2962.75           1392        5877.00     25608.16
  308.51        2963.00           1396        7995.00     34857.71
  308.54        2963.25           1399        9523.00     41533.85
  308.57        2963.50           1402       11218.00     48942.78
  308.61        2963.75           1406       13653.00     59592.06
  308.64        2964.00           1409       15513.00     67731.21
  308.67        2964.25           1412       17215.00     75182.46
  308.70        2964.50           1416       19400.00     84753.15
  308.73        2964.75           1419       21033.00     91909.58
  308.76        2965.00           1422       22900.00    100095.20
  308.79        2965.25           1426       25192.00    110149.80
  308.82        2965.50           1429       26751.00    116992.30
  308.85        2965.75           1432       28453.00    124465.60
  308.88        2966.00           1436       30625.00    134007.60
  308.91        2966.25           1439       32141.00    140670.90
  308.95        2966.50           1442       33692.00    147490.70
  308.98        2966.75           1446       35535.00    155598.20
  309.01        2967.00           1449       35962.00    157477.20
  309.04        2967.25           1452       36011.00    157692.80
  309.07        2967.50           1456       35741.00    156504.70
  309.10        2967.75           1459       35866.00    157054.70
  309.13        2968.00           1462       35499.00    155439.80
  309.16        2968.25           1466       34919.00    152888.00
  309.19        2968.50           1469       33565.00    146932.20
  309.23        2968.75           1472       32276.00    141264.40
  309.26        2969.00           1476       29995.00    131239.40
  309.29        2969.25           1479       28284.00    123723.40
  309.32        2969.50           1482       26594.00    116303.10
  309.35        2969.75           1486       24232.00    105937.70
  309.38        2970.00           1489       22698.00     99209.40
  309.41        2970.25           1492       21006.00     91791.22
  309.44        2970.50           1496       18988.00     82948.10
  309.47        2970.75           1499       17345.00     75751.73
  309.50        2971.00           1502       15517.00     67748.72
  309.53        2971.25           1506       13350.00     58266.54
  309.57        2971.50           1509       11645.00     50809.74
  309.60        2971.75           1513        9445.00     41192.99
  309.63        2972.00           1516        7963.00     34717.92
  309.66        2972.25           1519        6303.00     27468.13
  309.69        2972.50           1523        4191.00     18248.87
  309.72        2972.75           1526        2643.00     11494.81
  309.75        2973.00           1529        1263.00      5476.05
  309.78        2973.25           1533         503.00      2162.30
  309.81        2973.50           1536         368.00      1573.74
  309.84        2973.75           1539         297.00      1264.22
  309.87        2974.00           1543         243.00      1028.80
  309.91        2974.25           1546         188.00       789.03
  309.94        2974.50           1549         144.00       597.22
  309.97        2974.75           1553          90.00       361.82
  310.00        2975.00           1556          74.00       292.07
  310.03        2975.25           1559          56.00       213.60
  310.06        2975.50           1563          45.00       165.65
  310.09        2975.75           1566          47.00       174.37
  310.12        2976.00           1569          44.00       161.29
  310.15        2976.25           1573          40.00       143.85
  310.18        2976.50           1576          49.00       183.09
  310.21        2976.75           1579          42.00       152.57
  310.24        2977.00           1583          61.00       235.40
  310.28        2977.25           1586          43.00       156.93
  310.31        2977.50           1590          49.00       183.09
  310.34        2977.75           1593          42.00       152.57
  310.37        2978.00           1596          47.00       174.37
  310.40        2978.25           1600          43.00       156.93
  310.43        2978.50           1603          51.00       191.81
  310.46        2978.75           1606          58.00       222.32
  310.49        2979.00           1610          47.00       174.37
  310.52        2979.25           1613          49.00       183.09
  310.55        2979.50           1616          44.00       161.29
  310.58        2979.75           1620          41.00       148.21
  310.61        2980.00           1623          40.00       143.85
  310.64        2980.25           1626          48.00       178.73
  310.67        2980.50           1630          43.00       156.93
  310.70        2980.75           1633          41.00       148.21
  310.74        2981.00           1637          46.00       170.01
  310.77        2981.25           1640          43.00       156.93
  310.80        2981.50           1643          41.00       148.21
  310.83        2981.75           1647          40.00       143.85
  310.86        2982.00           1650          53.00       200.52
  310.89        2982.25           1653          44.00       161.29
  310.92        2982.50           1657          45.00       165.65
  310.95        2982.75           1660          44.00       161.29
  310.98        2983.00           1663          42.00       152.57
  311.01        2983.25           1667          41.00       148.21
  311.04        2983.50           1670          41.00       148.21
  311.08        2983.75           1673          42.00       152.57
  311.11        2984.00           1677          44.00       161.29
HS scan finished at 05:11:19
end
************************************************************
  HS Scan of (1) Internal mercury lamp
************************************************************
Integration time is 0.2294 seconds per sample
dh310117Manchester 53.47 2.23 2.804185pr1000
************************************************************
Dead Time -------------------------  3E-08 
Number of Cycles Used -------------  4 
Starting Wavelength (Angstroms) ---  2950 
Final Wavelength (Angstoms) -------  2984 
Wavelength Increment (Angstroms) --  .25 
Filter Wheel #1 Position ---------- (1) Ground quartz diffuser (ND=2.32)
Filter Wheel #2 Position ---------- (1) Neutral Density 0.494



************************************************************
HS scan start time = 17:42:00
Dark Count =  5 


Time (GMT)  Wavelength (Ang)  Step Number  Raw Counts  Counts/Second

 1062.36        2950.00           1222          46.00       178.73
 1062.43        2950.25           1226          44.00       170.01
 1062.46        2950.50           1229          45.00       174.37
 1062.49        2950.75           1232          41.00       156.93
 1062.52        2951.00           1236          47.00       183.09
 1062.55        2951.25           1239          42.00       161.29
 1062.58        2951.50           1242          42.00       161.29
 1062.62        2951.75           1246          41.00       156.93
 1062.65        2952.00           1249          47.00       183.09
 1062.68        2952.25           1252          58.00       231.04
 1062.71        2952.50           1256          45.00       174.37
 1062.74        2952.75           1259          46.00       178.73
 1062.77        2953.00           1262          39.00       148.21
 1062.80        2953.25           1266          44.00       170.01
 1062.83        2953.50           1269          46.00       178.73
 1062.86        2953.75           1272          46.00       178.73
 1062.89        2954.00           1276          50.00       196.17
 1062.92        2954.25           1279          44.00       170.01
 1062.95        2954.50           1282          44.00       170.01
 1062.99        2954.75           1286          42.00       161.29
 1063.02        2955.00           1289          40.00       152.57
 1063.05        2955.25           1292          44.00       170.01
 1063.08        2955.50           1296          48.00       187.45
 1063.11        2955.75           1299          43.00       165.65
 1063.14        2956.00           1302          45.00       174.37
 1063.17        2956.25           1306          44.00       170.01
 1063.20        2956.50           1309          50.00       196.17
 1063.23        2956.75           1312          43.00       165.65
 1063.26        2957.00           1316          40.00       152.57
 1063.29        2957.25           1319          51.00       200.52
 1063.32        2957.50           1322          44.00       170.01
 1063.36        2957.75           1326          42.00       161.29
 1063.39        2958.00           1329          41.00       156.93
 1063.42        2958.25           1332          49.00       191.81
 1063.45        2958.50           1336          57.00       226.68
 1063.48        2958.75           1339          42.00       161.29
 1063.51        2959.00           1342          47.00       183.09
 1063.54        2959.25           1346          46.00       178.73
 1063.57        2959.50           1349          57.00       226.68
 1063.60        2959.75           1352          64.00       257.19
 1063.63        2960.00           1356          94.00       387.97
 1063.66        2960.25           1359         114.00       475.16
 1063.70        2960.50           1362         163.00       688.77
 1063.73        2960.75           1366         208.00       884.94
 1063.76        2961.00           1369         259.00      1107.27
 1063.79        2961.25           1372         294.00      1259.86
 1063.82        2961.50           1376         371.00      1595.54
 1063.85        2961.75           1379         543.00      2345.41
 1063.88        2962.00           1382         960.00      4163.55
 1063.91        2962.25           1386        2586.00     11254.89
 1063.94        2962.50           1389        4165.00     18144.14
 1063.97        2962.75           1392        5755.00     25084.26
 1064.00        2963.00           1396        7862.00     34285.47
 1064.03        2963.25           1399        9596.00     41861.60
 1064.07        2963.50           1402       11275.00     49200.73
 1064.10        2963.75           1406       13530.00     59062.71
 1064.13        2964.00           1409       15073.00     65814.22
 1064.16        2964.25           1412       16813.00     73430.99
 1064.19        2964.50           1416       19077.00     83346.77
 1064.22        2964.75           1419       20703.00     90471.91
 1064.25        2965.00           1422       22371.00     97784.25
 1064.28        2965.25           1426       24582.00    107482.00
 1064.31        2965.50           1429       26263.00    114858.90
 1064.34        2965.75           1432       27912.00    122098.60
 1064.37        2966.00           1436       30183.00    132074.10
 1064.41        2966.25           1439       31761.00    139009.20
 1064.44        2966.50           1442       33318.00    145854.80
 1064.47        2966.75           1446       35058.00    153508.30
 1064.50        2967.00           1449       35697.00    156319.90
 1064.53        2967.25           1452       35757.00    156583.90
 1064.56        2967.50           1456       35820.00    156861.10
 1064.59        2967.75           1459       35711.00    156381.50
 1064.62        2968.00           1462       35606.00    155919.40
 1064.65        2968.25           1466       34644.00    151687.00
 1064.68        2968.50           1469       33462.00    146488.00
 1064.72        2968.75           1472       31755.00    138982.80
 1064.75        2969.00           1476       29760.00    130215.60
 1064.78        2969.25           1479       28226.00    123477.50
 1064.81        2969.50           1482       26317.00    115096.00
 1064.84        2969.75           1486       24286.00    106183.40
 1064.87        2970.00           1489       22820.00     99753.18
 1064.90        2970.25           1492       21052.00     92001.62
 1064.93        2970.50           1496       18916.00     82641.43
 1064.96        2970.75           1499       17240.00     75300.69
 1064.99        2971.00           1502       15840.00     69171.29
 1065.02        2971.25           1506       13527.00     59049.58
 1065.06        2971.50           1509       11883.00     51859.17
 1065.09        2971.75           1513        9626.00     41992.71
 1065.12        2972.00           1516        8103.00     35338.23
 1065.15        2972.25           1519        6425.00     28009.58
 1065.18        2972.50           1523        4162.00     18131.05
 1065.21        2972.75           1526        2559.00     11137.11
 1065.24        2973.00           1529        1297.00      5633.04
 1065.27        2973.25           1533         519.00      2240.78
 1065.30        2973.50           1536         358.00      1538.87
 1065.33        2973.75           1539         302.00      1294.73
 1065.37        2974.00           1543         244.00      1041.88
 1065.40        2974.25           1546         189.00       802.11
 1065.43        2974.50           1549         147.00       619.02
 1065.46        2974.75           1553         105.00       435.93
 1065.49        2975.00           1556          66.00       265.91
 1065.52        2975.25           1559          52.00       204.88
 1065.55        2975.50           1563          44.00       170.01
 1065.58        2975.75           1566          49.00       191.81
 1065.61        2976.00           1569          48.00       187.45
 1065.64        2976.25           1573          47.00       183.09
 1065.67        2976.50           1576          45.00       174.37
 1065.71        2976.75           1579          41.00       156.93
 1065.74        2977.00           1583          47.00       183.09
 1065.77        2977.25           1586          50.00       196.17
 1065.80        2977.50           1590          52.00       204.88
 1065.83        2977.75           1593          37.00       139.49
 1065.86        2978.00           1596          48.00       187.45
 1065.89        2978.25           1600          48.00       187.45
 1065.92        2978.50           1603          52.00       204.88
 1065.95        2978.75           1606          33.00       122.06
 1065.98        2979.00           1610          41.00       156.93
 1066.02        2979.25           1613          49.00       191.81
 1066.05        2979.50           1616          38.00       143.85
 1066.08        2979.75           1620          43.00       165.65
 1066.11        2980.00           1623          49.00       191.81
 1066.14        2980.25           1626          44.00       170.01
 1066.17        2980.50           1630          50.00       196.17
 1066.20        2980.75           1633          39.00       148.21
 1066.23        2981.00           1637          42.00       161.29
 1066.26        2981.25           1640          45.00       174.37
 1066.29        2981.50           1643          47.00       183.09
 1066.32        2981.75           1647          39.00       148.21
 1066.35        2982.00           1650          46.00       178.73
 1066.39        2982.25           1653          43.00       165.65
 1066.42        2982.50           1657          51.00       200.52
 1066.45        2982.75           1660          45.00       174.37
 1066.48        2983.00           1663          44.00       170.01
 1066.51        2983.25           1667          37.00       139.49
 1066.54        2983.50           1670          43.00       165.65
 1066.57        2983.75           1673          44.00       170.01
 1066.60        2984.00           1677          49.00       191.81
HS scan finished at 17:46:49
end
