************************************************************
  HS Scan of (1) Internal mercury lamp
************************************************************
Integration time is 0.2294 seconds per sample
dh040218Manchester 53.47 2.23 2.750537pr1000
************************************************************
Dead Time -------------------------  3E-08 
Number of Cycles Used -------------  4 
Starting Wavelength (Angstroms) ---  2950 
Final Wavelength (Angstoms) -------  2984 
Wavelength Increment (Angstroms) --  .25 
Filter Wheel #1 Position ---------- (1) Ground quartz diffuser (ND=2.32)
Filter Wheel #2 Position ---------- (1) Neutral Density 0.494



************************************************************
HS scan start time = 05:01:02
Dark Count =  5.2 


Time (GMT)  Wavelength (Ang)  Step Number  Raw Counts  Counts/Second

  301.41        2950.00           1222          63.00       251.96
  301.48        2950.25           1226          68.00       273.76
  301.51        2950.50           1229          70.00       282.48
  301.54        2950.75           1232          57.00       225.81
  301.57        2951.00           1236          59.00       234.53
  301.60        2951.25           1239          59.00       234.53
  301.63        2951.50           1242          60.00       238.89
  301.66        2951.75           1246          62.00       247.60
  301.69        2952.00           1249          65.00       260.68
  301.72        2952.25           1252          63.00       251.96
  301.75        2952.50           1256          64.00       256.32
  301.78        2952.75           1259          52.00       204.01
  301.81        2953.00           1262          52.00       204.01
  301.85        2953.25           1266          59.00       234.53
  301.88        2953.50           1269          63.00       251.96
  301.91        2953.75           1272          57.00       225.81
  301.94        2954.00           1276          61.00       243.25
  301.97        2954.25           1279          67.00       269.40
  302.00        2954.50           1282          66.00       265.04
  302.03        2954.75           1286          58.00       230.17
  302.06        2955.00           1289          58.00       230.17
  302.09        2955.25           1292          60.00       238.89
  302.12        2955.50           1296          55.00       217.09
  302.16        2955.75           1299          68.00       273.76
  302.19        2956.00           1302          63.00       251.96
  302.22        2956.25           1306          51.00       199.65
  302.25        2956.50           1309          56.00       221.45
  302.28        2956.75           1312          58.00       230.17
  302.31        2957.00           1316          62.00       247.60
  302.34        2957.25           1319          58.00       230.17
  302.37        2957.50           1322          60.00       238.89
  302.40        2957.75           1326          64.00       256.32
  302.43        2958.00           1329          61.00       243.25
  302.46        2958.25           1332          68.00       273.76
  302.49        2958.50           1336          58.00       230.17
  302.52        2958.75           1339          62.00       247.60
  302.55        2959.00           1342          67.00       269.40
  302.58        2959.25           1346          62.00       247.60
  302.62        2959.50           1349          65.00       260.68
  302.65        2959.75           1352          82.00       334.79
  302.68        2960.00           1356         123.00       513.52
  302.71        2960.25           1359         153.00       644.30
  302.74        2960.50           1362         181.00       766.36
  302.77        2960.75           1366         237.00      1010.49
  302.80        2961.00           1369         271.00      1158.72
  302.83        2961.25           1372         320.00      1372.33
  302.86        2961.50           1376         373.00      1603.39
  302.89        2961.75           1379         575.00      2484.06
  302.92        2962.00           1382        1151.00      4995.52
  302.96        2962.25           1386        2751.00     11973.79
  302.99        2962.50           1389        4296.00     18714.95
  303.02        2962.75           1392        5746.00     25044.09
  303.05        2963.00           1396        7462.00     32537.41
  303.08        2963.25           1399        8948.00     39029.11
  303.11        2963.50           1402       10418.00     45453.40
  303.14        2963.75           1406       12399.00     54114.81
  303.17        2964.00           1409       13978.00     61021.82
  303.20        2964.25           1412       15561.00     67949.18
  303.23        2964.50           1416       17442.00     76184.40
  303.27        2964.75           1419       18972.00     82885.88
  303.30        2965.00           1422       20669.00     90322.01
  303.33        2965.25           1426       22734.00     99375.16
  303.36        2965.50           1429       24256.00    106050.90
  303.39        2965.75           1432       25435.00    111224.00
  303.42        2966.00           1436       27607.00    120758.40
  303.45        2966.25           1439       28915.00    126502.70
  303.48        2966.50           1442       30328.00    132710.40
  303.51        2966.75           1446       31886.00    139557.80
  303.54        2967.00           1449       32469.00    142120.80
  303.58        2967.25           1452       32565.00    142542.90
  303.61        2967.50           1456       32301.00    141382.20
  303.64        2967.75           1459       32591.00    142657.20
  303.67        2968.00           1462       32305.00    141399.80
  303.70        2968.25           1466       31470.00    137729.20
  303.73        2968.50           1469       30201.00    132152.40
  303.76        2968.75           1472       28923.00    126537.90
  303.79        2969.00           1476       27162.00    118804.60
  303.82        2969.25           1479       25572.00    111825.30
  303.85        2969.50           1482       24280.00    106156.20
  303.88        2969.75           1486       22290.00     97428.21
  303.92        2970.00           1489       20695.00     90435.97
  303.95        2970.25           1492       19360.00     84585.78
  303.98        2970.50           1496       17262.00     75396.16
  304.01        2970.75           1499       15694.00     68531.34
  304.04        2971.00           1502       14193.00     61962.51
  304.07        2971.25           1506       12170.00     53113.33
  304.10        2971.50           1509       10697.00     46672.98
  304.13        2971.75           1513        8698.00     37936.79
  304.16        2972.00           1516        7114.00     31017.51
  304.19        2972.25           1519        5703.00     24856.37
  304.23        2972.50           1523        3780.00     16463.23
  304.26        2972.75           1526        2437.00     10604.07
  304.29        2973.00           1529        1159.00      5030.40
  304.32        2973.25           1533         484.00      2087.31
  304.35        2973.50           1536         315.00      1350.53
  304.38        2973.75           1539         267.00      1141.28
  304.41        2974.00           1543         224.00       953.82
  304.44        2974.25           1546         163.00       687.90
  304.47        2974.50           1549         141.00       591.99
  304.50        2974.75           1553          98.00       404.54
  304.54        2975.00           1556          73.00       295.56
  304.57        2975.25           1559          63.00       251.96
  304.60        2975.50           1563          59.00       234.53
  304.63        2975.75           1566          57.00       225.81
  304.66        2976.00           1569          64.00       256.32
  304.69        2976.25           1573          59.00       234.53
  304.72        2976.50           1576          66.00       265.04
  304.75        2976.75           1579          53.00       208.37
  304.78        2977.00           1583          56.00       221.45
  304.81        2977.25           1586          61.00       243.25
  304.84        2977.50           1590          64.00       256.32
  304.87        2977.75           1593          55.00       217.09
  304.90        2978.00           1596          56.00       221.45
  304.93        2978.25           1600          69.00       278.12
  304.97        2978.50           1603          53.00       208.37
  305.00        2978.75           1606          54.00       212.73
  305.03        2979.00           1610          54.00       212.73
  305.06        2979.25           1613          47.00       182.22
  305.09        2979.50           1616          59.00       234.53
  305.12        2979.75           1620          65.00       260.68
  305.15        2980.00           1623          56.00       221.45
  305.18        2980.25           1626          61.00       243.25
  305.21        2980.50           1630          54.00       212.73
  305.24        2980.75           1633          59.00       234.53
  305.27        2981.00           1637          54.00       212.73
  305.30        2981.25           1640          58.00       230.17
  305.33        2981.50           1643          55.00       217.09
  305.37        2981.75           1647          58.00       230.17
  305.40        2982.00           1650          59.00       234.53
  305.43        2982.25           1653          51.00       199.65
  305.46        2982.50           1657          52.00       204.01
  305.49        2982.75           1660          54.00       212.73
  305.52        2983.00           1663          57.00       225.81
  305.55        2983.25           1667          56.00       221.45
  305.58        2983.50           1670          59.00       234.53
  305.61        2983.75           1673          61.00       243.25
  305.64        2984.00           1677          53.00       208.37
HS scan finished at 05:05:52
end
************************************************************
  HS Scan of (1) Internal mercury lamp
************************************************************
Integration time is 0.2294 seconds per sample
dh040218Manchester 53.47 2.23 2.804185pr1000
************************************************************
Dead Time -------------------------  3E-08 
Number of Cycles Used -------------  4 
Starting Wavelength (Angstroms) ---  2950 
Final Wavelength (Angstoms) -------  2984 
Wavelength Increment (Angstroms) --  .25 
Filter Wheel #1 Position ---------- (1) Ground quartz diffuser (ND=2.32)
Filter Wheel #2 Position ---------- (1) Neutral Density 0.494



************************************************************
HS scan start time = 18:12:04
Dark Count =  8.7 


Time (GMT)  Wavelength (Ang)  Step Number  Raw Counts  Counts/Second

 1092.44        2950.00           1222          64.00       241.07
 1092.51        2950.25           1226          60.00       223.63
 1092.54        2950.50           1229          64.00       241.07
 1092.57        2950.75           1232          52.00       188.75
 1092.60        2951.00           1236          67.00       254.14
 1092.63        2951.25           1239          65.00       245.42
 1092.66        2951.50           1242          60.00       223.63
 1092.69        2951.75           1246          61.00       227.99
 1092.72        2952.00           1249          58.00       214.91
 1092.75        2952.25           1252          65.00       245.42
 1092.78        2952.50           1256          58.00       214.91
 1092.81        2952.75           1259          59.00       219.27
 1092.84        2953.00           1262          65.00       245.42
 1092.87        2953.25           1266          70.00       267.22
 1092.91        2953.50           1269          60.00       223.63
 1092.94        2953.75           1272          59.00       219.27
 1092.97        2954.00           1276          64.00       241.07
 1093.00        2954.25           1279          56.00       206.19
 1093.03        2954.50           1282          58.00       214.91
 1093.06        2954.75           1286          62.00       232.35
 1093.09        2955.00           1289          62.00       232.35
 1093.12        2955.25           1292          73.00       280.30
 1093.15        2955.50           1296          54.00       197.47
 1093.18        2955.75           1299          65.00       245.42
 1093.21        2956.00           1302          61.00       227.99
 1093.25        2956.25           1306          58.00       214.91
 1093.28        2956.50           1309          64.00       241.07
 1093.31        2956.75           1312          63.00       236.71
 1093.34        2957.00           1316          64.00       241.07
 1093.37        2957.25           1319          61.00       227.99
 1093.40        2957.50           1322          63.00       236.71
 1093.43        2957.75           1326          64.00       241.07
 1093.46        2958.00           1329          62.00       232.35
 1093.49        2958.25           1332          70.00       267.22
 1093.52        2958.50           1336          63.00       236.71
 1093.55        2958.75           1339          74.00       284.66
 1093.58        2959.00           1342          60.00       223.63
 1093.61        2959.25           1346          60.00       223.63
 1093.65        2959.50           1349          70.00       267.22
 1093.68        2959.75           1352          87.00       341.33
 1093.71        2960.00           1356         117.00       472.11
 1093.74        2960.25           1359         140.00       572.37
 1093.77        2960.50           1362         176.00       729.31
 1093.80        2960.75           1366         234.00       982.16
 1093.83        2961.00           1369         270.00      1139.10
 1093.86        2961.25           1372         298.00      1261.16
 1093.89        2961.50           1376         392.00      1670.96
 1093.92        2961.75           1379         689.00      2965.83
 1093.95        2962.00           1382        1510.00      6545.75
 1093.99        2962.25           1386        3418.00     14868.45
 1094.02        2962.50           1389        4937.00     21497.30
 1094.05        2962.75           1392        6283.00     27373.39
 1094.08        2963.00           1396        8036.00     35029.38
 1094.11        2963.25           1399        9685.00     42234.39
 1094.14        2963.50           1402       11144.00     48611.82
 1094.17        2963.75           1406       13043.00     56916.20
 1094.20        2964.00           1409       14676.00     64060.66
 1094.23        2964.25           1412       16263.00     71006.81
 1094.27        2964.50           1416       18159.00     79309.24
 1094.30        2964.75           1419       19832.00     86638.59
 1094.33        2965.00           1422       21298.00     93063.74
 1094.36        2965.25           1426       23214.00    101464.90
 1094.39        2965.50           1429       24539.00    107277.10
 1094.42        2965.75           1432       26220.00    114653.90
 1094.45        2966.00           1436       28115.00    122973.80
 1094.48        2966.25           1439       29593.00    129465.70
 1094.51        2966.50           1442       30834.00    134918.60
 1094.54        2966.75           1446       32142.00    140667.80
 1094.57        2967.00           1449       32062.00    140316.10
 1094.61        2967.25           1452       32195.00    140900.80
 1094.64        2967.50           1456       32420.00    141890.00
 1094.67        2967.75           1459       32241.00    141103.00
 1094.70        2968.00           1462       31984.00    139973.20
 1094.73        2968.25           1466       30890.00    135164.70
 1094.76        2968.50           1469       29364.00    128459.70
 1094.79        2968.75           1472       27846.00    121792.50
 1094.82        2969.00           1476       26195.00    114544.20
 1094.86        2969.25           1479       24678.00    107887.00
 1094.89        2969.50           1482       23370.00    102149.10
 1094.92        2969.75           1486       21319.00     93155.80
 1094.95        2970.00           1489       19735.00     86213.54
 1094.98        2970.25           1492       18366.00     80215.91
 1095.01        2970.50           1496       16394.00     71580.32
 1095.04        2970.75           1499       14811.00     64651.43
 1095.07        2971.00           1502       13254.00     57839.16
 1095.10        2971.25           1506       11403.00     49744.19
 1095.14        2971.50           1509        9640.00     42037.73
 1095.17        2971.75           1513        7744.00     33753.87
 1095.20        2972.00           1516        6384.00     27814.40
 1095.23        2972.25           1519        4922.00     21431.82
 1095.26        2972.50           1523        2958.00     12861.54
 1095.29        2972.75           1526        1665.00      7221.71
 1095.32        2973.00           1529         742.00      3196.91
 1095.35        2973.25           1533         399.00      1701.48
 1095.38        2973.50           1536         288.00      1217.57
 1095.41        2973.75           1539         245.00      1030.11
 1095.45        2974.00           1543         210.00       877.53
 1095.48        2974.25           1546         147.00       602.89
 1095.51        2974.50           1549         131.00       533.14
 1095.54        2974.75           1553          77.00       297.74
 1095.57        2975.00           1556          65.00       245.42
 1095.60        2975.25           1559          62.00       232.35
 1095.63        2975.50           1563          60.00       223.63
 1095.66        2975.75           1566          60.00       223.63
 1095.69        2976.00           1569          62.00       232.35
 1095.73        2976.25           1573          60.00       223.63
 1095.76        2976.50           1576          61.00       227.99
 1095.79        2976.75           1579          61.00       227.99
 1095.82        2977.00           1583          58.00       214.91
 1095.85        2977.25           1586          53.00       193.11
 1095.88        2977.50           1590          63.00       236.71
 1095.91        2977.75           1593          61.00       227.99
 1095.94        2978.00           1596          58.00       214.91
 1095.97        2978.25           1600          59.00       219.27
 1096.00        2978.50           1603          60.00       223.63
 1096.03        2978.75           1606          55.00       201.83
 1096.06        2979.00           1610          54.00       197.47
 1096.10        2979.25           1613          52.00       188.75
 1096.13        2979.50           1616          54.00       197.47
 1096.16        2979.75           1620          53.00       193.11
 1096.19        2980.00           1623          60.00       223.63
 1096.22        2980.25           1626          61.00       227.99
 1096.25        2980.50           1630          52.00       188.75
 1096.28        2980.75           1633          56.00       206.19
 1096.31        2981.00           1637          47.00       166.96
 1096.34        2981.25           1640          51.00       184.40
 1096.37        2981.50           1643          55.00       201.83
 1096.40        2981.75           1647          56.00       206.19
 1096.43        2982.00           1650          56.00       206.19
 1096.47        2982.25           1653          57.00       210.55
 1096.50        2982.50           1657          53.00       193.11
 1096.53        2982.75           1660          55.00       201.83
 1096.56        2983.00           1663          52.00       188.75
 1096.59        2983.25           1667          61.00       227.99
 1096.62        2983.50           1670          53.00       193.11
 1096.65        2983.75           1673          51.00       184.40
 1096.68        2984.00           1677          56.00       206.19
HS scan finished at 18:16:54
end
