************************************************************
  HS Scan of (1) Internal mercury lamp
************************************************************
Integration time is 0.2294 seconds per sample
dh080217Manchester 53.47 2.23 2.750537pr1000
************************************************************
Dead Time -------------------------  3E-08 
Number of Cycles Used -------------  4 
Starting Wavelength (Angstroms) ---  2950 
Final Wavelength (Angstoms) -------  2984 
Wavelength Increment (Angstroms) --  .25 
Filter Wheel #1 Position ---------- (1) Ground quartz diffuser (ND=2.32)
Filter Wheel #2 Position ---------- (1) Neutral Density 0.494



************************************************************
HS scan start time = 04:54:00
Dark Count =  8.7 


Time (GMT)  Wavelength (Ang)  Step Number  Raw Counts  Counts/Second

  294.37        2950.00           1222          40.00       136.44
  294.44        2950.25           1226          49.00       175.68
  294.47        2950.50           1229          43.00       149.52
  294.50        2950.75           1232          45.00       158.24
  294.53        2951.00           1236          41.00       140.80
  294.56        2951.25           1239          44.00       153.88
  294.59        2951.50           1242          46.00       162.60
  294.62        2951.75           1246          56.00       206.19
  294.65        2952.00           1249          44.00       153.88
  294.68        2952.25           1252          48.00       171.32
  294.71        2952.50           1256          43.00       149.52
  294.74        2952.75           1259          45.00       158.24
  294.77        2953.00           1262          50.00       180.04
  294.81        2953.25           1266          42.00       145.16
  294.84        2953.50           1269          47.00       166.96
  294.87        2953.75           1272          47.00       166.96
  294.90        2954.00           1276          52.00       188.75
  294.93        2954.25           1279          46.00       162.60
  294.96        2954.50           1282          42.00       145.16
  294.99        2954.75           1286          46.00       162.60
  295.02        2955.00           1289          39.00       132.08
  295.05        2955.25           1292          54.00       197.47
  295.08        2955.50           1296          41.00       140.80
  295.12        2955.75           1299          46.00       162.60
  295.15        2956.00           1302          43.00       149.52
  295.18        2956.25           1306          47.00       166.96
  295.21        2956.50           1309          53.00       193.11
  295.24        2956.75           1312          52.00       188.75
  295.27        2957.00           1316          46.00       162.60
  295.30        2957.25           1319          45.00       158.24
  295.33        2957.50           1322          46.00       162.60
  295.36        2957.75           1326          43.00       149.52
  295.39        2958.00           1329          48.00       171.32
  295.42        2958.25           1332          41.00       140.80
  295.46        2958.50           1336          43.00       149.52
  295.49        2958.75           1339          45.00       158.24
  295.52        2959.00           1342          45.00       158.24
  295.55        2959.25           1346          52.00       188.75
  295.58        2959.50           1349          57.00       210.55
  295.61        2959.75           1352          63.00       236.71
  295.64        2960.00           1356          80.00       310.81
  295.67        2960.25           1359         120.00       485.19
  295.70        2960.50           1362         165.00       681.36
  295.73        2960.75           1366         205.00       855.73
  295.76        2961.00           1369         252.00      1060.63
  295.79        2961.25           1372         301.00      1274.24
  295.83        2961.50           1376         359.00      1527.10
  295.86        2961.75           1379         475.00      2032.82
  295.89        2962.00           1382         861.00      3715.76
  295.92        2962.25           1386        2329.00     10117.72
  295.95        2962.50           1389        3836.00     16692.32
  295.98        2962.75           1392        5347.00     23286.97
  296.01        2963.00           1396        7443.00     32439.14
  296.04        2963.25           1399        9041.00     39420.17
  296.07        2963.50           1402       10662.00     46504.68
  296.10        2963.75           1406       12816.00     55923.30
  296.14        2964.00           1409       14725.00     64275.09
  296.17        2964.25           1412       16457.00     71856.13
  296.20        2964.50           1416       18969.00     82857.41
  296.23        2964.75           1419       20643.00     90192.71
  296.26        2965.00           1422       22376.00     97789.96
  296.29        2965.25           1426       24643.00    107733.40
  296.32        2965.50           1429       26142.00    114311.60
  296.35        2965.75           1432       27985.00    122402.90
  296.38        2966.00           1436       30298.00    132563.20
  296.42        2966.25           1439       32020.00    140131.50
  296.45        2966.50           1442       33364.00    146040.80
  296.48        2966.75           1446       35061.00    153505.20
  296.51        2967.00           1449       35790.00    156712.80
  296.54        2967.25           1452       35854.00    156994.40
  296.57        2967.50           1456       36208.00    158552.30
  296.60        2967.75           1459       36038.00    157804.20
  296.63        2968.00           1462       35916.00    157267.30
  296.66        2968.25           1466       35408.00    155031.90
  296.69        2968.50           1469       34248.00    149928.70
  296.72        2968.75           1472       32805.00    143582.70
  296.76        2969.00           1476       30690.00    134285.80
  296.79        2969.25           1479       29155.00    127541.60
  296.82        2969.50           1482       27422.00    119930.70
  296.85        2969.75           1486       25217.00    110252.00
  296.88        2970.00           1489       23479.00    102627.20
  296.91        2970.25           1492       21819.00     95347.77
  296.94        2970.50           1496       19652.00     85849.86
  296.97        2970.75           1499       18055.00     78853.72
  297.00        2971.00           1502       16235.00     70884.24
  297.03        2971.25           1506       13990.00     61059.00
  297.06        2971.50           1509       12225.00     53338.55
  297.10        2971.75           1513       10149.00     44262.31
  297.13        2972.00           1516        8562.00     37327.31
  297.16        2972.25           1519        7029.00     30631.01
  297.19        2972.50           1523        5017.00     21846.49
  297.22        2972.75           1526        3407.00     14820.45
  297.25        2973.00           1529        2011.00      8730.71
  297.28        2973.25           1533         664.00      2856.83
  297.31        2973.50           1536         390.00      1662.24
  297.34        2973.75           1539         308.00      1304.76
  297.37        2974.00           1543         262.00      1104.22
  297.40        2974.25           1546         206.00       860.09
  297.43        2974.50           1549         158.00       650.84
  297.47        2974.75           1553         110.00       441.59
  297.50        2975.00           1556          83.00       323.89
  297.53        2975.25           1559          67.00       254.14
  297.56        2975.50           1563          49.00       175.68
  297.59        2975.75           1566          47.00       166.96
  297.62        2976.00           1569          50.00       180.04
  297.65        2976.25           1573          49.00       175.68
  297.68        2976.50           1576          51.00       184.40
  297.71        2976.75           1579          41.00       140.80
  297.74        2977.00           1583          41.00       140.80
  297.77        2977.25           1586          51.00       184.40
  297.80        2977.50           1590          43.00       149.52
  297.83        2977.75           1593          43.00       149.52
  297.87        2978.00           1596          50.00       180.04
  297.90        2978.25           1600          48.00       171.32
  297.93        2978.50           1603          44.00       153.88
  297.96        2978.75           1606          38.00       127.72
  297.99        2979.00           1610          46.00       162.60
  298.02        2979.25           1613          51.00       184.40
  298.05        2979.50           1616          51.00       184.40
  298.08        2979.75           1620          40.00       136.44
  298.11        2980.00           1623          45.00       158.24
  298.14        2980.25           1626          36.00       119.01
  298.17        2980.50           1630          45.00       158.24
  298.20        2980.75           1633          41.00       140.80
  298.23        2981.00           1637          46.00       162.60
  298.26        2981.25           1640          40.00       136.44
  298.29        2981.50           1643          38.00       127.72
  298.32        2981.75           1647          42.00       145.16
  298.35        2982.00           1650          49.00       175.68
  298.39        2982.25           1653          40.00       136.44
  298.42        2982.50           1657          41.00       140.80
  298.45        2982.75           1660          44.00       153.88
  298.48        2983.00           1663          37.00       123.37
  298.51        2983.25           1667          39.00       132.08
  298.54        2983.50           1670          35.00       114.65
  298.57        2983.75           1673          42.00       145.16
  298.60        2984.00           1677          38.00       127.72
HS scan finished at 04:58:49
end
************************************************************
  HS Scan of (1) Internal mercury lamp
************************************************************
Integration time is 0.2294 seconds per sample
dh080217Manchester 53.47 2.23 2.750537pr1000
************************************************************
Dead Time -------------------------  3E-08 
Number of Cycles Used -------------  4 
Starting Wavelength (Angstroms) ---  2950 
Final Wavelength (Angstoms) -------  2984 
Wavelength Increment (Angstroms) --  .25 
Filter Wheel #1 Position ---------- (1) Ground quartz diffuser (ND=2.32)
Filter Wheel #2 Position ---------- (1) Neutral Density 0.494



************************************************************
HS scan start time = 18:12:00
Dark Count =  5.7 


Time (GMT)  Wavelength (Ang)  Step Number  Raw Counts  Counts/Second

 1092.37        2950.00           1222          38.00       140.80
 1092.43        2950.25           1226          43.00       162.60
 1092.46        2950.50           1229          42.00       158.24
 1092.49        2950.75           1232          46.00       175.68
 1092.52        2951.00           1236          51.00       197.47
 1092.55        2951.25           1239          48.00       184.40
 1092.59        2951.50           1242          44.00       166.96
 1092.62        2951.75           1246          49.00       188.75
 1092.65        2952.00           1249          52.00       201.83
 1092.68        2952.25           1252          47.00       180.04
 1092.71        2952.50           1256          46.00       175.68
 1092.74        2952.75           1259          38.00       140.80
 1092.77        2953.00           1262          54.00       210.55
 1092.80        2953.25           1266          46.00       175.68
 1092.83        2953.50           1269          41.00       153.88
 1092.86        2953.75           1272          50.00       193.11
 1092.89        2954.00           1276          43.00       162.60
 1092.92        2954.25           1279          46.00       175.68
 1092.96        2954.50           1282          46.00       175.68
 1092.99        2954.75           1286          46.00       175.68
 1093.02        2955.00           1289          45.00       171.32
 1093.05        2955.25           1292          44.00       166.96
 1093.08        2955.50           1296          45.00       171.32
 1093.11        2955.75           1299          45.00       171.32
 1093.14        2956.00           1302          42.00       158.24
 1093.17        2956.25           1306          45.00       171.32
 1093.20        2956.50           1309          43.00       162.60
 1093.23        2956.75           1312          42.00       158.24
 1093.26        2957.00           1316          44.00       166.96
 1093.29        2957.25           1319          45.00       171.32
 1093.32        2957.50           1322          55.00       214.91
 1093.36        2957.75           1326          44.00       166.96
 1093.39        2958.00           1329          47.00       180.04
 1093.42        2958.25           1332          46.00       175.68
 1093.45        2958.50           1336          51.00       197.47
 1093.48        2958.75           1339          52.00       201.83
 1093.51        2959.00           1342          51.00       197.47
 1093.54        2959.25           1346          47.00       180.04
 1093.57        2959.50           1349          48.00       184.40
 1093.60        2959.75           1352          60.00       236.71
 1093.63        2960.00           1356          85.00       345.69
 1093.67        2960.25           1359         110.00       454.67
 1093.70        2960.50           1362         143.00       598.53
 1093.73        2960.75           1366         212.00       899.33
 1093.76        2961.00           1369         242.00      1030.11
 1093.79        2961.25           1372         290.00      1239.37
 1093.82        2961.50           1376         406.00      1745.08
 1093.85        2961.75           1379         668.00      2887.35
 1093.88        2962.00           1382        1400.00      6079.14
 1093.91        2962.25           1386        3158.00     13747.17
 1093.94        2962.50           1389        4689.00     20427.95
 1093.97        2962.75           1392        6223.00     27124.51
 1094.01        2963.00           1396        8280.00     36108.41
 1094.04        2963.25           1399        9767.00     42605.86
 1094.07        2963.50           1402       11610.00     50662.39
 1094.10        2963.75           1406       13795.00     60218.98
 1094.13        2964.00           1409       15535.00     67833.20
 1094.16        2964.25           1412       17321.00     75652.33
 1094.19        2964.50           1416       19601.00     85639.54
 1094.22        2964.75           1419       21136.00     92366.76
 1094.25        2965.00           1422       22914.00    100162.30
 1094.29        2965.25           1426       25124.00    109857.10
 1094.32        2965.50           1429       26798.00    117204.30
 1094.35        2965.75           1432       28476.00    124572.40
 1094.38        2966.00           1436       30455.00    133266.30
 1094.41        2966.25           1439       31990.00    140012.80
 1094.44        2966.50           1442       33680.00    147443.70
 1094.47        2966.75           1446       34976.00    153144.50
 1094.50        2967.00           1449       35303.00    154583.10
 1094.53        2967.25           1452       35465.00    155295.90
 1094.56        2967.50           1456       35340.00    154746.00
 1094.59        2967.75           1459       35170.00    153998.00
 1094.62        2968.00           1462       35043.00    153439.20
 1094.66        2968.25           1466       33811.00    148019.80
 1094.69        2968.50           1469       32684.00    143063.90
 1094.72        2968.75           1472       31142.00    136285.40
 1094.75        2969.00           1476       28859.00    126254.60
 1094.78        2969.25           1479       27404.00    119864.90
 1094.81        2969.50           1482       25930.00    113394.30
 1094.84        2969.75           1486       23644.00    103364.10
 1094.87        2970.00           1489       21942.00     95900.19
 1094.90        2970.25           1492       20360.00     88965.56
 1094.93        2970.50           1496       18380.00     80290.38
 1094.97        2970.75           1499       16571.00     72368.38
 1095.00        2971.00           1502       15025.00     65601.08
 1095.03        2971.25           1506       12720.00     55516.54
 1095.06        2971.50           1509       11115.00     48498.15
 1095.09        2971.75           1513        9006.00     39280.35
 1095.12        2972.00           1516        7369.00     32129.03
 1095.15        2972.25           1519        5856.00     25522.15
 1095.18        2972.50           1523        3714.00     16173.06
 1095.21        2972.75           1526        2207.00      9598.67
 1095.24        2973.00           1529        1040.00      4509.33
 1095.27        2973.25           1533         448.00      1928.18
 1095.30        2973.50           1536         323.00      1383.23
 1095.34        2973.75           1539         295.00      1261.16
 1095.37        2974.00           1543         230.00       977.80
 1095.40        2974.25           1546         187.00       790.34
 1095.43        2974.50           1549         133.00       554.94
 1095.46        2974.75           1553         101.00       415.44
 1095.49        2975.00           1556          66.00       262.86
 1095.52        2975.25           1559          52.00       201.83
 1095.55        2975.50           1563          47.00       180.04
 1095.58        2975.75           1566          41.00       153.88
 1095.61        2976.00           1569          39.00       145.16
 1095.64        2976.25           1573          51.00       197.47
 1095.67        2976.50           1576          37.00       136.44
 1095.71        2976.75           1579          41.00       153.88
 1095.74        2977.00           1583          44.00       166.96
 1095.77        2977.25           1586          49.00       188.75
 1095.80        2977.50           1590          53.00       206.19
 1095.83        2977.75           1593          39.00       145.16
 1095.86        2978.00           1596          45.00       171.32
 1095.89        2978.25           1600          46.00       175.68
 1095.92        2978.50           1603          48.00       184.40
 1095.95        2978.75           1606          42.00       158.24
 1095.98        2979.00           1610          38.00       140.80
 1096.01        2979.25           1613          41.00       153.88
 1096.05        2979.50           1616          48.00       184.40
 1096.08        2979.75           1620          44.00       166.96
 1096.11        2980.00           1623          48.00       184.40
 1096.14        2980.25           1626          34.00       123.37
 1096.17        2980.50           1630          42.00       158.24
 1096.20        2980.75           1633          51.00       197.47
 1096.23        2981.00           1637          42.00       158.24
 1096.26        2981.25           1640          43.00       162.60
 1096.29        2981.50           1643          39.00       145.16
 1096.32        2981.75           1647          40.00       149.52
 1096.35        2982.00           1650          47.00       180.04
 1096.38        2982.25           1653          45.00       171.32
 1096.41        2982.50           1657          47.00       180.04
 1096.44        2982.75           1660          43.00       162.60
 1096.48        2983.00           1663          46.00       175.68
 1096.51        2983.25           1667          42.00       158.24
 1096.54        2983.50           1670          43.00       162.60
 1096.57        2983.75           1673          42.00       158.24
 1096.60        2984.00           1677          37.00       136.44
HS scan finished at 18:16:49
end
