************************************************************
  HS Scan of (1) Internal mercury lamp
************************************************************
Integration time is 0.2294 seconds per sample
dh300118Manchester 53.47 2.23 2.750537pr1000
************************************************************
Dead Time -------------------------  3E-08 
Number of Cycles Used -------------  4 
Starting Wavelength (Angstroms) ---  2950 
Final Wavelength (Angstoms) -------  2984 
Wavelength Increment (Angstroms) --  .25 
Filter Wheel #1 Position ---------- (1) Ground quartz diffuser (ND=2.32)
Filter Wheel #2 Position ---------- (1) Neutral Density 0.494



************************************************************
HS scan start time = 05:08:10
Dark Count =  9.899999 


Time (GMT)  Wavelength (Ang)  Step Number  Raw Counts  Counts/Second

  308.53        2950.00           1222          65.00       240.19
  308.59        2950.25           1226          60.00       218.40
  308.63        2950.50           1229          70.00       261.99
  308.66        2950.75           1232          67.00       248.91
  308.69        2951.00           1236          67.00       248.91
  308.72        2951.25           1239          59.00       214.04
  308.75        2951.50           1242          55.00       196.60
  308.78        2951.75           1246          63.00       231.48
  308.81        2952.00           1249          57.00       205.32
  308.84        2952.25           1252          66.00       244.55
  308.87        2952.50           1256          64.00       235.83
  308.90        2952.75           1259          60.00       218.40
  308.94        2953.00           1262          60.00       218.40
  308.97        2953.25           1266          60.00       218.40
  309.00        2953.50           1269          59.00       214.04
  309.03        2953.75           1272          54.00       192.24
  309.06        2954.00           1276          56.00       200.96
  309.09        2954.25           1279          65.00       240.19
  309.12        2954.50           1282          54.00       192.24
  309.15        2954.75           1286          65.00       240.19
  309.18        2955.00           1289          60.00       218.40
  309.22        2955.25           1292          62.00       227.12
  309.25        2955.50           1296          55.00       196.60
  309.28        2955.75           1299          68.00       253.27
  309.31        2956.00           1302          64.00       235.83
  309.34        2956.25           1306          57.00       205.32
  309.37        2956.50           1309          65.00       240.19
  309.40        2956.75           1312          60.00       218.40
  309.43        2957.00           1316          57.00       205.32
  309.46        2957.25           1319          57.00       205.32
  309.49        2957.50           1322          55.00       196.60
  309.52        2957.75           1326          60.00       218.40
  309.55        2958.00           1329          59.00       214.04
  309.58        2958.25           1332          63.00       231.48
  309.61        2958.50           1336          54.00       192.24
  309.64        2958.75           1339          59.00       214.04
  309.68        2959.00           1342          66.00       244.55
  309.71        2959.25           1346          71.00       266.35
  309.74        2959.50           1349          79.00       301.22
  309.77        2959.75           1352          79.00       301.22
  309.80        2960.00           1356         115.00       458.16
  309.83        2960.25           1359         140.00       567.14
  309.86        2960.50           1362         196.00       811.27
  309.89        2960.75           1366         243.00      1016.16
  309.92        2961.00           1369         268.00      1125.15
  309.95        2961.25           1372         315.00      1330.04
  309.99        2961.50           1376         415.00      1766.00
  310.02        2961.75           1379         721.00      3100.11
  310.05        2962.00           1382        1662.00      7203.39
  310.08        2962.25           1386        3406.00     14810.85
  310.11        2962.50           1389        4753.00     20688.95
  310.14        2962.75           1392        6362.00     27713.10
  310.17        2963.00           1396        8376.00     36509.45
  310.20        2963.25           1399        9956.00     43413.53
  310.23        2963.50           1402       11438.00     49891.97
  310.26        2963.75           1406       13668.00     59644.99
  310.30        2964.00           1409       15138.00     66077.24
  310.33        2964.25           1412       16475.00     71929.68
  310.36        2964.50           1416       18770.00     81980.36
  310.39        2964.75           1419       20164.00     88088.19
  310.42        2965.00           1422       21647.00     94588.43
  310.45        2965.25           1426       23648.00    103363.20
  310.48        2965.50           1429       25341.00    110790.90
  310.51        2965.75           1432       26821.00    117286.90
  310.54        2966.00           1436       28634.00    125247.90
  310.57        2966.25           1439       30236.00    132285.50
  310.61        2966.50           1442       31575.00    138170.10
  310.64        2966.75           1446       32489.00    142188.10
  310.67        2967.00           1449       32571.00    142548.60
  310.70        2967.25           1452       32601.00    142680.50
  310.73        2967.50           1456       32548.00    142447.50
  310.76        2967.75           1459       32445.00    141994.60
  310.79        2968.00           1462       32226.00    141031.80
  310.82        2968.25           1466       30668.00    134183.80
  310.85        2968.50           1469       29308.00    128208.40
  310.89        2968.75           1472       27838.00    121752.10
  310.92        2969.00           1476       25908.00    113279.30
  310.95        2969.25           1479       24399.00    106657.60
  310.98        2969.50           1482       22798.00     99635.21
  311.01        2969.75           1486       20849.00     91090.35
  311.04        2970.00           1489       19240.00     84039.42
  311.07        2970.25           1492       17841.00     77911.19
  311.10        2970.50           1496       15971.00     69723.28
  311.13        2970.75           1499       14598.00     63714.09
  311.16        2971.00           1502       12923.00     56386.06
  311.19        2971.25           1506       10970.00     47845.87
  311.23        2971.50           1509        9431.00     41119.13
  311.26        2971.75           1513        7327.00     31927.26
  311.29        2972.00           1516        5699.00     24818.39
  311.32        2972.25           1519        4200.00     18275.49
  311.35        2972.50           1523        2460.00     10683.90
  311.38        2972.75           1526        1255.00      5428.52
  311.41        2973.00           1529         612.00      2624.88
  311.44        2973.25           1533         368.00      1561.10
  311.47        2973.50           1536         314.00      1325.68
  311.50        2973.75           1539         254.00      1064.11
  311.53        2974.00           1543         207.00       859.22
  311.56        2974.25           1546         161.00       658.69
  311.60        2974.50           1549         117.00       466.88
  311.63        2974.75           1553          88.00       340.46
  311.66        2975.00           1556          65.00       240.19
  311.69        2975.25           1559          58.00       209.68
  311.72        2975.50           1563          65.00       240.19
  311.75        2975.75           1566          57.00       205.32
  311.78        2976.00           1569          55.00       196.60
  311.81        2976.25           1573          59.00       214.04
  311.84        2976.50           1576          54.00       192.24
  311.87        2976.75           1579          59.00       214.04
  311.90        2977.00           1583          61.00       222.76
  311.93        2977.25           1586          61.00       222.76
  311.97        2977.50           1590          61.00       222.76
  312.00        2977.75           1593          57.00       205.32
  312.03        2978.00           1596          58.00       209.68
  312.06        2978.25           1600          55.00       196.60
  312.09        2978.50           1603          64.00       235.83
  312.12        2978.75           1606          57.00       205.32
  312.15        2979.00           1610          53.00       187.88
  312.18        2979.25           1613          50.00       174.80
  312.21        2979.50           1616          54.00       192.24
  312.24        2979.75           1620          58.00       209.68
  312.27        2980.00           1623          52.00       183.52
  312.30        2980.25           1626          61.00       222.76
  312.34        2980.50           1630          62.00       227.12
  312.37        2980.75           1633          58.00       209.68
  312.40        2981.00           1637          65.00       240.19
  312.43        2981.25           1640          61.00       222.76
  312.46        2981.50           1643          48.00       166.09
  312.49        2981.75           1647          53.00       187.88
  312.52        2982.00           1650          53.00       187.88
  312.55        2982.25           1653          53.00       187.88
  312.58        2982.50           1657          55.00       196.60
  312.61        2982.75           1660          47.00       161.73
  312.65        2983.00           1663          57.00       205.32
  312.68        2983.25           1667          49.00       170.45
  312.71        2983.50           1670          53.00       187.88
  312.74        2983.75           1673          59.00       214.04
  312.77        2984.00           1677          51.00       179.16
HS scan finished at 05:12:59
end
************************************************************
  HS Scan of (1) Internal mercury lamp
************************************************************
Integration time is 0.2294 seconds per sample
dh300118Manchester 53.47 2.23 2.804185pr1000
************************************************************
Dead Time -------------------------  3E-08 
Number of Cycles Used -------------  4 
Starting Wavelength (Angstroms) ---  2950 
Final Wavelength (Angstoms) -------  2984 
Wavelength Increment (Angstroms) --  .25 
Filter Wheel #1 Position ---------- (1) Ground quartz diffuser (ND=2.32)
Filter Wheel #2 Position ---------- (1) Neutral Density 0.494



************************************************************
HS scan start time = 18:42:00
Dark Count =  5.8 


Time (GMT)  Wavelength (Ang)  Step Number  Raw Counts  Counts/Second

 1122.37        2950.00           1222          58.00       227.55
 1122.44        2950.25           1226          60.00       236.27
 1122.47        2950.50           1229          59.00       231.91
 1122.50        2950.75           1232          56.00       218.83
 1122.53        2951.00           1236          64.00       253.71
 1122.56        2951.25           1239          62.00       244.99
 1122.59        2951.50           1242          65.00       258.07
 1122.62        2951.75           1246          64.00       253.71
 1122.65        2952.00           1249          57.00       223.19
 1122.68        2952.25           1252          61.00       240.63
 1122.71        2952.50           1256          62.00       244.99
 1122.74        2952.75           1259          53.00       205.76
 1122.77        2953.00           1262          68.00       271.14
 1122.81        2953.25           1266          56.00       218.83
 1122.84        2953.50           1269          62.00       244.99
 1122.87        2953.75           1272          59.00       231.91
 1122.90        2954.00           1276          69.00       275.50
 1122.93        2954.25           1279          66.00       262.43
 1122.96        2954.50           1282          61.00       240.63
 1122.99        2954.75           1286          70.00       279.86
 1123.02        2955.00           1289          65.00       258.07
 1123.05        2955.25           1292          71.00       284.22
 1123.08        2955.50           1296          59.00       231.91
 1123.12        2955.75           1299          60.00       236.27
 1123.15        2956.00           1302          58.00       227.55
 1123.18        2956.25           1306          65.00       258.07
 1123.21        2956.50           1309          59.00       231.91
 1123.24        2956.75           1312          66.00       262.43
 1123.27        2957.00           1316          59.00       231.91
 1123.30        2957.25           1319          69.00       275.50
 1123.33        2957.50           1322          62.00       244.99
 1123.36        2957.75           1326          61.00       240.63
 1123.39        2958.00           1329          66.00       262.43
 1123.42        2958.25           1332          62.00       244.99
 1123.45        2958.50           1336          60.00       236.27
 1123.48        2958.75           1339          58.00       227.55
 1123.51        2959.00           1342          58.00       227.55
 1123.55        2959.25           1346          62.00       244.99
 1123.58        2959.50           1349          70.00       279.86
 1123.61        2959.75           1352          88.00       358.33
 1123.64        2960.00           1356         111.00       458.59
 1123.67        2960.25           1359         132.00       550.14
 1123.70        2960.50           1362         173.00       728.87
 1123.73        2960.75           1366         218.00       925.05
 1123.76        2961.00           1369         273.00      1164.82
 1123.79        2961.25           1372         299.00      1278.17
 1123.82        2961.50           1376         379.00      1626.93
 1123.85        2961.75           1379         561.00      2420.40
 1123.88        2962.00           1382        1249.00      5420.24
 1123.92        2962.25           1386        2878.00     12525.19
 1123.95        2962.50           1389        4246.00     18494.13
 1123.98        2962.75           1392        5638.00     24569.98
 1124.01        2963.00           1396        7636.00     33294.79
 1124.04        2963.25           1399        9094.00     39664.44
 1124.07        2963.50           1402       10548.00     46019.03
 1124.10        2963.75           1406       12661.00     55258.06
 1124.13        2964.00           1409       14262.00     62261.79
 1124.16        2964.25           1412       15889.00     69382.28
 1124.20        2964.50           1416       18041.00     78805.10
 1124.23        2964.75           1419       19543.00     85384.96
 1124.26        2965.00           1422       21016.00     91840.31
 1124.29        2965.25           1426       23077.00    100876.80
 1124.32        2965.50           1429       24713.00    108053.30
 1124.35        2965.75           1432       26226.00    114693.00
 1124.38        2966.00           1436       28194.00    123333.40
 1124.41        2966.25           1439       29521.00    129162.10
 1124.44        2966.50           1442       30803.00    134795.10
 1124.47        2966.75           1446       32176.00    140830.00
 1124.51        2967.00           1449       32607.00    142724.90
 1124.54        2967.25           1452       32597.00    142680.90
 1124.57        2967.50           1456       32728.00    143256.90
 1124.60        2967.75           1459       32495.00    142232.50
 1124.63        2968.00           1462       32516.00    142324.80
 1124.66        2968.25           1466       31456.00    137665.00
 1124.69        2968.50           1469       30127.00    131824.60
 1124.72        2968.75           1472       28869.00    126298.00
 1124.75        2969.00           1476       26899.00    117647.30
 1124.79        2969.25           1479       25586.00    111884.10
 1124.82        2969.50           1482       23932.00    104626.90
 1124.85        2969.75           1486       21965.00     96000.59
 1124.88        2970.00           1489       20572.00     89894.24
 1124.91        2970.25           1492       18955.00     82808.78
 1124.94        2970.50           1496       17107.00     74714.80
 1124.97        2970.75           1499       15621.00     68209.18
 1125.00        2971.00           1502       13980.00     61027.94
 1125.03        2971.25           1506       11939.00     52100.56
 1125.06        2971.50           1509       10541.00     45988.43
 1125.10        2971.75           1513        8684.00     37873.00
 1125.13        2972.00           1516        7183.00     31316.25
 1125.16        2972.25           1519        5750.00     25058.94
 1125.19        2972.50           1523        3833.00     16691.88
 1125.22        2972.75           1526        2295.00      9982.06
 1125.25        2973.00           1529        1066.00      4622.26
 1125.28        2973.25           1533         443.00      1905.95
 1125.31        2973.50           1536         334.00      1430.75
 1125.34        2973.75           1539         286.00      1221.49
 1125.37        2974.00           1543         228.00       968.64
 1125.40        2974.25           1546         177.00       746.31
 1125.44        2974.50           1549         140.00       585.01
 1125.47        2974.75           1553          92.00       375.77
 1125.50        2975.00           1556          74.00       297.30
 1125.53        2975.25           1559          68.00       271.14
 1125.56        2975.50           1563          52.00       201.40
 1125.59        2975.75           1566          58.00       227.55
 1125.62        2976.00           1569          48.00       183.96
 1125.65        2976.25           1573          63.00       249.35
 1125.68        2976.50           1576          56.00       218.83
 1125.71        2976.75           1579          56.00       218.83
 1125.74        2977.00           1583          66.00       262.43
 1125.77        2977.25           1586          65.00       258.07
 1125.80        2977.50           1590          59.00       231.91
 1125.84        2977.75           1593          60.00       236.27
 1125.87        2978.00           1596          64.00       253.71
 1125.90        2978.25           1600          63.00       249.35
 1125.93        2978.50           1603          52.00       201.40
 1125.96        2978.75           1606          49.00       188.32
 1125.99        2979.00           1610          52.00       201.40
 1126.02        2979.25           1613          60.00       236.27
 1126.05        2979.50           1616          58.00       227.55
 1126.08        2979.75           1620          55.00       214.47
 1126.11        2980.00           1623          49.00       188.32
 1126.15        2980.25           1626          65.00       258.07
 1126.18        2980.50           1630          64.00       253.71
 1126.21        2980.75           1633          56.00       218.83
 1126.24        2981.00           1637          59.00       231.91
 1126.27        2981.25           1640          60.00       236.27
 1126.30        2981.50           1643          50.00       192.68
 1126.33        2981.75           1647          52.00       201.40
 1126.36        2982.00           1650          63.00       249.35
 1126.39        2982.25           1653          58.00       227.55
 1126.42        2982.50           1657          57.00       223.19
 1126.45        2982.75           1660          59.00       231.91
 1126.48        2983.00           1663          55.00       214.47
 1126.52        2983.25           1667          57.00       223.19
 1126.55        2983.50           1670          53.00       205.76
 1126.58        2983.75           1673          50.00       192.68
 1126.61        2984.00           1677          58.00       227.55
HS scan finished at 18:46:50
end
