************************************************************
  HS Scan of (1) Internal mercury lamp
************************************************************
Integration time is 0.2294 seconds per sample
dh060217Manchester 53.47 2.23 2.750537pr1000
************************************************************
Dead Time -------------------------  3E-08 
Number of Cycles Used -------------  4 
Starting Wavelength (Angstroms) ---  2950 
Final Wavelength (Angstoms) -------  2984 
Wavelength Increment (Angstroms) --  .25 
Filter Wheel #1 Position ---------- (1) Ground quartz diffuser (ND=2.32)
Filter Wheel #2 Position ---------- (1) Neutral Density 0.494



************************************************************
HS scan start time = 04:58:38
Dark Count =  6.4 


Time (GMT)  Wavelength (Ang)  Step Number  Raw Counts  Counts/Second

  299.00        2950.00           1222          50.00       190.06
  299.06        2950.25           1226          45.00       168.27
  299.09        2950.50           1229          41.00       150.83
  299.13        2950.75           1232          40.00       146.47
  299.16        2951.00           1236          44.00       163.91
  299.19        2951.25           1239          49.00       185.70
  299.22        2951.50           1242          46.00       172.63
  299.25        2951.75           1246          49.00       185.70
  299.28        2952.00           1249          50.00       190.06
  299.31        2952.25           1252          39.00       142.11
  299.34        2952.50           1256          39.00       142.11
  299.37        2952.75           1259          44.00       163.91
  299.40        2953.00           1262          45.00       168.27
  299.43        2953.25           1266          37.00       133.39
  299.46        2953.50           1269          42.00       155.19
  299.49        2953.75           1272          48.00       181.34
  299.52        2954.00           1276          41.00       150.83
  299.55        2954.25           1279          41.00       150.83
  299.59        2954.50           1282          47.00       176.98
  299.62        2954.75           1286          41.00       150.83
  299.65        2955.00           1289          45.00       168.27
  299.68        2955.25           1292          50.00       190.06
  299.71        2955.50           1296          45.00       168.27
  299.74        2955.75           1299          47.00       176.98
  299.77        2956.00           1302          45.00       168.27
  299.80        2956.25           1306          42.00       155.19
  299.83        2956.50           1309          40.00       146.47
  299.86        2956.75           1312          52.00       198.78
  299.89        2957.00           1316          45.00       168.27
  299.93        2957.25           1319          43.00       159.55
  299.96        2957.50           1322          43.00       159.55
  299.99        2957.75           1326          47.00       176.98
  300.02        2958.00           1329          47.00       176.98
  300.05        2958.25           1332          49.00       185.70
  300.08        2958.50           1336          38.00       137.75
  300.11        2958.75           1339          40.00       146.47
  300.14        2959.00           1342          58.00       224.94
  300.17        2959.25           1346          49.00       185.70
  300.20        2959.50           1349          47.00       176.98
  300.24        2959.75           1352          55.00       211.86
  300.27        2960.00           1356          81.00       325.20
  300.30        2960.25           1359         112.00       460.34
  300.33        2960.50           1362         133.00       551.88
  300.36        2960.75           1366         202.00       852.68
  300.39        2961.00           1369         231.00       979.10
  300.42        2961.25           1372         285.00      1214.52
  300.45        2961.50           1376         422.00      1811.78
  300.48        2961.75           1379         737.00      3185.13
  300.51        2962.00           1382        1544.00      6704.05
  300.54        2962.25           1386        3433.00     14943.93
  300.58        2962.50           1389        4989.00     21734.31
  300.61        2962.75           1392        6562.00     28601.69
  300.64        2963.00           1396        8638.00     37669.40
  300.67        2963.25           1399       10219.00     44578.32
  300.70        2963.50           1402       11927.00     52045.46
  300.73        2963.75           1406       14104.00     61567.84
  300.76        2964.00           1409       15994.00     69839.28
  300.79        2964.25           1412       17915.00     78250.62
  300.82        2964.50           1416       20240.00     88436.58
  300.85        2964.75           1419       21845.00     95471.84
  300.89        2965.00           1422       23372.00    102167.90
  300.92        2965.25           1426       25645.00    112140.40
  300.95        2965.50           1429       27172.00    118843.20
  300.98        2965.75           1432       29031.00    127007.00
  301.01        2966.00           1436       31109.00    136137.30
  301.04        2966.25           1439       32473.00    142133.10
  301.07        2966.50           1442       34140.00    149463.80
  301.10        2966.75           1446       35466.00    155297.30
  301.13        2967.00           1449       35687.00    156269.70
  301.17        2967.25           1452       35694.00    156300.50
  301.20        2967.50           1456       35672.00    156203.70
  301.23        2967.75           1459       35433.00    155152.10
  301.26        2968.00           1462       35198.00    154118.10
  301.29        2968.25           1466       34132.00    149428.60
  301.32        2968.50           1469       32709.00    143170.70
  301.35        2968.75           1472       31240.00    136713.00
  301.38        2969.00           1476       29023.00    126971.80
  301.41        2969.25           1479       27500.00    120283.30
  301.45        2969.50           1482       25979.00    113606.20
  301.48        2969.75           1486       23699.00    103602.20
  301.51        2970.00           1489       22024.00     96256.64
  301.54        2970.25           1492       20441.00     89317.49
  301.57        2970.50           1496       18273.00     79818.63
  301.60        2970.75           1499       16580.00     72404.71
  301.63        2971.00           1502       14827.00     64731.51
  301.66        2971.25           1506       12620.00     55076.11
  301.69        2971.50           1509       10880.00     47467.73
  301.73        2971.75           1513        8813.00     38434.00
  301.76        2972.00           1516        7290.00     31780.94
  301.79        2972.25           1519        5789.00     25226.58
  301.82        2972.50           1523        3721.00     16200.55
  301.85        2972.75           1526        2204.00      9582.53
  301.88        2973.00           1529        1026.00      4445.23
  301.91        2973.25           1533         503.00      2164.92
  301.94        2973.50           1536         350.00      1497.89
  301.97        2973.75           1539         306.00      1306.07
  302.00        2974.00           1543         257.00      1092.45
  302.04        2974.25           1546         194.00       817.81
  302.07        2974.50           1549         153.00       639.07
  302.10        2974.75           1553          95.00       386.23
  302.13        2975.00           1556          73.00       290.33
  302.16        2975.25           1559          56.00       216.22
  302.19        2975.50           1563          48.00       181.34
  302.22        2975.75           1566          45.00       168.27
  302.25        2976.00           1569          43.00       159.55
  302.28        2976.25           1573          54.00       207.50
  302.31        2976.50           1576          53.00       203.14
  302.34        2976.75           1579          49.00       185.70
  302.37        2977.00           1583          49.00       185.70
  302.41        2977.25           1586          45.00       168.27
  302.44        2977.50           1590          45.00       168.27
  302.47        2977.75           1593          51.00       194.42
  302.50        2978.00           1596          39.00       142.11
  302.53        2978.25           1600          47.00       176.98
  302.56        2978.50           1603          49.00       185.70
  302.59        2978.75           1606          40.00       146.47
  302.62        2979.00           1610          40.00       146.47
  302.65        2979.25           1613          56.00       216.22
  302.68        2979.50           1616          39.00       142.11
  302.71        2979.75           1620          42.00       155.19
  302.75        2980.00           1623          45.00       168.27
  302.78        2980.25           1626          36.00       129.03
  302.81        2980.50           1630          45.00       168.27
  302.84        2980.75           1633          41.00       150.83
  302.87        2981.00           1637          44.00       163.91
  302.90        2981.25           1640          41.00       150.83
  302.93        2981.50           1643          37.00       133.39
  302.96        2981.75           1647          52.00       198.78
  302.99        2982.00           1650          43.00       159.55
  303.02        2982.25           1653          48.00       181.34
  303.05        2982.50           1657          49.00       185.70
  303.08        2982.75           1660          45.00       168.27
  303.11        2983.00           1663          41.00       150.83
  303.14        2983.25           1667          46.00       172.63
  303.17        2983.50           1670          42.00       155.19
  303.20        2983.75           1673          46.00       172.63
  303.23        2984.00           1677          36.00       129.03
HS scan finished at 05:03:27
end
************************************************************
  HS Scan of (1) Internal mercury lamp
************************************************************
Integration time is 0.2294 seconds per sample
dh060217Manchester 53.47 2.23 2.750537pr1000
************************************************************
Dead Time -------------------------  3E-08 
Number of Cycles Used -------------  4 
Starting Wavelength (Angstroms) ---  2950 
Final Wavelength (Angstoms) -------  2984 
Wavelength Increment (Angstroms) --  .25 
Filter Wheel #1 Position ---------- (1) Ground quartz diffuser (ND=2.32)
Filter Wheel #2 Position ---------- (1) Neutral Density 0.494



************************************************************
HS scan start time = 18:12:01
Dark Count =  7.4 


Time (GMT)  Wavelength (Ang)  Step Number  Raw Counts  Counts/Second

 1092.39        2950.00           1222          40.00       142.11
 1092.46        2950.25           1226          41.00       146.47
 1092.49        2950.50           1229          41.00       146.47
 1092.52        2950.75           1232          46.00       168.27
 1092.55        2951.00           1236          42.00       150.83
 1092.58        2951.25           1239          41.00       146.47
 1092.61        2951.50           1242          47.00       172.63
 1092.64        2951.75           1246          48.00       176.98
 1092.67        2952.00           1249          39.00       137.75
 1092.70        2952.25           1252          36.00       124.67
 1092.73        2952.50           1256          40.00       142.11
 1092.76        2952.75           1259          48.00       176.98
 1092.79        2953.00           1262          44.00       159.55
 1092.82        2953.25           1266          40.00       142.11
 1092.86        2953.50           1269          41.00       146.47
 1092.89        2953.75           1272          45.00       163.91
 1092.92        2954.00           1276          44.00       159.55
 1092.95        2954.25           1279          49.00       181.34
 1092.98        2954.50           1282          46.00       168.27
 1093.01        2954.75           1286          43.00       155.19
 1093.04        2955.00           1289          45.00       163.91
 1093.07        2955.25           1292          43.00       155.19
 1093.10        2955.50           1296          42.00       150.83
 1093.13        2955.75           1299          54.00       203.14
 1093.17        2956.00           1302          38.00       133.39
 1093.20        2956.25           1306          42.00       150.83
 1093.23        2956.50           1309          43.00       155.19
 1093.26        2956.75           1312          50.00       185.70
 1093.29        2957.00           1316          47.00       172.63
 1093.32        2957.25           1319          40.00       142.11
 1093.35        2957.50           1322          45.00       163.91
 1093.38        2957.75           1326          39.00       137.75
 1093.41        2958.00           1329          42.00       150.83
 1093.44        2958.25           1332          49.00       181.34
 1093.47        2958.50           1336          45.00       163.91
 1093.50        2958.75           1339          40.00       142.11
 1093.53        2959.00           1342          47.00       172.63
 1093.57        2959.25           1346          51.00       190.06
 1093.60        2959.50           1349          51.00       190.06
 1093.63        2959.75           1352          61.00       233.65
 1093.66        2960.00           1356          79.00       312.12
 1093.69        2960.25           1359         116.00       473.42
 1093.72        2960.50           1362         161.00       669.59
 1093.75        2960.75           1366         191.00       800.37
 1093.78        2961.00           1369         237.00      1000.90
 1093.81        2961.25           1372         282.00      1197.08
 1093.85        2961.50           1376         389.00      1663.55
 1093.88        2961.75           1379         616.00      2653.22
 1093.91        2962.00           1382        1285.00      5570.24
 1093.94        2962.25           1386        2877.00     12513.85
 1093.97        2962.50           1389        4335.00     18875.55
 1094.00        2962.75           1392        6000.00     26143.43
 1094.03        2963.00           1396        8294.00     36162.14
 1094.06        2963.25           1399        9947.00     43385.12
 1094.09        2963.50           1402       11616.00     50681.19
 1094.12        2963.75           1406       13630.00     59489.69
 1094.16        2964.00           1409       15516.00     67742.59
 1094.19        2964.25           1412       17138.00     74843.54
 1094.22        2964.50           1416       19311.00     84361.44
 1094.25        2964.75           1419       21005.00     91785.08
 1094.28        2965.00           1422       22542.00     98523.56
 1094.31        2965.25           1426       24609.00    107590.00
 1094.34        2965.50           1429       26356.00    115256.60
 1094.37        2965.75           1432       28237.00    123515.20
 1094.40        2966.00           1436       30537.00    133619.10
 1094.44        2966.25           1439       32249.00    141143.90
 1094.47        2966.50           1442       33398.00    146196.00
 1094.50        2966.75           1446       34748.00    152133.90
 1094.53        2967.00           1449       35213.00    154179.70
 1094.56        2967.25           1452       35070.00    153550.50
 1094.59        2967.50           1456       35050.00    153462.50
 1094.62        2967.75           1459       35348.00    154773.70
 1094.65        2968.00           1462       35032.00    153383.40
 1094.68        2968.25           1466       34114.00    149345.10
 1094.71        2968.50           1469       32624.00    142792.60
 1094.75        2968.75           1472       31051.00    135878.00
 1094.78        2969.00           1476       28792.00    125952.80
 1094.81        2969.25           1479       27281.00    119317.40
 1094.84        2969.50           1482       25678.00    112280.80
 1094.87        2969.75           1486       23415.00    102352.20
 1094.90        2970.00           1489       21687.00     94774.75
 1094.93        2970.25           1492       20221.00     88348.94
 1094.96        2970.50           1496       18178.00     79398.15
 1095.00        2970.75           1499       16667.00     72781.24
 1095.03        2971.00           1502       15091.00     65882.49
 1095.06        2971.25           1506       12967.00     56589.45
 1095.09        2971.50           1509       11331.00     49435.08
 1095.12        2971.75           1513        9064.00     39526.35
 1095.15        2972.00           1516        7364.00     32099.77
 1095.18        2972.25           1519        5689.00     24785.65
 1095.21        2972.50           1523        3693.00     16074.01
 1095.24        2972.75           1526        2285.00      9931.47
 1095.28        2973.00           1529        1104.00      4780.98
 1095.31        2973.25           1533         485.00      2082.08
 1095.34        2973.50           1536         357.00      1524.05
 1095.37        2973.75           1539         303.00      1288.63
 1095.40        2974.00           1543         241.00      1018.34
 1095.43        2974.25           1546         181.00       756.77
 1095.46        2974.50           1549         134.00       551.88
 1095.49        2974.75           1553          89.00       355.71
 1095.52        2975.00           1556          65.00       251.09
 1095.55        2975.25           1559          51.00       190.06
 1095.58        2975.50           1563          48.00       176.98
 1095.61        2975.75           1566          43.00       155.19
 1095.65        2976.00           1569          42.00       150.83
 1095.68        2976.25           1573          46.00       168.27
 1095.71        2976.50           1576          41.00       146.47
 1095.74        2976.75           1579          44.00       159.55
 1095.77        2977.00           1583          49.00       181.34
 1095.80        2977.25           1586          46.00       168.27
 1095.83        2977.50           1590          52.00       194.42
 1095.86        2977.75           1593          45.00       163.91
 1095.89        2978.00           1596          41.00       146.47
 1095.92        2978.25           1600          40.00       142.11
 1095.96        2978.50           1603          53.00       198.78
 1095.99        2978.75           1606          45.00       163.91
 1096.02        2979.00           1610          52.00       194.42
 1096.05        2979.25           1613          39.00       137.75
 1096.08        2979.50           1616          43.00       155.19
 1096.11        2979.75           1620          51.00       190.06
 1096.14        2980.00           1623          40.00       142.11
 1096.17        2980.25           1626          45.00       163.91
 1096.20        2980.50           1630          42.00       150.83
 1096.23        2980.75           1633          47.00       172.63
 1096.26        2981.00           1637          44.00       159.55
 1096.29        2981.25           1640          44.00       159.55
 1096.33        2981.50           1643          44.00       159.55
 1096.36        2981.75           1647          42.00       150.83
 1096.39        2982.00           1650          38.00       133.39
 1096.42        2982.25           1653          39.00       137.75
 1096.45        2982.50           1657          47.00       172.63
 1096.48        2982.75           1660          44.00       159.55
 1096.51        2983.00           1663          53.00       198.78
 1096.54        2983.25           1667          42.00       150.83
 1096.57        2983.50           1670          45.00       163.91
 1096.60        2983.75           1673          41.00       146.47
 1096.63        2984.00           1677          47.00       172.63
HS scan finished at 18:16:51
end
