************************************************************
  HS Scan of (1) Internal mercury lamp
************************************************************
Integration time is 0.2294 seconds per sample
dh060219Manchester 53.47 2.23 2.804185pr1000
************************************************************
Dead Time -------------------------  3E-08 
Number of Cycles Used -------------  4 
Starting Wavelength (Angstroms) ---  2950 
Final Wavelength (Angstoms) -------  2984 
Wavelength Increment (Angstroms) --  .25 
Filter Wheel #1 Position ---------- (1) Ground quartz diffuser (ND=2.32)
Filter Wheel #2 Position ---------- (1) Neutral Density 0.494



************************************************************
HS scan start time = 04:58:20
Dark Count =  4.1 


Time (GMT)  Wavelength (Ang)  Step Number  Raw Counts  Counts/Second

  298.71        2950.00           1222          55.00       221.88
  298.78        2950.25           1226          58.00       234.96
  298.81        2950.50           1229          50.00       200.09
  298.84        2950.75           1232          54.00       217.53
  298.87        2951.00           1236          54.00       217.53
  298.90        2951.25           1239          50.00       200.09
  298.93        2951.50           1242          52.00       208.81
  298.96        2951.75           1246          59.00       239.32
  298.99        2952.00           1249          58.00       234.96
  299.02        2952.25           1252          49.00       195.73
  299.06        2952.50           1256          55.00       221.88
  299.09        2952.75           1259          57.00       230.60
  299.12        2953.00           1262          56.00       226.24
  299.15        2953.25           1266          51.00       204.45
  299.18        2953.50           1269          50.00       200.09
  299.21        2953.75           1272          50.00       200.09
  299.24        2954.00           1276          60.00       243.68
  299.27        2954.25           1279          56.00       226.24
  299.30        2954.50           1282          47.00       187.01
  299.33        2954.75           1286          47.00       187.01
  299.37        2955.00           1289          54.00       217.53
  299.40        2955.25           1292          59.00       239.32
  299.43        2955.50           1296          48.00       191.37
  299.46        2955.75           1299          47.00       187.01
  299.49        2956.00           1302          52.00       208.81
  299.52        2956.25           1306          52.00       208.81
  299.55        2956.50           1309          52.00       208.81
  299.58        2956.75           1312          59.00       239.32
  299.61        2957.00           1316          58.00       234.96
  299.64        2957.25           1319          56.00       226.24
  299.68        2957.50           1322          53.00       213.17
  299.71        2957.75           1326          55.00       221.88
  299.74        2958.00           1329          53.00       213.17
  299.77        2958.25           1332          51.00       204.45
  299.80        2958.50           1336          51.00       204.45
  299.83        2958.75           1339          57.00       230.60
  299.86        2959.00           1342          50.00       200.09
  299.89        2959.25           1346          54.00       217.53
  299.92        2959.50           1349          63.00       256.76
  299.95        2959.75           1352          78.00       322.15
  299.98        2960.00           1356          88.00       365.74
  300.01        2960.25           1359         110.00       461.65
  300.04        2960.50           1362         128.00       540.11
  300.08        2960.75           1366         171.00       727.57
  300.11        2961.00           1369         206.00       880.15
  300.14        2961.25           1372         243.00      1041.44
  300.17        2961.50           1376         312.00      1342.25
  300.20        2961.75           1379         443.00      1913.36
  300.23        2962.00           1382         936.00      4062.83
  300.26        2962.25           1386        2209.00      9614.37
  300.29        2962.50           1389        3371.00     14683.45
  300.32        2962.75           1392        4561.00     19876.28
  300.35        2963.00           1396        6079.00     26502.76
  300.38        2963.25           1399        7229.00     31524.57
  300.42        2963.50           1402        8394.00     36613.43
  300.45        2963.75           1406        9993.00     43600.59
  300.48        2964.00           1409       11216.00     48946.72
  300.51        2964.25           1412       12661.00     55265.49
  300.54        2964.50           1416       14362.00     62706.79
  300.57        2964.75           1419       15394.00     67223.06
  300.60        2965.00           1422       16691.00     72900.76
  300.63        2965.25           1426       18253.00     79741.11
  300.66        2965.50           1429       19299.00     84323.34
  300.70        2965.75           1432       20577.00     89923.61
  300.73        2966.00           1436       22196.00     97020.88
  300.76        2966.25           1439       23284.00    101792.10
  300.79        2966.50           1442       24124.00    105476.70
  300.82        2966.75           1446       25565.00    111799.40
  300.85        2967.00           1449       25929.00    113396.90
  300.88        2967.25           1452       25733.00    112536.70
  300.91        2967.50           1456       25614.00    112014.40
  300.94        2967.75           1459       25754.00    112628.80
  300.98        2968.00           1462       25803.00    112843.90
  301.01        2968.25           1466       24910.00    108925.10
  301.04        2968.50           1469       23918.00    104573.00
  301.07        2968.75           1472       22893.00    100077.30
  301.10        2969.00           1476       21506.00     93995.72
  301.13        2969.25           1479       20188.00     88218.78
  301.16        2969.50           1482       19103.00     83464.62
  301.19        2969.75           1486       17496.00     76425.68
  301.22        2970.00           1489       16237.00     70913.13
  301.25        2970.25           1492       15250.00     66592.80
  301.29        2970.50           1496       13585.00     59307.26
  301.32        2970.75           1499       12272.00     53564.22
  301.35        2971.00           1502       11204.00     48894.25
  301.38        2971.25           1506        9505.00     41467.86
  301.41        2971.50           1509        8232.00     35905.70
  301.44        2971.75           1513        6812.00     29703.44
  301.47        2972.00           1516        5721.00     24939.76
  301.50        2972.25           1519        4613.00     20103.23
  301.53        2972.50           1523        3052.00     13291.70
  301.56        2972.75           1526        1954.00      8502.17
  301.60        2973.00           1529         912.00      3958.19
  301.63        2973.25           1533         351.00      1512.27
  301.66        2973.50           1536         275.00      1180.95
  301.69        2973.75           1539         220.00       941.18
  301.72        2974.00           1543         183.00       779.88
  301.75        2974.25           1546         141.00       596.78
  301.78        2974.50           1549         122.00       513.96
  301.81        2974.75           1553          91.00       378.82
  301.84        2975.00           1556          69.00       282.91
  301.87        2975.25           1559          54.00       217.53
  301.90        2975.50           1563          59.00       239.32
  301.94        2975.75           1566          52.00       208.81
  301.97        2976.00           1569          50.00       200.09
  302.00        2976.25           1573          49.00       195.73
  302.03        2976.50           1576          50.00       200.09
  302.06        2976.75           1579          53.00       213.17
  302.09        2977.00           1583          54.00       217.53
  302.12        2977.25           1586          52.00       208.81
  302.15        2977.50           1590          50.00       200.09
  302.18        2977.75           1593          63.00       256.76
  302.21        2978.00           1596          50.00       200.09
  302.25        2978.25           1600          56.00       226.24
  302.28        2978.50           1603          49.00       195.73
  302.31        2978.75           1606          53.00       213.17
  302.34        2979.00           1610          71.00       291.63
  302.37        2979.25           1613          50.00       200.09
  302.40        2979.50           1616          50.00       200.09
  302.43        2979.75           1620          49.00       195.73
  302.46        2980.00           1623          49.00       195.73
  302.49        2980.25           1626          51.00       204.45
  302.52        2980.50           1630          49.00       195.73
  302.55        2980.75           1633          46.00       182.65
  302.59        2981.00           1637          61.00       248.04
  302.62        2981.25           1640          46.00       182.65
  302.65        2981.50           1643          48.00       191.37
  302.68        2981.75           1647          59.00       239.32
  302.71        2982.00           1650          41.00       160.86
  302.74        2982.25           1653          49.00       195.73
  302.77        2982.50           1657          50.00       200.09
  302.80        2982.75           1660          48.00       191.37
  302.83        2983.00           1663          47.00       187.01
  302.87        2983.25           1667          54.00       217.53
  302.90        2983.50           1670          57.00       230.60
  302.93        2983.75           1673          49.00       195.73
  302.96        2984.00           1677          55.00       221.88
HS scan finished at 05:03:11
end
************************************************************
  HS Scan of (1) Internal mercury lamp
************************************************************
Integration time is 0.2294 seconds per sample
dh060219Manchester 53.47 2.23 2.804185pr1000
************************************************************
Dead Time -------------------------  3E-08 
Number of Cycles Used -------------  4 
Starting Wavelength (Angstroms) ---  2950 
Final Wavelength (Angstoms) -------  2984 
Wavelength Increment (Angstroms) --  .25 
Filter Wheel #1 Position ---------- (1) Ground quartz diffuser (ND=2.32)
Filter Wheel #2 Position ---------- (1) Neutral Density 0.494



************************************************************
HS scan start time = 18:12:10
Dark Count =  6.5 


Time (GMT)  Wavelength (Ang)  Step Number  Raw Counts  Counts/Second

 1092.53        2950.00           1222          56.00       215.78
 1092.60        2950.25           1226          56.00       215.78
 1092.63        2950.50           1229          65.00       255.02
 1092.66        2950.75           1232          59.00       228.86
 1092.69        2951.00           1236          50.00       189.63
 1092.72        2951.25           1239          52.00       198.34
 1092.75        2951.50           1242          57.00       220.14
 1092.78        2951.75           1246          61.00       237.58
 1092.82        2952.00           1249          56.00       215.78
 1092.85        2952.25           1252          46.00       172.19
 1092.88        2952.50           1256          55.00       211.42
 1092.91        2952.75           1259          49.00       185.27
 1092.94        2953.00           1262          50.00       189.63
 1092.97        2953.25           1266          56.00       215.78
 1093.00        2953.50           1269          63.00       246.30
 1093.03        2953.75           1272          49.00       185.27
 1093.06        2954.00           1276          53.00       202.70
 1093.09        2954.25           1279          57.00       220.14
 1093.12        2954.50           1282          58.00       224.50
 1093.16        2954.75           1286          50.00       189.63
 1093.19        2955.00           1289          58.00       224.50
 1093.22        2955.25           1292          57.00       220.14
 1093.25        2955.50           1296          50.00       189.63
 1093.28        2955.75           1299          55.00       211.42
 1093.31        2956.00           1302          60.00       233.22
 1093.34        2956.25           1306          59.00       228.86
 1093.37        2956.50           1309          54.00       207.06
 1093.40        2956.75           1312          51.00       193.99
 1093.43        2957.00           1316          50.00       189.63
 1093.47        2957.25           1319          64.00       250.66
 1093.50        2957.50           1322          60.00       233.22
 1093.53        2957.75           1326          66.00       259.37
 1093.56        2958.00           1329          57.00       220.14
 1093.59        2958.25           1332          52.00       198.34
 1093.62        2958.50           1336          57.00       220.14
 1093.65        2958.75           1339          53.00       202.70
 1093.68        2959.00           1342          55.00       211.42
 1093.71        2959.25           1346          56.00       215.78
 1093.74        2959.50           1349          59.00       228.86
 1093.78        2959.75           1352          63.00       246.30
 1093.81        2960.00           1356          83.00       333.48
 1093.84        2960.25           1359         117.00       481.70
 1093.87        2960.50           1362         133.00       551.45
 1093.90        2960.75           1366         172.00       721.46
 1093.93        2961.00           1369         212.00       895.84
 1093.96        2961.25           1372         239.00      1013.54
 1093.99        2961.50           1376         311.00      1327.43
 1094.02        2961.75           1379         508.00      2186.28
 1094.06        2962.00           1382        1129.00      4893.92
 1094.09        2962.25           1386        2623.00     11409.75
 1094.12        2962.50           1389        3759.00     16365.93
 1094.15        2962.75           1392        5000.00     21781.89
 1094.18        2963.00           1396        6490.00     28286.86
 1094.21        2963.25           1399        7617.00     33208.74
 1094.24        2963.50           1402        8759.00     38197.63
 1094.27        2963.75           1406       10298.00     44923.19
 1094.30        2964.00           1409       11574.00     50501.48
 1094.34        2964.25           1412       12791.00     55823.58
 1094.37        2964.50           1416       14311.00     62473.13
 1094.40        2964.75           1419       15491.00     67637.11
 1094.43        2965.00           1422       16694.00     72903.40
 1094.46        2965.25           1426       18369.00     80238.69
 1094.49        2965.50           1429       19691.00     86030.38
 1094.52        2965.75           1432       20777.00     90789.66
 1094.55        2966.00           1436       22554.00     98580.12
 1094.58        2966.25           1439       23603.00    103180.70
 1094.62        2966.50           1442       24513.00    107172.70
 1094.65        2966.75           1446       25388.00    111012.10
 1094.68        2967.00           1449       25638.00    112109.20
 1094.71        2967.25           1452       25592.00    111907.30
 1094.74        2967.50           1456       25804.00    112837.70
 1094.77        2967.75           1459       25594.00    111916.10
 1094.80        2968.00           1462       25712.00    112434.00
 1094.83        2968.25           1466       24509.00    107155.20
 1094.87        2968.50           1469       23403.00    102303.50
 1094.90        2968.75           1472       22336.00     97624.21
 1094.93        2969.00           1476       20726.00     90566.14
 1094.96        2969.25           1479       19549.00     85408.18
 1094.99        2969.50           1482       18680.00     81601.00
 1095.02        2969.75           1486       16938.00     73971.73
 1095.05        2970.00           1489       15833.00     69134.08
 1095.08        2970.25           1492       14623.00     63838.37
 1095.11        2970.50           1496       13035.00     56890.83
 1095.15        2970.75           1499       11897.00     51913.83
 1095.18        2971.00           1502       10668.00     46540.53
 1095.21        2971.25           1506        8999.00     39246.27
 1095.24        2971.50           1509        7830.00     34139.13
 1095.27        2971.75           1513        6317.00     27531.45
 1095.30        2972.00           1516        5002.00     21790.61
 1095.33        2972.25           1519        3909.00     17020.46
 1095.36        2972.50           1523        2396.00     10419.56
 1095.39        2972.75           1526        1309.00      5678.82
 1095.42        2973.00           1529         593.00      2556.87
 1095.45        2973.25           1533         320.00      1366.66
 1095.49        2973.50           1536         263.00      1118.17
 1095.52        2973.75           1539         230.00       974.31
 1095.55        2974.00           1543         177.00       743.26
 1095.58        2974.25           1546         143.00       595.04
 1095.61        2974.50           1549         119.00       490.42
 1095.64        2974.75           1553          80.00       320.40
 1095.67        2975.00           1556          66.00       259.37
 1095.70        2975.25           1559          53.00       202.70
 1095.73        2975.50           1563          47.00       176.55
 1095.76        2975.75           1566          51.00       193.99
 1095.80        2976.00           1569          59.00       228.86
 1095.83        2976.25           1573          54.00       207.06
 1095.86        2976.50           1576          48.00       180.91
 1095.89        2976.75           1579          53.00       202.70
 1095.92        2977.00           1583          52.00       198.34
 1095.95        2977.25           1586          59.00       228.86
 1095.98        2977.50           1590          46.00       172.19
 1096.01        2977.75           1593          55.00       211.42
 1096.04        2978.00           1596          49.00       185.27
 1096.08        2978.25           1600          60.00       233.22
 1096.11        2978.50           1603          48.00       180.91
 1096.14        2978.75           1606          51.00       193.99
 1096.17        2979.00           1610          50.00       189.63
 1096.20        2979.25           1613          55.00       211.42
 1096.23        2979.50           1616          52.00       198.34
 1096.26        2979.75           1620          58.00       224.50
 1096.29        2980.00           1623          48.00       180.91
 1096.32        2980.25           1626          41.00       150.39
 1096.35        2980.50           1630          45.00       167.83
 1096.38        2980.75           1633          45.00       167.83
 1096.41        2981.00           1637          50.00       189.63
 1096.45        2981.25           1640          51.00       193.99
 1096.48        2981.50           1643          49.00       185.27
 1096.51        2981.75           1647          56.00       215.78
 1096.54        2982.00           1650          52.00       198.34
 1096.57        2982.25           1653          50.00       189.63
 1096.60        2982.50           1657          50.00       189.63
 1096.63        2982.75           1660          45.00       167.83
 1096.66        2983.00           1663          56.00       215.78
 1096.70        2983.25           1667          49.00       185.27
 1096.73        2983.50           1670          56.00       215.78
 1096.76        2983.75           1673          47.00       176.55
 1096.79        2984.00           1677          53.00       202.70
HS scan finished at 18:17:00
end
