************************************************************
  HS Scan of (1) Internal mercury lamp
************************************************************
Integration time is 0.2294 seconds per sample
dh040219Manchester 53.47 2.23 2.804185pr1000
************************************************************
Dead Time -------------------------  3E-08 
Number of Cycles Used -------------  4 
Starting Wavelength (Angstroms) ---  2950 
Final Wavelength (Angstoms) -------  2984 
Wavelength Increment (Angstroms) --  .25 
Filter Wheel #1 Position ---------- (1) Ground quartz diffuser (ND=2.32)
Filter Wheel #2 Position ---------- (1) Neutral Density 0.494



************************************************************
HS scan start time = 05:01:36
Dark Count =  7.5 


Time (GMT)  Wavelength (Ang)  Step Number  Raw Counts  Counts/Second

  301.97        2950.00           1222          53.00       198.34
  302.03        2950.25           1226          54.00       202.70
  302.07        2950.50           1229          51.00       189.63
  302.10        2950.75           1232          54.00       202.70
  302.13        2951.00           1236          53.00       198.34
  302.16        2951.25           1239          57.00       215.78
  302.19        2951.50           1242          51.00       189.63
  302.22        2951.75           1246          59.00       224.50
  302.25        2952.00           1249          56.00       211.42
  302.28        2952.25           1252          52.00       193.99
  302.31        2952.50           1256          52.00       193.99
  302.34        2952.75           1259          56.00       211.42
  302.37        2953.00           1262          57.00       215.78
  302.40        2953.25           1266          46.00       167.83
  302.43        2953.50           1269          51.00       189.63
  302.47        2953.75           1272          54.00       202.70
  302.50        2954.00           1276          51.00       189.63
  302.53        2954.25           1279          58.00       220.14
  302.56        2954.50           1282          50.00       185.27
  302.59        2954.75           1286          58.00       220.14
  302.62        2955.00           1289          53.00       198.34
  302.65        2955.25           1292          48.00       176.55
  302.68        2955.50           1296          49.00       180.91
  302.71        2955.75           1299          50.00       185.27
  302.75        2956.00           1302          57.00       215.78
  302.78        2956.25           1306          51.00       189.63
  302.81        2956.50           1309          55.00       207.06
  302.84        2956.75           1312          54.00       202.70
  302.87        2957.00           1316          55.00       207.06
  302.90        2957.25           1319          54.00       202.70
  302.93        2957.50           1322          58.00       220.14
  302.96        2957.75           1326          54.00       202.70
  302.99        2958.00           1329          54.00       202.70
  303.03        2958.25           1332          58.00       220.14
  303.06        2958.50           1336          51.00       189.63
  303.09        2958.75           1339          57.00       215.78
  303.12        2959.00           1342          46.00       167.83
  303.15        2959.25           1346          64.00       246.30
  303.18        2959.50           1349          62.00       237.58
  303.21        2959.75           1352          71.00       276.81
  303.24        2960.00           1356          88.00       350.92
  303.27        2960.25           1359         108.00       438.11
  303.31        2960.50           1362         150.00       621.20
  303.34        2960.75           1366         184.00       769.42
  303.37        2961.00           1369         194.00       813.01
  303.40        2961.25           1372         223.00       939.43
  303.43        2961.50           1376         287.00      1218.44
  303.46        2961.75           1379         374.00      1597.72
  303.49        2962.00           1382         802.00      3463.74
  303.52        2962.25           1386        2082.00      9045.61
  303.55        2962.50           1389        3272.00     14236.68
  303.58        2962.75           1392        4506.00     19621.40
  303.62        2963.00           1396        5959.00     25963.99
  303.65        2963.25           1399        7105.00     30968.17
  303.68        2963.50           1402        8359.00     36445.67
  303.71        2963.75           1406        9895.00     43157.41
  303.74        2964.00           1409       11238.00     49028.03
  303.77        2964.25           1412       12464.00     54389.03
  303.80        2964.50           1416       14061.00     61374.89
  303.83        2964.75           1419       15180.00     66271.56
  303.86        2965.00           1422       16176.00     70631.21
  303.90        2965.25           1426       17898.00     78171.35
  303.93        2965.50           1429       19153.00     83668.77
  303.96        2965.75           1432       20284.00     88624.60
  303.99        2966.00           1436       21949.00     95922.99
  304.02        2966.25           1439       23039.00    100702.60
  304.05        2966.50           1442       24139.00    105527.50
  304.08        2966.75           1446       25282.00    110542.50
  304.11        2967.00           1449       25785.00    112750.00
  304.14        2967.25           1452       25840.00    112991.40
  304.18        2967.50           1456       25798.00    112807.00
  304.21        2967.75           1459       25666.00    112227.70
  304.24        2968.00           1462       25770.00    112684.10
  304.27        2968.25           1466       25192.00    110147.60
  304.30        2968.50           1469       24046.00    105119.60
  304.33        2968.75           1472       23016.00    100601.80
  304.36        2969.00           1476       21353.00     93310.09
  304.39        2969.25           1479       20083.00     87743.75
  304.42        2969.50           1482       18905.00     82582.28
  304.46        2969.75           1486       17390.00     75946.60
  304.49        2970.00           1489       16135.00     70451.72
  304.52        2970.25           1492       15113.00     65978.33
  304.55        2970.50           1496       13614.00     59419.26
  304.58        2970.75           1499       12437.00     54270.94
  304.61        2971.00           1502       11219.00     48944.96
  304.64        2971.25           1506        9583.00     41793.87
  304.67        2971.50           1509        8274.00     36074.33
  304.71        2971.75           1513        6796.00     29618.72
  304.74        2972.00           1516        5620.00     24483.98
  304.77        2972.25           1519        4506.00     19621.40
  304.80        2972.50           1523        3005.00     13071.82
  304.83        2972.75           1526        1892.00      8216.93
  304.86        2973.00           1529         886.00      3830.00
  304.89        2973.25           1533         380.00      1623.88
  304.92        2973.50           1536         282.00      1196.64
  304.95        2973.75           1539         209.00       878.40
  304.99        2974.00           1543         186.00       778.14
  305.02        2974.25           1546         133.00       547.09
  305.05        2974.50           1549         103.00       416.31
  305.08        2974.75           1553          82.00       324.76
  305.11        2975.00           1556          73.00       285.53
  305.14        2975.25           1559          59.00       224.50
  305.17        2975.50           1563          52.00       193.99
  305.20        2975.75           1566          51.00       189.63
  305.23        2976.00           1569          45.00       163.47
  305.26        2976.25           1573          56.00       211.42
  305.29        2976.50           1576          48.00       176.55
  305.33        2976.75           1579          57.00       215.78
  305.36        2977.00           1583          51.00       189.63
  305.39        2977.25           1586          53.00       198.34
  305.42        2977.50           1590          51.00       189.63
  305.45        2977.75           1593          48.00       176.55
  305.48        2978.00           1596          52.00       193.99
  305.51        2978.25           1600          56.00       211.42
  305.54        2978.50           1603          50.00       185.27
  305.57        2978.75           1606          48.00       176.55
  305.61        2979.00           1610          56.00       211.42
  305.64        2979.25           1613          47.00       172.19
  305.67        2979.50           1616          50.00       185.27
  305.70        2979.75           1620          57.00       215.78
  305.73        2980.00           1623          50.00       185.27
  305.76        2980.25           1626          54.00       202.70
  305.79        2980.50           1630          44.00       159.11
  305.82        2980.75           1633          50.00       185.27
  305.85        2981.00           1637          54.00       202.70
  305.88        2981.25           1640          48.00       176.55
  305.92        2981.50           1643          40.00       141.67
  305.95        2981.75           1647          60.00       228.86
  305.98        2982.00           1650          54.00       202.70
  306.01        2982.25           1653          49.00       180.91
  306.04        2982.50           1657          48.00       176.55
  306.07        2982.75           1660          55.00       207.06
  306.10        2983.00           1663          58.00       220.14
  306.13        2983.25           1667          48.00       176.55
  306.16        2983.50           1670          48.00       176.55
  306.19        2983.75           1673          49.00       180.91
  306.22        2984.00           1677          55.00       207.06
HS scan finished at 05:06:26
end
************************************************************
  HS Scan of (1) Internal mercury lamp
************************************************************
Integration time is 0.2294 seconds per sample
dh040219Manchester 53.47 2.23 2.804185pr1000
************************************************************
Dead Time -------------------------  3E-08 
Number of Cycles Used -------------  4 
Starting Wavelength (Angstroms) ---  2950 
Final Wavelength (Angstoms) -------  2984 
Wavelength Increment (Angstroms) --  .25 
Filter Wheel #1 Position ---------- (1) Ground quartz diffuser (ND=2.32)
Filter Wheel #2 Position ---------- (1) Neutral Density 0.494



************************************************************
HS scan start time = 17:42:17
Dark Count =  5.8 


Time (GMT)  Wavelength (Ang)  Step Number  Raw Counts  Counts/Second

 1062.66        2950.00           1222          46.00       175.24
 1062.73        2950.25           1226          50.00       192.68
 1062.76        2950.50           1229          51.00       197.04
 1062.79        2950.75           1232          57.00       223.19
 1062.82        2951.00           1236          65.00       258.07
 1062.85        2951.25           1239          49.00       188.32
 1062.88        2951.50           1242          57.00       223.19
 1062.91        2951.75           1246          55.00       214.47
 1062.94        2952.00           1249          54.00       210.11
 1062.97        2952.25           1252          53.00       205.76
 1063.01        2952.50           1256          61.00       240.63
 1063.04        2952.75           1259          47.00       179.60
 1063.07        2953.00           1262          54.00       210.11
 1063.10        2953.25           1266          58.00       227.55
 1063.13        2953.50           1269          59.00       231.91
 1063.16        2953.75           1272          60.00       236.27
 1063.19        2954.00           1276          55.00       214.47
 1063.22        2954.25           1279          51.00       197.04
 1063.25        2954.50           1282          53.00       205.76
 1063.28        2954.75           1286          48.00       183.96
 1063.32        2955.00           1289          45.00       170.88
 1063.35        2955.25           1292          47.00       179.60
 1063.38        2955.50           1296          53.00       205.76
 1063.41        2955.75           1299          47.00       179.60
 1063.44        2956.00           1302          57.00       223.19
 1063.47        2956.25           1306          60.00       236.27
 1063.50        2956.50           1309          47.00       179.60
 1063.53        2956.75           1312          54.00       210.11
 1063.56        2957.00           1316          57.00       223.19
 1063.60        2957.25           1319          57.00       223.19
 1063.63        2957.50           1322          58.00       227.55
 1063.66        2957.75           1326          65.00       258.07
 1063.69        2958.00           1329          55.00       214.47
 1063.72        2958.25           1332          71.00       284.22
 1063.75        2958.50           1336          59.00       231.91
 1063.78        2958.75           1339          68.00       271.14
 1063.81        2959.00           1342          49.00       188.32
 1063.84        2959.25           1346          57.00       223.19
 1063.87        2959.50           1349          70.00       279.86
 1063.90        2959.75           1352          80.00       323.46
 1063.93        2960.00           1356          78.00       314.74
 1063.96        2960.25           1359         103.00       423.72
 1064.00        2960.50           1362         139.00       580.66
 1064.03        2960.75           1366         177.00       746.31
 1064.06        2961.00           1369         206.00       872.73
 1064.09        2961.25           1372         232.00       986.08
 1064.12        2961.50           1376         285.00      1217.13
 1064.15        2961.75           1379         361.00      1548.46
 1064.18        2962.00           1382         737.00      3187.75
 1064.21        2962.25           1386        1937.00      8420.61
 1064.24        2962.50           1389        3131.00     13628.94
 1064.27        2962.75           1392        4188.00     18241.02
 1064.30        2963.00           1396        5760.00     25102.60
 1064.34        2963.25           1399        6902.00     30089.05
 1064.37        2963.50           1402        8105.00     35343.47
 1064.40        2963.75           1406        9899.00     43182.32
 1064.43        2964.00           1409       10924.00     47662.70
 1064.46        2964.25           1412       12158.00     53058.24
 1064.49        2964.50           1416       13822.00     60336.67
 1064.52        2964.75           1419       14994.00     65464.98
 1064.55        2965.00           1422       16254.00     70980.11
 1064.58        2965.25           1426       17846.00     77951.04
 1064.62        2965.50           1429       19095.00     83422.12
 1064.65        2965.75           1432       20076.00     87720.52
 1064.68        2966.00           1436       21814.00     95338.55
 1064.71        2966.25           1439       22807.00     99692.66
 1064.74        2966.50           1442       23881.00    104403.20
 1064.77        2966.75           1446       24968.00    109172.10
 1064.80        2967.00           1449       25505.00    111528.60
 1064.83        2967.25           1452       25528.00    111629.50
 1064.86        2967.50           1456       25606.00    111971.80
 1064.89        2967.75           1459       25575.00    111835.80
 1064.93        2968.00           1462       25483.00    111432.10
 1064.96        2968.25           1466       24833.00    108579.80
 1064.99        2968.50           1469       23961.00    104754.20
 1065.02        2968.75           1472       22885.00    100034.70
 1065.05        2969.00           1476       21232.00     92787.12
 1065.08        2969.25           1479       20180.00     88176.28
 1065.11        2969.50           1482       19011.00     83054.11
 1065.14        2969.75           1486       17488.00     76383.20
 1065.18        2970.00           1489       16273.00     71063.28
 1065.21        2970.25           1492       15268.00     66664.15
 1065.24        2970.50           1496       13639.00     59536.07
 1065.27        2970.75           1499       12480.00     54466.43
 1065.30        2971.00           1502       11311.00     49354.63
 1065.33        2971.25           1506        9526.00     41552.20
 1065.36        2971.50           1509        8349.00     36409.41
 1065.39        2971.75           1513        6874.00     29966.77
 1065.42        2972.00           1516        5610.00     24447.74
 1065.46        2972.25           1519        4477.00     19502.25
 1065.49        2972.50           1523        3027.00     13175.22
 1065.52        2972.75           1526        1923.00      8359.55
 1065.55        2973.00           1529         951.00      4120.82
 1065.58        2973.25           1533         374.00      1605.13
 1065.61        2973.50           1536         282.00      1204.05
 1065.64        2973.75           1539         241.00      1025.31
 1065.67        2974.00           1543         192.00       811.70
 1065.70        2974.25           1546         160.00       672.20
 1065.73        2974.50           1549         121.00       502.19
 1065.77        2974.75           1553          91.00       371.41
 1065.80        2975.00           1556          59.00       231.91
 1065.83        2975.25           1559          56.00       218.83
 1065.86        2975.50           1563          63.00       249.35
 1065.89        2975.75           1566          57.00       223.19
 1065.92        2976.00           1569          59.00       231.91
 1065.95        2976.25           1573          55.00       214.47
 1065.98        2976.50           1576          58.00       227.55
 1066.01        2976.75           1579          53.00       205.76
 1066.04        2977.00           1583          57.00       223.19
 1066.07        2977.25           1586          52.00       201.40
 1066.11        2977.50           1590          58.00       227.55
 1066.14        2977.75           1593          53.00       205.76
 1066.17        2978.00           1596          50.00       192.68
 1066.20        2978.25           1600          51.00       197.04
 1066.23        2978.50           1603          43.00       162.16
 1066.26        2978.75           1606          46.00       175.24
 1066.29        2979.00           1610          43.00       162.16
 1066.32        2979.25           1613          45.00       170.88
 1066.35        2979.50           1616          43.00       162.16
 1066.38        2979.75           1620          53.00       205.76
 1066.41        2980.00           1623          58.00       227.55
 1066.44        2980.25           1626          58.00       227.55
 1066.48        2980.50           1630          44.00       166.52
 1066.51        2980.75           1633          55.00       214.47
 1066.54        2981.00           1637          48.00       183.96
 1066.57        2981.25           1640          48.00       183.96
 1066.60        2981.50           1643          47.00       179.60
 1066.63        2981.75           1647          43.00       162.16
 1066.66        2982.00           1650          56.00       218.83
 1066.69        2982.25           1653          50.00       192.68
 1066.72        2982.50           1657          57.00       223.19
 1066.75        2982.75           1660          58.00       227.55
 1066.78        2983.00           1663          45.00       170.88
 1066.81        2983.25           1667          56.00       218.83
 1066.84        2983.50           1670          45.00       170.88
 1066.88        2983.75           1673          48.00       183.96
 1066.91        2984.00           1677          49.00       188.32
HS scan finished at 17:47:07
end
