************************************************************
  HS Scan of (1) Internal mercury lamp
************************************************************
Integration time is 0.2294 seconds per sample
dh050217Manchester 53.47 2.23 2.750537pr1000
************************************************************
Dead Time -------------------------  3E-08 
Number of Cycles Used -------------  4 
Starting Wavelength (Angstroms) ---  2950 
Final Wavelength (Angstoms) -------  2984 
Wavelength Increment (Angstroms) --  .25 
Filter Wheel #1 Position ---------- (1) Ground quartz diffuser (ND=2.32)
Filter Wheel #2 Position ---------- (1) Neutral Density 0.494



************************************************************
HS scan start time = 04:59:07
Dark Count =  6.8 


Time (GMT)  Wavelength (Ang)  Step Number  Raw Counts  Counts/Second

  299.48        2950.00           1222          44.00       162.16
  299.55        2950.25           1226          43.00       157.80
  299.58        2950.50           1229          44.00       162.16
  299.61        2950.75           1232          42.00       153.44
  299.64        2951.00           1236          44.00       162.16
  299.67        2951.25           1239          40.00       144.73
  299.70        2951.50           1242          48.00       179.60
  299.74        2951.75           1246          46.00       170.88
  299.77        2952.00           1249          41.00       149.09
  299.80        2952.25           1252          45.00       166.52
  299.83        2952.50           1256          50.00       188.32
  299.86        2952.75           1259          44.00       162.16
  299.89        2953.00           1262          50.00       188.32
  299.92        2953.25           1266          45.00       166.52
  299.95        2953.50           1269          38.00       136.01
  299.98        2953.75           1272          48.00       179.60
  300.01        2954.00           1276          46.00       170.88
  300.04        2954.25           1279          43.00       157.80
  300.07        2954.50           1282          44.00       162.16
  300.11        2954.75           1286          41.00       149.09
  300.14        2955.00           1289          47.00       175.24
  300.17        2955.25           1292          46.00       170.88
  300.20        2955.50           1296          34.00       118.57
  300.23        2955.75           1299          42.00       153.44
  300.26        2956.00           1302          43.00       157.80
  300.29        2956.25           1306          45.00       166.52
  300.32        2956.50           1309          43.00       157.80
  300.35        2956.75           1312          40.00       144.73
  300.38        2957.00           1316          42.00       153.44
  300.41        2957.25           1319          45.00       166.52
  300.44        2957.50           1322          55.00       210.11
  300.48        2957.75           1326          45.00       166.52
  300.51        2958.00           1329          44.00       162.16
  300.54        2958.25           1332          42.00       153.44
  300.57        2958.50           1336          47.00       175.24
  300.60        2958.75           1339          47.00       175.24
  300.63        2959.00           1342          45.00       166.52
  300.66        2959.25           1346          45.00       166.52
  300.69        2959.50           1349          45.00       166.52
  300.72        2959.75           1352          60.00       231.91
  300.75        2960.00           1356         101.00       410.64
  300.78        2960.25           1359         111.00       454.23
  300.82        2960.50           1362         156.00       650.41
  300.85        2960.75           1366         217.00       916.33
  300.88        2961.00           1369         271.00      1151.74
  300.91        2961.25           1372         302.00      1286.89
  300.94        2961.50           1376         392.00      1679.25
  300.97        2961.75           1379         618.00      2664.56
  301.00        2962.00           1382        1357.00      5886.83
  301.03        2962.25           1386        3212.00     13977.96
  301.06        2962.50           1389        4671.00     20344.58
  301.09        2962.75           1392        6249.00     27233.23
  301.12        2963.00           1396        8468.00     36924.93
  301.16        2963.25           1399        9991.00     43580.05
  301.19        2963.50           1402       11588.00     50561.39
  301.22        2963.75           1406       14001.00     61115.44
  301.25        2964.00           1409       15507.00     67705.83
  301.28        2964.25           1412       17405.00     76015.35
  301.31        2964.50           1416       19818.00     86585.56
  301.34        2964.75           1419       21383.00     93444.68
  301.37        2965.00           1422       23058.00    100789.00
  301.41        2965.25           1426       25332.00    110765.00
  301.44        2965.50           1429       26870.00    117515.60
  301.47        2965.75           1432       28417.00    124308.40
  301.50        2966.00           1436       30526.00    133573.40
  301.53        2966.25           1439       32234.00    141080.60
  301.56        2966.50           1442       33723.00    147628.00
  301.59        2966.75           1446       35383.00    154930.30
  301.62        2967.00           1449       35875.00    157095.20
  301.65        2967.25           1452       35959.00    157464.90
  301.69        2967.50           1456       36055.00    157887.30
  301.72        2967.75           1459       35874.00    157090.80
  301.75        2968.00           1462       35686.00    156263.50
  301.78        2968.25           1466       34935.00    152959.20
  301.81        2968.50           1469       33717.00    147601.60
  301.84        2968.75           1472       31962.00    139884.90
  301.87        2969.00           1476       29913.00    130879.90
  301.90        2969.25           1479       28289.00    123746.30
  301.93        2969.50           1482       26560.00    116154.70
  301.97        2969.75           1486       24392.00    106640.50
  302.00        2970.00           1489       22662.00     99052.40
  302.03        2970.25           1492       20921.00     91419.52
  302.06        2970.50           1496       18827.00     82243.65
  302.09        2970.75           1499       17150.00     74898.71
  302.12        2971.00           1502       15354.00     67036.16
  302.15        2971.25           1506       13198.00     57602.51
  302.18        2971.50           1509       11502.00     50185.36
  302.21        2971.75           1513        9392.00     40962.25
  302.25        2972.00           1516        7829.00     34133.45
  302.28        2972.25           1519        6160.00     26844.63
  302.31        2972.50           1523        4158.00     18105.74
  302.34        2972.75           1526        2579.00     11216.50
  302.37        2973.00           1529        1261.00      5468.20
  302.40        2973.25           1533         471.00      2023.66
  302.43        2973.50           1536         340.00      1452.55
  302.46        2973.75           1539         287.00      1221.49
  302.49        2974.00           1543         238.00      1007.88
  302.52        2974.25           1546         189.00       794.26
  302.55        2974.50           1549         137.00       567.58
  302.58        2974.75           1553          85.00       340.89
  302.62        2975.00           1556          75.00       297.30
  302.65        2975.25           1559          58.00       223.19
  302.68        2975.50           1563          50.00       188.32
  302.71        2975.75           1566          49.00       183.96
  302.74        2976.00           1569          42.00       153.44
  302.77        2976.25           1573          46.00       170.88
  302.80        2976.50           1576          45.00       166.52
  302.83        2976.75           1579          44.00       162.16
  302.86        2977.00           1583          40.00       144.73
  302.89        2977.25           1586          53.00       201.40
  302.92        2977.50           1590          47.00       175.24
  302.95        2977.75           1593          45.00       166.52
  302.98        2978.00           1596          45.00       166.52
  303.01        2978.25           1600          48.00       179.60
  303.05        2978.50           1603          40.00       144.73
  303.08        2978.75           1606          49.00       183.96
  303.11        2979.00           1610          41.00       149.09
  303.14        2979.25           1613          50.00       188.32
  303.17        2979.50           1616          47.00       175.24
  303.20        2979.75           1620          45.00       166.52
  303.23        2980.00           1623          45.00       166.52
  303.26        2980.25           1626          46.00       170.88
  303.29        2980.50           1630          42.00       153.44
  303.32        2980.75           1633          56.00       214.47
  303.35        2981.00           1637          40.00       144.73
  303.38        2981.25           1640          40.00       144.73
  303.42        2981.50           1643          43.00       157.80
  303.45        2981.75           1647          43.00       157.80
  303.48        2982.00           1650          44.00       162.16
  303.51        2982.25           1653          42.00       153.44
  303.54        2982.50           1657          51.00       192.68
  303.57        2982.75           1660          42.00       153.44
  303.60        2983.00           1663          43.00       157.80
  303.63        2983.25           1667          39.00       140.37
  303.66        2983.50           1670          48.00       179.60
  303.69        2983.75           1673          36.00       127.29
  303.72        2984.00           1677          41.00       149.09
HS scan finished at 05:03:56
end
************************************************************
  HS Scan of (1) Internal mercury lamp
************************************************************
Integration time is 0.2294 seconds per sample
dh050217Manchester 53.47 2.23 2.804185pr1000
************************************************************
Dead Time -------------------------  3E-08 
Number of Cycles Used -------------  4 
Starting Wavelength (Angstroms) ---  2950 
Final Wavelength (Angstoms) -------  2984 
Wavelength Increment (Angstroms) --  .25 
Filter Wheel #1 Position ---------- (1) Ground quartz diffuser (ND=2.32)
Filter Wheel #2 Position ---------- (1) Neutral Density 0.494



************************************************************
HS scan start time = 18:12:00
Dark Count =  7.4 


Time (GMT)  Wavelength (Ang)  Step Number  Raw Counts  Counts/Second

 1092.36        2950.00           1222          47.00       172.63
 1092.43        2950.25           1226          52.00       194.42
 1092.46        2950.50           1229          42.00       150.83
 1092.49        2950.75           1232          41.00       146.47
 1092.52        2951.00           1236          43.00       155.19
 1092.55        2951.25           1239          48.00       176.98
 1092.58        2951.50           1242          44.00       159.55
 1092.61        2951.75           1246          47.00       172.63
 1092.65        2952.00           1249          47.00       172.63
 1092.68        2952.25           1252          50.00       185.70
 1092.71        2952.50           1256          49.00       181.34
 1092.74        2952.75           1259          45.00       163.91
 1092.77        2953.00           1262          44.00       159.55
 1092.80        2953.25           1266          41.00       146.47
 1092.83        2953.50           1269          61.00       233.65
 1092.86        2953.75           1272          41.00       146.47
 1092.89        2954.00           1276          51.00       190.06
 1092.92        2954.25           1279          51.00       190.06
 1092.95        2954.50           1282          43.00       155.19
 1092.98        2954.75           1286          40.00       142.11
 1093.02        2955.00           1289          41.00       146.47
 1093.05        2955.25           1292          46.00       168.27
 1093.08        2955.50           1296          46.00       168.27
 1093.11        2955.75           1299          52.00       194.42
 1093.14        2956.00           1302          42.00       150.83
 1093.17        2956.25           1306          52.00       194.42
 1093.20        2956.50           1309          44.00       159.55
 1093.23        2956.75           1312          55.00       207.50
 1093.26        2957.00           1316          43.00       155.19
 1093.29        2957.25           1319          43.00       155.19
 1093.32        2957.50           1322          45.00       163.91
 1093.35        2957.75           1326          53.00       198.78
 1093.38        2958.00           1329          43.00       155.19
 1093.41        2958.25           1332          45.00       163.91
 1093.44        2958.50           1336          41.00       146.47
 1093.48        2958.75           1339          53.00       198.78
 1093.51        2959.00           1342          49.00       181.34
 1093.54        2959.25           1346          47.00       172.63
 1093.57        2959.50           1349          59.00       224.94
 1093.60        2959.75           1352          62.00       238.01
 1093.63        2960.00           1356          88.00       351.36
 1093.66        2960.25           1359         123.00       503.93
 1093.69        2960.50           1362         164.00       682.66
 1093.72        2960.75           1366         216.00       909.35
 1093.75        2961.00           1369         262.00      1109.89
 1093.78        2961.25           1372         310.00      1319.15
 1093.82        2961.50           1376         394.00      1685.35
 1093.85        2961.75           1379         601.00      2587.82
 1093.88        2962.00           1382        1192.00      5164.71
 1093.91        2962.25           1386        2815.00     12243.38
 1093.94        2962.50           1389        4345.00     18919.19
 1093.97        2962.75           1392        6047.00     26348.63
 1094.00        2963.00           1396        8194.00     35725.27
 1094.03        2963.25           1399        9813.00     42799.47
 1094.06        2963.50           1402       11416.00     49806.71
 1094.10        2963.75           1406       13604.00     59375.94
 1094.13        2964.00           1409       15330.00     66928.50
 1094.16        2964.25           1412       16968.00     74099.15
 1094.19        2964.50           1416       19228.00     83997.80
 1094.22        2964.75           1419       20727.00     90566.57
 1094.25        2965.00           1422       22388.00     97848.27
 1094.28        2965.25           1426       24494.00    107085.40
 1094.31        2965.50           1429       26157.00    114383.10
 1094.35        2965.75           1432       27865.00    121881.60
 1094.38        2966.00           1436       30206.00    132164.70
 1094.41        2966.25           1439       31608.00    138326.10
 1094.44        2966.50           1442       33123.00    144986.70
 1094.47        2966.75           1446       34714.00    151984.40
 1094.50        2967.00           1449       35294.00    154536.10
 1094.53        2967.25           1452       35722.00    156419.30
 1094.56        2967.50           1456       35632.00    156023.30
 1094.59        2967.75           1459       35658.00    156137.70
 1094.63        2968.00           1462       35158.00    153937.70
 1094.66        2968.25           1466       34700.00    151922.80
 1094.69        2968.50           1469       33246.00    145527.60
 1094.72        2968.75           1472       31927.00    139728.40
 1094.75        2969.00           1476       29683.00    129866.80
 1094.78        2969.25           1479       27982.00    122395.40
 1094.81        2969.50           1482       26457.00    115699.90
 1094.84        2969.75           1486       24316.00    106304.50
 1094.87        2970.00           1489       22600.00     98777.89
 1094.91        2970.25           1492       21070.00     92069.99
 1094.94        2970.50           1496       18956.00     82806.15
 1094.97        2970.75           1499       17443.00     76179.13
 1095.00        2971.00           1502       15594.00     68083.99
 1095.03        2971.25           1506       13450.00     58702.24
 1095.06        2971.50           1509       11750.00     51267.11
 1095.09        2971.75           1513        9494.00     41405.36
 1095.12        2972.00           1516        7943.00     34628.81
 1095.15        2972.25           1519        6237.00     27178.21
 1095.18        2972.50           1523        4147.00     18055.11
 1095.21        2972.75           1526        2514.00     10930.35
 1095.25        2973.00           1529        1151.00      4985.92
 1095.28        2973.25           1533         464.00      1990.53
 1095.31        2973.50           1536         315.00      1340.94
 1095.34        2973.75           1539         276.00      1170.92
 1095.37        2974.00           1543         215.00       904.99
 1095.40        2974.25           1546         162.00       673.95
 1095.43        2974.50           1549         131.00       538.81
 1095.46        2974.75           1553          90.00       360.07
 1095.49        2975.00           1556          57.00       216.22
 1095.53        2975.25           1559          55.00       207.50
 1095.56        2975.50           1563          46.00       168.27
 1095.59        2975.75           1566          43.00       155.19
 1095.62        2976.00           1569          46.00       168.27
 1095.65        2976.25           1573          47.00       172.63
 1095.68        2976.50           1576          45.00       163.91
 1095.71        2976.75           1579          44.00       159.55
 1095.74        2977.00           1583          41.00       146.47
 1095.77        2977.25           1586          39.00       137.75
 1095.80        2977.50           1590          39.00       137.75
 1095.83        2977.75           1593          42.00       150.83
 1095.86        2978.00           1596          39.00       137.75
 1095.89        2978.25           1600          43.00       155.19
 1095.93        2978.50           1603          48.00       176.98
 1095.96        2978.75           1606          44.00       159.55
 1095.99        2979.00           1610          39.00       137.75
 1096.02        2979.25           1613          39.00       137.75
 1096.05        2979.50           1616          44.00       159.55
 1096.08        2979.75           1620          47.00       172.63
 1096.11        2980.00           1623          51.00       190.06
 1096.14        2980.25           1626          43.00       155.19
 1096.17        2980.50           1630          44.00       159.55
 1096.20        2980.75           1633          55.00       207.50
 1096.23        2981.00           1637          43.00       155.19
 1096.27        2981.25           1640          43.00       155.19
 1096.30        2981.50           1643          39.00       137.75
 1096.33        2981.75           1647          43.00       155.19
 1096.36        2982.00           1650          41.00       146.47
 1096.39        2982.25           1653          37.00       129.03
 1096.42        2982.50           1657          51.00       190.06
 1096.45        2982.75           1660          43.00       155.19
 1096.48        2983.00           1663          45.00       163.91
 1096.51        2983.25           1667          44.00       159.55
 1096.54        2983.50           1670          41.00       146.47
 1096.57        2983.75           1673          44.00       159.55
 1096.60        2984.00           1677          40.00       142.11
HS scan finished at 18:16:49
end
