************************************************************
  HS Scan of (1) Internal mercury lamp
************************************************************
Integration time is 0.2294 seconds per sample
dh070219Manchester 53.47 2.23 2.804185pr1000
************************************************************
Dead Time -------------------------  3E-08 
Number of Cycles Used -------------  4 
Starting Wavelength (Angstroms) ---  2950 
Final Wavelength (Angstoms) -------  2984 
Wavelength Increment (Angstroms) --  .25 
Filter Wheel #1 Position ---------- (1) Ground quartz diffuser (ND=2.32)
Filter Wheel #2 Position ---------- (1) Neutral Density 0.494



************************************************************
HS scan start time = 04:56:48
Dark Count =  6.5 


Time (GMT)  Wavelength (Ang)  Step Number  Raw Counts  Counts/Second

  297.17        2950.00           1222          61.00       237.58
  297.24        2950.25           1226          50.00       189.63
  297.27        2950.50           1229          54.00       207.06
  297.30        2950.75           1232          55.00       211.42
  297.33        2951.00           1236          52.00       198.34
  297.36        2951.25           1239          63.00       246.30
  297.39        2951.50           1242          62.00       241.94
  297.42        2951.75           1246          57.00       220.14
  297.45        2952.00           1249          54.00       207.06
  297.48        2952.25           1252          52.00       198.34
  297.51        2952.50           1256          55.00       211.42
  297.54        2952.75           1259          61.00       237.58
  297.58        2953.00           1262          56.00       215.78
  297.61        2953.25           1266          56.00       215.78
  297.64        2953.50           1269          52.00       198.34
  297.67        2953.75           1272          54.00       207.06
  297.70        2954.00           1276          49.00       185.27
  297.73        2954.25           1279          52.00       198.34
  297.76        2954.50           1282          52.00       198.34
  297.79        2954.75           1286          53.00       202.70
  297.82        2955.00           1289          46.00       172.19
  297.85        2955.25           1292          61.00       237.58
  297.89        2955.50           1296          52.00       198.34
  297.92        2955.75           1299          48.00       180.91
  297.95        2956.00           1302          52.00       198.34
  297.98        2956.25           1306          55.00       211.42
  298.01        2956.50           1309          59.00       228.86
  298.04        2956.75           1312          52.00       198.34
  298.07        2957.00           1316          59.00       228.86
  298.10        2957.25           1319          56.00       215.78
  298.13        2957.50           1322          52.00       198.34
  298.16        2957.75           1326          48.00       180.91
  298.19        2958.00           1329          70.00       276.81
  298.22        2958.25           1332          52.00       198.34
  298.25        2958.50           1336          58.00       224.50
  298.28        2958.75           1339          59.00       228.86
  298.31        2959.00           1342          56.00       215.78
  298.35        2959.25           1346          51.00       193.99
  298.38        2959.50           1349          62.00       241.94
  298.41        2959.75           1352          69.00       272.45
  298.44        2960.00           1356          94.00       381.43
  298.47        2960.25           1359         117.00       481.70
  298.50        2960.50           1362         140.00       581.96
  298.53        2960.75           1366         187.00       786.85
  298.56        2961.00           1369         221.00       935.07
  298.59        2961.25           1372         243.00      1030.98
  298.62        2961.50           1376         285.00      1214.08
  298.66        2961.75           1379         352.00      1506.17
  298.69        2962.00           1382         606.00      2613.54
  298.72        2962.25           1386        1648.00      7157.16
  298.75        2962.50           1389        2767.00     12037.91
  298.78        2962.75           1392        3972.00     17295.37
  298.81        2963.00           1396        5587.00     24344.28
  298.84        2963.25           1399        6794.00     29614.36
  298.87        2963.50           1402        7890.00     34401.22
  298.90        2963.75           1406        9522.00     41531.66
  298.94        2964.00           1409       10783.00     47043.24
  298.97        2964.25           1412       11861.00     51756.42
  299.00        2964.50           1416       13543.00     59113.02
  299.03        2964.75           1419       14804.00     64630.43
  299.06        2965.00           1422       16081.00     70219.70
  299.09        2965.25           1426       17579.00     76778.65
  299.12        2965.50           1429       18923.00     82665.52
  299.15        2965.75           1432       20003.00     87397.55
  299.18        2966.00           1436       21538.00     94125.49
  299.22        2966.25           1439       22633.00     98926.56
  299.25        2966.50           1442       23856.00    104290.50
  299.28        2966.75           1446       25232.00    110327.50
  299.31        2967.00           1449       25703.00    112394.50
  299.34        2967.25           1452       26268.00    114874.30
  299.37        2967.50           1456       26022.00    113794.50
  299.40        2967.75           1459       26055.00    113939.40
  299.43        2968.00           1462       26040.00    113873.50
  299.46        2968.25           1466       25648.00    112153.10
  299.50        2968.50           1469       24635.00    107708.00
  299.53        2968.75           1472       23615.00    103233.30
  299.56        2969.00           1476       21930.00     95844.06
  299.59        2969.25           1479       20763.00     90728.31
  299.62        2969.50           1482       19893.00     86915.53
  299.65        2969.75           1486       18159.00     79318.86
  299.68        2970.00           1489       17146.00     74882.51
  299.71        2970.25           1492       15964.00     69707.53
  299.74        2970.50           1496       14253.00     62219.35
  299.78        2970.75           1499       12994.00     56711.49
  299.81        2971.00           1502       11693.00     51021.81
  299.84        2971.25           1506       10146.00     44258.82
  299.87        2971.50           1509        8934.00     38962.26
  299.90        2971.75           1513        7348.00     32033.82
  299.93        2972.00           1516        6311.00     27505.25
  299.96        2972.25           1519        5063.00     22056.88
  299.99        2972.50           1523        3549.00     15449.62
  300.02        2972.75           1526        2348.00     10210.19
  300.06        2973.00           1529        1182.00      5125.03
  300.09        2973.25           1533         451.00      1937.78
  300.12        2973.50           1536         272.00      1157.41
  300.15        2973.75           1539         227.00       961.23
  300.18        2974.00           1543         196.00       826.09
  300.21        2974.25           1546         153.00       638.63
  300.24        2974.50           1549         125.00       516.57
  300.27        2974.75           1553          77.00       307.33
  300.30        2975.00           1556          66.00       259.37
  300.34        2975.25           1559          61.00       237.58
  300.37        2975.50           1563          54.00       207.06
  300.40        2975.75           1566          68.00       268.09
  300.43        2976.00           1569          57.00       220.14
  300.46        2976.25           1573          55.00       211.42
  300.49        2976.50           1576          51.00       193.99
  300.52        2976.75           1579          55.00       211.42
  300.55        2977.00           1583          54.00       207.06
  300.58        2977.25           1586          57.00       220.14
  300.61        2977.50           1590          54.00       207.06
  300.64        2977.75           1593          51.00       193.99
  300.68        2978.00           1596          53.00       202.70
  300.71        2978.25           1600          50.00       189.63
  300.74        2978.50           1603          45.00       167.83
  300.77        2978.75           1606          51.00       193.99
  300.80        2979.00           1610          52.00       198.34
  300.83        2979.25           1613          48.00       180.91
  300.86        2979.50           1616          50.00       189.63
  300.89        2979.75           1620          54.00       207.06
  300.92        2980.00           1623          49.00       185.27
  300.96        2980.25           1626          48.00       180.91
  300.99        2980.50           1630          53.00       202.70
  301.02        2980.75           1633          49.00       185.27
  301.05        2981.00           1637          51.00       193.99
  301.08        2981.25           1640          47.00       176.55
  301.11        2981.50           1643          49.00       185.27
  301.14        2981.75           1647          52.00       198.34
  301.17        2982.00           1650          50.00       189.63
  301.20        2982.25           1653          57.00       220.14
  301.23        2982.50           1657          54.00       207.06
  301.26        2982.75           1660          49.00       185.27
  301.29        2983.00           1663          55.00       211.42
  301.33        2983.25           1667          50.00       189.63
  301.36        2983.50           1670          53.00       202.70
  301.39        2983.75           1673          49.00       185.27
  301.42        2984.00           1677          49.00       185.27
HS scan finished at 05:01:38
end
************************************************************
  HS Scan of (1) Internal mercury lamp
************************************************************
Integration time is 0.2294 seconds per sample
dh070219Manchester 53.47 2.23 2.804185pr1000
************************************************************
Dead Time -------------------------  3E-08 
Number of Cycles Used -------------  4 
Starting Wavelength (Angstroms) ---  2950 
Final Wavelength (Angstoms) -------  2984 
Wavelength Increment (Angstroms) --  .25 
Filter Wheel #1 Position ---------- (1) Ground quartz diffuser (ND=2.32)
Filter Wheel #2 Position ---------- (1) Neutral Density 0.494



************************************************************
HS scan start time = 18:12:19
Dark Count =  7.1 


Time (GMT)  Wavelength (Ang)  Step Number  Raw Counts  Counts/Second

 1092.68        2950.00           1222          66.00       256.76
 1092.75        2950.25           1226          53.00       200.09
 1092.78        2950.50           1229          51.00       191.37
 1092.81        2950.75           1232          49.00       182.65
 1092.84        2951.00           1236          57.00       217.53
 1092.88        2951.25           1239          51.00       191.37
 1092.91        2951.50           1242          52.00       195.73
 1092.94        2951.75           1246          60.00       230.60
 1092.97        2952.00           1249          56.00       213.17
 1093.00        2952.25           1252          53.00       200.09
 1093.03        2952.50           1256          59.00       226.24
 1093.06        2952.75           1259          49.00       182.65
 1093.09        2953.00           1262          59.00       226.24
 1093.12        2953.25           1266          55.00       208.81
 1093.15        2953.50           1269          56.00       213.17
 1093.18        2953.75           1272          59.00       226.24
 1093.21        2954.00           1276          52.00       195.73
 1093.25        2954.25           1279          64.00       248.04
 1093.28        2954.50           1282          54.00       204.45
 1093.31        2954.75           1286          53.00       200.09
 1093.34        2955.00           1289          55.00       208.81
 1093.37        2955.25           1292          54.00       204.45
 1093.40        2955.50           1296          54.00       204.45
 1093.43        2955.75           1299          52.00       195.73
 1093.46        2956.00           1302          56.00       213.17
 1093.49        2956.25           1306          53.00       200.09
 1093.52        2956.50           1309          53.00       200.09
 1093.56        2956.75           1312          58.00       221.88
 1093.59        2957.00           1316          54.00       204.45
 1093.62        2957.25           1319          50.00       187.01
 1093.65        2957.50           1322          59.00       226.24
 1093.68        2957.75           1326          62.00       239.32
 1093.71        2958.00           1329          61.00       234.96
 1093.74        2958.25           1332          56.00       213.17
 1093.77        2958.50           1336          56.00       213.17
 1093.80        2958.75           1339          55.00       208.81
 1093.83        2959.00           1342          48.00       178.29
 1093.86        2959.25           1346          59.00       226.24
 1093.89        2959.50           1349          54.00       204.45
 1093.92        2959.75           1352          63.00       243.68
 1093.95        2960.00           1356          82.00       326.51
 1093.99        2960.25           1359         106.00       431.13
 1094.02        2960.50           1362         136.00       561.91
 1094.05        2960.75           1366         187.00       784.24
 1094.08        2961.00           1369         204.00       858.35
 1094.11        2961.25           1372         237.00      1002.21
 1094.14        2961.50           1376         314.00      1337.89
 1094.17        2961.75           1379         444.00      1904.64
 1094.20        2962.00           1382        1140.00      4939.27
 1094.23        2962.25           1386        2530.00     11001.45
 1094.26        2962.50           1389        3687.00     16049.14
 1094.29        2962.75           1392        4949.00     21556.66
 1094.33        2963.00           1396        6414.00     27952.38
 1094.36        2963.25           1399        7458.00     32511.64
 1094.39        2963.50           1402        8649.00     37714.40
 1094.42        2963.75           1406       10251.00     44715.14
 1094.45        2964.00           1409       11559.00     50433.27
 1094.48        2964.25           1412       12804.00     55877.82
 1094.51        2964.50           1416       14405.00     62881.82
 1094.54        2964.75           1419       15456.00     67481.28
 1094.57        2965.00           1422       16685.00     72861.36
 1094.61        2965.25           1426       18213.00     79552.76
 1094.64        2965.50           1429       19716.00     86137.30
 1094.67        2965.75           1432       20797.00     90874.71
 1094.70        2966.00           1436       22387.00     97845.21
 1094.73        2966.25           1439       23597.00    103151.80
 1094.76        2966.50           1442       24462.00    106946.30
 1094.79        2966.75           1446       25688.00    112326.00
 1094.82        2967.00           1449       25786.00    112756.10
 1094.86        2967.25           1452       25833.00    112962.40
 1094.89        2967.50           1456       25665.00    112225.10
 1094.92        2967.75           1459       25835.00    112971.20
 1094.95        2968.00           1462       25533.00    111645.80
 1094.98        2968.25           1466       24719.00    108073.90
 1095.01        2968.50           1469       23557.00    102976.30
 1095.04        2968.75           1472       22475.00     98231.08
 1095.07        2969.00           1476       21067.00     92058.16
 1095.10        2969.25           1479       19752.00     86295.05
 1095.14        2969.50           1482       18601.00     81252.31
 1095.17        2969.75           1486       16926.00     73916.56
 1095.20        2970.00           1489       15801.00     68991.40
 1095.23        2970.25           1492       14800.00     64610.30
 1095.26        2970.50           1496       13303.00     58060.51
 1095.29        2970.75           1499       11951.00     52147.35
 1095.32        2971.00           1502       10789.00     47066.85
 1095.35        2971.25           1506        9127.00     39802.95
 1095.38        2971.50           1509        7888.00     34389.86
 1095.42        2971.75           1513        6392.00     27856.31
 1095.45        2972.00           1516        5140.00     22390.36
 1095.48        2972.25           1519        3919.00     17061.48
 1095.51        2972.50           1523        2530.00     11001.45
 1095.54        2972.75           1526        1425.00      6182.05
 1095.57        2973.00           1529         615.00      2650.17
 1095.60        2973.25           1533         326.00      1390.21
 1095.63        2973.50           1536         256.00      1085.04
 1095.66        2973.75           1539         227.00       958.62
 1095.70        2974.00           1543         195.00       819.11
 1095.73        2974.25           1546         152.00       631.66
 1095.76        2974.50           1549         129.00       531.39
 1095.79        2974.75           1553          92.00       370.10
 1095.82        2975.00           1556          69.00       269.84
 1095.85        2975.25           1559          61.00       234.96
 1095.88        2975.50           1563          56.00       213.17
 1095.91        2975.75           1566          64.00       248.04
 1095.94        2976.00           1569          49.00       182.65
 1095.97        2976.25           1573          60.00       230.60
 1096.00        2976.50           1576          54.00       204.45
 1096.04        2976.75           1579          52.00       195.73
 1096.07        2977.00           1583          53.00       200.09
 1096.10        2977.25           1586          56.00       213.17
 1096.13        2977.50           1590          42.00       152.14
 1096.16        2977.75           1593          54.00       204.45
 1096.19        2978.00           1596          55.00       208.81
 1096.22        2978.25           1600          54.00       204.45
 1096.25        2978.50           1603          57.00       217.53
 1096.28        2978.75           1606          51.00       191.37
 1096.31        2979.00           1610          50.00       187.01
 1096.35        2979.25           1613          61.00       234.96
 1096.38        2979.50           1616          52.00       195.73
 1096.41        2979.75           1620          47.00       173.93
 1096.44        2980.00           1623          57.00       217.53
 1096.47        2980.25           1626          56.00       213.17
 1096.50        2980.50           1630          53.00       200.09
 1096.53        2980.75           1633          50.00       187.01
 1096.56        2981.00           1637          47.00       173.93
 1096.59        2981.25           1640          47.00       173.93
 1096.62        2981.50           1643          50.00       187.01
 1096.66        2981.75           1647          55.00       208.81
 1096.69        2982.00           1650          53.00       200.09
 1096.72        2982.25           1653          46.00       169.57
 1096.75        2982.50           1657          45.00       165.21
 1096.78        2982.75           1660          50.00       187.01
 1096.81        2983.00           1663          56.00       213.17
 1096.84        2983.25           1667          48.00       178.29
 1096.87        2983.50           1670          48.00       178.29
 1096.90        2983.75           1673          48.00       178.29
 1096.93        2984.00           1677          41.00       147.78
HS scan finished at 18:17:09
end
