************************************************************
  HS Scan of (1) Internal mercury lamp
************************************************************
Integration time is 0.2294 seconds per sample
dh020217Manchester 53.47 2.23 2.804185pr1000
************************************************************
Dead Time -------------------------  3E-08 
Number of Cycles Used -------------  4 
Starting Wavelength (Angstroms) ---  2950 
Final Wavelength (Angstoms) -------  2984 
Wavelength Increment (Angstroms) --  .25 
Filter Wheel #1 Position ---------- (1) Ground quartz diffuser (ND=2.32)
Filter Wheel #2 Position ---------- (1) Neutral Density 0.494



************************************************************
HS scan start time = 05:03:37
Dark Count =  5.2 


Time (GMT)  Wavelength (Ang)  Step Number  Raw Counts  Counts/Second

  303.99        2950.00           1222          40.00       151.70
  304.05        2950.25           1226          53.00       208.37
  304.08        2950.50           1229          42.00       160.42
  304.12        2950.75           1232          45.00       173.50
  304.15        2951.00           1236          43.00       164.78
  304.18        2951.25           1239          46.00       177.86
  304.21        2951.50           1242          40.00       151.70
  304.24        2951.75           1246          54.00       212.73
  304.27        2952.00           1249          49.00       190.93
  304.30        2952.25           1252          50.00       195.29
  304.33        2952.50           1256          47.00       182.22
  304.36        2952.75           1259          46.00       177.86
  304.39        2953.00           1262          44.00       169.14
  304.42        2953.25           1266          46.00       177.86
  304.45        2953.50           1269          39.00       147.34
  304.49        2953.75           1272          47.00       182.22
  304.52        2954.00           1276          47.00       182.22
  304.55        2954.25           1279          45.00       173.50
  304.58        2954.50           1282          51.00       199.65
  304.61        2954.75           1286          40.00       151.70
  304.64        2955.00           1289          40.00       151.70
  304.67        2955.25           1292          45.00       173.50
  304.70        2955.50           1296          49.00       190.93
  304.73        2955.75           1299          47.00       182.22
  304.76        2956.00           1302          47.00       182.22
  304.79        2956.25           1306          47.00       182.22
  304.82        2956.50           1309          45.00       173.50
  304.86        2956.75           1312          43.00       164.78
  304.89        2957.00           1316          46.00       177.86
  304.92        2957.25           1319          44.00       169.14
  304.95        2957.50           1322          44.00       169.14
  304.98        2957.75           1326          45.00       173.50
  305.01        2958.00           1329          40.00       151.70
  305.04        2958.25           1332          42.00       160.42
  305.07        2958.50           1336          53.00       208.37
  305.10        2958.75           1339          44.00       169.14
  305.13        2959.00           1342          45.00       173.50
  305.16        2959.25           1346          42.00       160.42
  305.19        2959.50           1349          52.00       204.01
  305.22        2959.75           1352          62.00       247.60
  305.25        2960.00           1356          99.00       408.90
  305.29        2960.25           1359         128.00       535.32
  305.32        2960.50           1362         155.00       653.02
  305.35        2960.75           1366         219.00       932.02
  305.38        2961.00           1369         273.00      1167.43
  305.41        2961.25           1372         300.00      1285.14
  305.44        2961.50           1376         412.00      1773.42
  305.47        2961.75           1379         692.00      2994.17
  305.50        2962.00           1382        1380.00      5994.10
  305.53        2962.25           1386        3250.00     14150.73
  305.56        2962.50           1389        4875.00     21241.95
  305.60        2962.75           1392        6567.00     28628.76
  305.63        2963.00           1396        8744.00     38137.77
  305.66        2963.25           1399       10309.00     44976.95
  305.69        2963.50           1402       12020.00     52457.38
  305.72        2963.75           1406       14291.00     62391.30
  305.75        2964.00           1409       16084.00     70238.53
  305.78        2964.25           1412       17838.00     77918.65
  305.81        2964.50           1416       19910.00     86995.72
  305.84        2964.75           1419       21606.00     94429.31
  305.88        2965.00           1422       23337.00    102019.70
  305.91        2965.25           1426       25570.00    111816.50
  305.94        2965.50           1429       27193.00    118940.70
  305.97        2965.75           1432       28821.00    126089.90
  306.00        2966.00           1436       31236.00    136700.70
  306.03        2966.25           1439       32866.00    143866.30
  306.06        2966.50           1442       34327.00    150291.60
  306.09        2966.75           1446       35859.00    157031.90
  306.12        2967.00           1449       36143.00    158281.60
  306.16        2967.25           1452       36393.00    159381.90
  306.19        2967.50           1456       36206.00    158558.90
  306.22        2967.75           1459       36195.00    158510.50
  306.25        2968.00           1462       35874.00    157097.90
  306.28        2968.25           1466       34889.00    152763.90
  306.31        2968.50           1469       33084.00    144824.90
  306.34        2968.75           1472       31684.00    138669.90
  306.37        2969.00           1476       29499.00    129068.10
  306.41        2969.25           1479       27772.00    121482.90
  306.44        2969.50           1482       26267.00    114875.60
  306.47        2969.75           1486       24010.00    104971.70
  306.50        2970.00           1489       22250.00     97252.82
  306.53        2970.25           1492       20701.00     90462.26
  306.56        2970.50           1496       18578.00     81159.88
  306.59        2970.75           1499       16955.00     74051.86
  306.62        2971.00           1502       15290.00     66763.05
  306.65        2971.25           1506       13154.00     57417.04
  306.68        2971.50           1509       11368.00     49606.47
  306.72        2971.75           1513        9001.00     39260.69
  306.75        2972.00           1516        7453.00     32498.10
  306.78        2972.25           1519        5640.00     24581.33
  306.81        2972.50           1523        3606.00     15704.00
  306.84        2972.75           1526        2028.00      8820.12
  306.87        2973.00           1529         953.00      4132.16
  306.90        2973.25           1533         443.00      1908.57
  306.93        2973.50           1536         340.00      1459.52
  306.96        2973.75           1539         287.00      1228.47
  306.99        2974.00           1543         266.00      1136.92
  307.02        2974.25           1546         172.00       727.13
  307.06        2974.50           1549         127.00       530.96
  307.09        2974.75           1553          94.00       387.10
  307.12        2975.00           1556          68.00       273.76
  307.15        2975.25           1559          48.00       186.57
  307.18        2975.50           1563          53.00       208.37
  307.21        2975.75           1566          47.00       182.22
  307.24        2976.00           1569          49.00       190.93
  307.27        2976.25           1573          39.00       147.34
  307.30        2976.50           1576          43.00       164.78
  307.33        2976.75           1579          57.00       225.81
  307.36        2977.00           1583          51.00       199.65
  307.39        2977.25           1586          39.00       147.34
  307.42        2977.50           1590          46.00       177.86
  307.46        2977.75           1593          47.00       182.22
  307.49        2978.00           1596          39.00       147.34
  307.52        2978.25           1600          43.00       164.78
  307.55        2978.50           1603          42.00       160.42
  307.58        2978.75           1606          43.00       164.78
  307.61        2979.00           1610          39.00       147.34
  307.64        2979.25           1613          43.00       164.78
  307.67        2979.50           1616          46.00       177.86
  307.70        2979.75           1620          43.00       164.78
  307.73        2980.00           1623          40.00       151.70
  307.76        2980.25           1626          52.00       204.01
  307.80        2980.50           1630          45.00       173.50
  307.83        2980.75           1633          46.00       177.86
  307.86        2981.00           1637          35.00       129.90
  307.89        2981.25           1640          49.00       190.93
  307.92        2981.50           1643          43.00       164.78
  307.95        2981.75           1647          44.00       169.14
  307.98        2982.00           1650          49.00       190.93
  308.01        2982.25           1653          47.00       182.22
  308.04        2982.50           1657          45.00       173.50
  308.07        2982.75           1660          41.00       156.06
  308.10        2983.00           1663          58.00       230.17
  308.13        2983.25           1667          42.00       160.42
  308.16        2983.50           1670          44.00       169.14
  308.19        2983.75           1673          47.00       182.22
  308.23        2984.00           1677          37.00       138.62
HS scan finished at 05:08:27
end
************************************************************
  HS Scan of (1) Internal mercury lamp
************************************************************
Integration time is 0.2294 seconds per sample
dh020217Manchester 53.47 2.23 2.804185pr1000
************************************************************
Dead Time -------------------------  3E-08 
Number of Cycles Used -------------  4 
Starting Wavelength (Angstroms) ---  2950 
Final Wavelength (Angstoms) -------  2984 
Wavelength Increment (Angstroms) --  .25 
Filter Wheel #1 Position ---------- (1) Ground quartz diffuser (ND=2.32)
Filter Wheel #2 Position ---------- (1) Neutral Density 0.494



************************************************************
HS scan start time = 17:42:03
Dark Count =  5.9 


Time (GMT)  Wavelength (Ang)  Step Number  Raw Counts  Counts/Second

 1062.42        2950.00           1222          44.00       166.09
 1062.48        2950.25           1226          41.00       153.01
 1062.51        2950.50           1229          50.00       192.24
 1062.54        2950.75           1232          38.00       139.93
 1062.58        2951.00           1236          47.00       179.16
 1062.61        2951.25           1239          53.00       205.32
 1062.64        2951.50           1242          45.00       170.45
 1062.67        2951.75           1246          41.00       153.01
 1062.70        2952.00           1249          50.00       192.24
 1062.73        2952.25           1252          40.00       148.65
 1062.76        2952.50           1256          42.00       157.37
 1062.79        2952.75           1259          48.00       183.52
 1062.82        2953.00           1262          48.00       183.52
 1062.85        2953.25           1266          46.00       174.80
 1062.88        2953.50           1269          42.00       157.37
 1062.91        2953.75           1272          38.00       139.93
 1062.94        2954.00           1276          49.00       187.88
 1062.97        2954.25           1279          53.00       205.32
 1063.00        2954.50           1282          42.00       157.37
 1063.04        2954.75           1286          46.00       174.80
 1063.07        2955.00           1289          41.00       153.01
 1063.10        2955.25           1292          41.00       153.01
 1063.13        2955.50           1296          43.00       161.73
 1063.16        2955.75           1299          36.00       131.21
 1063.19        2956.00           1302          42.00       157.37
 1063.22        2956.25           1306          45.00       170.45
 1063.25        2956.50           1309          45.00       170.45
 1063.28        2956.75           1312          45.00       170.45
 1063.31        2957.00           1316          41.00       153.01
 1063.34        2957.25           1319          39.00       144.29
 1063.38        2957.50           1322          46.00       174.80
 1063.41        2957.75           1326          40.00       148.65
 1063.44        2958.00           1329          51.00       196.60
 1063.47        2958.25           1332          40.00       148.65
 1063.50        2958.50           1336          48.00       183.52
 1063.53        2958.75           1339          46.00       174.80
 1063.56        2959.00           1342          55.00       214.04
 1063.59        2959.25           1346          53.00       205.32
 1063.62        2959.50           1349          55.00       214.04
 1063.65        2959.75           1352          63.00       248.91
 1063.68        2960.00           1356          94.00       384.05
 1063.71        2960.25           1359         130.00       540.99
 1063.74        2960.50           1362         168.00       706.64
 1063.77        2960.75           1366         210.00       889.74
 1063.81        2961.00           1369         249.00      1059.75
 1063.84        2961.25           1372         307.00      1312.61
 1063.87        2961.50           1376         382.00      1639.58
 1063.90        2961.75           1379         555.00      2393.81
 1063.93        2962.00           1382        1118.00      4848.57
 1063.96        2962.25           1386        2733.00     11892.21
 1063.99        2962.50           1389        4250.00     18511.15
 1064.02        2962.75           1392        5802.00     25285.52
 1064.05        2963.00           1396        8052.00     35111.51
 1064.09        2963.25           1399        9573.00     41757.16
 1064.12        2963.50           1402       11263.00     49144.33
 1064.15        2963.75           1406       13764.00     60082.48
 1064.18        2964.00           1409       15391.00     67202.04
 1064.21        2964.25           1412       17045.00     74442.88
 1064.24        2964.50           1416       19346.00     84521.36
 1064.27        2964.75           1419       21199.00     92642.04
 1064.30        2965.00           1422       22784.00     99591.35
 1064.33        2965.25           1426       24856.00    108680.30
 1064.36        2965.50           1429       26606.00    116360.60
 1064.40        2965.75           1432       28226.00    123473.50
 1064.43        2966.00           1436       30558.00    133718.00
 1064.46        2966.25           1439       31972.00    139932.80
 1064.49        2966.50           1442       33534.00    146800.70
 1064.52        2966.75           1446       35292.00    154533.90
 1064.55        2967.00           1449       35893.00    157178.40
 1064.58        2967.25           1452       36076.00    157983.70
 1064.61        2967.50           1456       35944.00    157402.80
 1064.64        2967.75           1459       36120.00    158177.30
 1064.67        2968.00           1462       35792.00    156733.90
 1064.71        2968.25           1466       34800.00    152369.30
 1064.74        2968.50           1469       33457.00    146462.10
 1064.77        2968.75           1472       31946.00    139818.50
 1064.80        2969.00           1476       29779.00    130295.20
 1064.83        2969.25           1479       28177.00    123258.30
 1064.86        2969.50           1482       26109.00    114179.00
 1064.89        2969.75           1486       24200.00    105802.20
 1064.92        2970.00           1489       22509.00     98385.43
 1064.96        2970.25           1492       20886.00     91270.06
 1064.99        2970.50           1496       18654.00     81489.74
 1065.02        2970.75           1499       16916.00     73878.04
 1065.05        2971.00           1502       15435.00     67394.63
 1065.08        2971.25           1506       13220.00     57702.68
 1065.11        2971.50           1509       11295.00     49284.24
 1065.14        2971.75           1513        9303.00     40577.27
 1065.17        2972.00           1516        7771.00     33884.04
 1065.20        2972.25           1519        6155.00     26826.73
 1065.23        2972.50           1523        3878.00     16887.81
 1065.27        2972.75           1526        2308.00     10038.33
 1065.30        2973.00           1529        1090.00      4726.48
 1065.33        2973.25           1533         474.00      2040.67
 1065.36        2973.50           1536         341.00      1460.83
 1065.39        2973.75           1539         288.00      1229.78
 1065.42        2974.00           1543         238.00      1011.80
 1065.45        2974.25           1546         166.00       697.92
 1065.48        2974.50           1549         133.00       554.06
 1065.51        2974.75           1553          84.00       340.46
 1065.54        2975.00           1556          63.00       248.91
 1065.57        2975.25           1559          54.00       209.68
 1065.60        2975.50           1563          57.00       222.76
 1065.63        2975.75           1566          48.00       183.52
 1065.66        2976.00           1569          44.00       166.09
 1065.70        2976.25           1573          45.00       170.45
 1065.73        2976.50           1576          39.00       144.29
 1065.76        2976.75           1579          47.00       179.16
 1065.79        2977.00           1583          50.00       192.24
 1065.82        2977.25           1586          45.00       170.45
 1065.85        2977.50           1590          45.00       170.45
 1065.88        2977.75           1593          40.00       148.65
 1065.91        2978.00           1596          44.00       166.09
 1065.94        2978.25           1600          41.00       153.01
 1065.97        2978.50           1603          39.00       144.29
 1066.00        2978.75           1606          44.00       166.09
 1066.03        2979.00           1610          43.00       161.73
 1066.07        2979.25           1613          38.00       139.93
 1066.10        2979.50           1616          44.00       166.09
 1066.13        2979.75           1620          39.00       144.29
 1066.16        2980.00           1623          46.00       174.80
 1066.19        2980.25           1626          51.00       196.60
 1066.22        2980.50           1630          46.00       174.80
 1066.25        2980.75           1633          44.00       166.09
 1066.28        2981.00           1637          40.00       148.65
 1066.31        2981.25           1640          47.00       179.16
 1066.34        2981.50           1643          39.00       144.29
 1066.37        2981.75           1647          45.00       170.45
 1066.40        2982.00           1650          46.00       174.80
 1066.43        2982.25           1653          44.00       166.09
 1066.47        2982.50           1657          53.00       205.32
 1066.50        2982.75           1660          43.00       161.73
 1066.53        2983.00           1663          42.00       157.37
 1066.56        2983.25           1667          36.00       131.21
 1066.59        2983.50           1670          61.00       240.19
 1066.62        2983.75           1673          42.00       157.37
 1066.65        2984.00           1677          47.00       179.16
HS scan finished at 17:46:52
end
