************************************************************
  HS Scan of (1) Internal mercury lamp
************************************************************
Integration time is 0.2294 seconds per sample
dh030217Manchester 53.47 2.23 2.750537pr1000
************************************************************
Dead Time -------------------------  3E-08 
Number of Cycles Used -------------  4 
Starting Wavelength (Angstroms) ---  2950 
Final Wavelength (Angstoms) -------  2984 
Wavelength Increment (Angstroms) --  .25 
Filter Wheel #1 Position ---------- (1) Ground quartz diffuser (ND=2.32)
Filter Wheel #2 Position ---------- (1) Neutral Density 0.494



************************************************************
HS scan start time = 05:02:11
Dark Count =  7.1 


Time (GMT)  Wavelength (Ang)  Step Number  Raw Counts  Counts/Second

  302.55        2950.00           1222          43.00       156.50
  302.62        2950.25           1226          47.00       173.93
  302.65        2950.50           1229          39.00       139.06
  302.68        2950.75           1232          44.00       160.86
  302.71        2951.00           1236          44.00       160.86
  302.74        2951.25           1239          44.00       160.86
  302.77        2951.50           1242          40.00       143.42
  302.81        2951.75           1246          53.00       200.09
  302.84        2952.00           1249          43.00       156.50
  302.87        2952.25           1252          47.00       173.93
  302.90        2952.50           1256          40.00       143.42
  302.93        2952.75           1259          49.00       182.65
  302.96        2953.00           1262          45.00       165.21
  302.99        2953.25           1266          49.00       182.65
  303.02        2953.50           1269          45.00       165.21
  303.05        2953.75           1272          38.00       134.70
  303.08        2954.00           1276          51.00       191.37
  303.11        2954.25           1279          40.00       143.42
  303.15        2954.50           1282          44.00       160.86
  303.18        2954.75           1286          43.00       156.50
  303.21        2955.00           1289          43.00       156.50
  303.24        2955.25           1292          47.00       173.93
  303.27        2955.50           1296          48.00       178.29
  303.30        2955.75           1299          41.00       147.78
  303.33        2956.00           1302          42.00       152.14
  303.36        2956.25           1306          44.00       160.86
  303.39        2956.50           1309          41.00       147.78
  303.42        2956.75           1312          43.00       156.50
  303.46        2957.00           1316          46.00       169.57
  303.49        2957.25           1319          51.00       191.37
  303.52        2957.50           1322          44.00       160.86
  303.55        2957.75           1326          43.00       156.50
  303.58        2958.00           1329          40.00       143.42
  303.61        2958.25           1332          45.00       165.21
  303.64        2958.50           1336          51.00       191.37
  303.67        2958.75           1339          48.00       178.29
  303.70        2959.00           1342          46.00       169.57
  303.73        2959.25           1346          48.00       178.29
  303.76        2959.50           1349          50.00       187.01
  303.79        2959.75           1352          57.00       217.53
  303.82        2960.00           1356          84.00       335.23
  303.85        2960.25           1359         112.00       457.29
  303.89        2960.50           1362         153.00       636.02
  303.92        2960.75           1366         203.00       853.99
  303.95        2961.00           1369         248.00      1050.16
  303.98        2961.25           1372         293.00      1246.34
  304.01        2961.50           1376         368.00      1573.31
  304.04        2961.75           1379         475.00      2039.79
  304.07        2962.00           1382         756.00      3264.92
  304.10        2962.25           1386        1896.00      8236.12
  304.13        2962.50           1389        3446.00     14997.59
  304.16        2962.75           1392        5041.00     21958.23
  304.19        2963.00           1396        7380.00     32170.97
  304.22        2963.25           1399        9001.00     39252.39
  304.25        2963.50           1402       10564.00     46083.29
  304.29        2963.75           1406       12800.00     55860.32
  304.32        2964.00           1409       14751.00     64395.87
  304.35        2964.25           1412       16342.00     71359.66
  304.38        2964.50           1416       18574.00     81134.04
  304.41        2964.75           1419       20140.00     87995.28
  304.44        2965.00           1422       21847.00     95477.54
  304.47        2965.25           1426       24250.00    106016.20
  304.50        2965.50           1429       25787.00    112760.50
  304.53        2965.75           1432       27645.00    120916.90
  304.57        2966.00           1436       29791.00    130342.60
  304.60        2966.25           1439       31677.00    138630.70
  304.63        2966.50           1442       32976.00    144341.60
  304.66        2966.75           1446       35059.00    153503.40
  304.69        2967.00           1449       35802.00    156772.60
  304.72        2967.25           1452       36075.00    157974.00
  304.75        2967.50           1456       36104.00    158101.60
  304.78        2967.75           1459       36157.00    158334.90
  304.81        2968.00           1462       36167.00    158378.90
  304.85        2968.25           1466       35732.00    156464.60
  304.88        2968.50           1469       34498.00    151035.50
  304.91        2968.75           1472       33064.00    144728.60
  304.94        2969.00           1476       30909.00    135255.20
  304.97        2969.25           1479       29306.00    128211.90
  305.00        2969.50           1482       27574.00    120605.20
  305.03        2969.75           1486       25410.00    111106.00
  305.06        2970.00           1489       23754.00    103840.40
  305.10        2970.25           1492       22036.00     96306.18
  305.13        2970.50           1496       19883.00     86869.08
  305.16        2970.75           1499       18208.00     79530.85
  305.19        2971.00           1502       16579.00     72397.27
  305.22        2971.25           1506       14492.00     63262.51
  305.25        2971.50           1509       12748.00     55632.89
  305.28        2971.75           1513       10374.00     45252.77
  305.31        2972.00           1516        8708.00     37972.18
  305.34        2972.25           1519        6920.00     30161.98
  305.38        2972.50           1523        4795.00     20884.49
  305.41        2972.75           1526        3210.00     13967.93
  305.44        2973.00           1529        1814.00      7878.50
  305.47        2973.25           1533         681.00      2937.92
  305.50        2973.50           1536         407.00      1743.33
  305.53        2973.75           1539         304.00      1294.30
  305.56        2974.00           1543         259.00      1098.12
  305.59        2974.25           1546         201.00       845.27
  305.62        2974.50           1549         150.00       622.94
  305.65        2974.75           1553         117.00       479.08
  305.68        2975.00           1556          81.00       322.15
  305.71        2975.25           1559          67.00       261.12
  305.74        2975.50           1563          46.00       169.57
  305.78        2975.75           1566          44.00       160.86
  305.81        2976.00           1569          49.00       182.65
  305.84        2976.25           1573          45.00       165.21
  305.87        2976.50           1576          45.00       165.21
  305.90        2976.75           1579          48.00       178.29
  305.93        2977.00           1583          49.00       182.65
  305.96        2977.25           1586          45.00       165.21
  305.99        2977.50           1590          43.00       156.50
  306.02        2977.75           1593          48.00       178.29
  306.05        2978.00           1596          43.00       156.50
  306.08        2978.25           1600          40.00       143.42
  306.11        2978.50           1603          52.00       195.73
  306.14        2978.75           1606          46.00       169.57
  306.17        2979.00           1610          53.00       200.09
  306.20        2979.25           1613          38.00       134.70
  306.23        2979.50           1616          46.00       169.57
  306.26        2979.75           1620          42.00       152.14
  306.30        2980.00           1623          45.00       165.21
  306.33        2980.25           1626          42.00       152.14
  306.36        2980.50           1630          46.00       169.57
  306.39        2980.75           1633          43.00       156.50
  306.42        2981.00           1637          45.00       165.21
  306.45        2981.25           1640          39.00       139.06
  306.48        2981.50           1643          40.00       143.42
  306.51        2981.75           1647          37.00       130.34
  306.54        2982.00           1650          45.00       165.21
  306.57        2982.25           1653          45.00       165.21
  306.60        2982.50           1657          36.00       125.98
  306.63        2982.75           1660          42.00       152.14
  306.66        2983.00           1663          45.00       165.21
  306.70        2983.25           1667          39.00       139.06
  306.73        2983.50           1670          42.00       152.14
  306.76        2983.75           1673          43.00       156.50
  306.79        2984.00           1677          48.00       178.29
HS scan finished at 05:07:00
end
************************************************************
  HS Scan of (1) Internal mercury lamp
************************************************************
Integration time is 0.2294 seconds per sample
dh030217Manchester 53.47 2.23 2.804185pr1000
************************************************************
Dead Time -------------------------  3E-08 
Number of Cycles Used -------------  4 
Starting Wavelength (Angstroms) ---  2950 
Final Wavelength (Angstoms) -------  2984 
Wavelength Increment (Angstroms) --  .25 
Filter Wheel #1 Position ---------- (1) Ground quartz diffuser (ND=2.32)
Filter Wheel #2 Position ---------- (1) Neutral Density 0.494



************************************************************
HS scan start time = 17:42:03
Dark Count =  7.8 


Time (GMT)  Wavelength (Ang)  Step Number  Raw Counts  Counts/Second

 1062.41        2950.00           1222          59.00       223.19
 1062.48        2950.25           1226          45.00       162.16
 1062.51        2950.50           1229          51.00       188.32
 1062.54        2950.75           1232          41.00       144.73
 1062.57        2951.00           1236          41.00       144.73
 1062.60        2951.25           1239          52.00       192.68
 1062.63        2951.50           1242          49.00       179.60
 1062.67        2951.75           1246          43.00       153.44
 1062.70        2952.00           1249          42.00       149.09
 1062.73        2952.25           1252          42.00       149.09
 1062.76        2952.50           1256          43.00       153.44
 1062.79        2952.75           1259          42.00       149.09
 1062.82        2953.00           1262          41.00       144.73
 1062.85        2953.25           1266          38.00       131.65
 1062.88        2953.50           1269          50.00       183.96
 1062.91        2953.75           1272          53.00       197.04
 1062.94        2954.00           1276          43.00       153.44
 1062.98        2954.25           1279          46.00       166.52
 1063.01        2954.50           1282          39.00       136.01
 1063.04        2954.75           1286          52.00       192.68
 1063.07        2955.00           1289          46.00       166.52
 1063.10        2955.25           1292          44.00       157.80
 1063.13        2955.50           1296          41.00       144.73
 1063.16        2955.75           1299          45.00       162.16
 1063.19        2956.00           1302          42.00       149.09
 1063.22        2956.25           1306          50.00       183.96
 1063.25        2956.50           1309          45.00       162.16
 1063.28        2956.75           1312          40.00       140.37
 1063.31        2957.00           1316          40.00       140.37
 1063.34        2957.25           1319          53.00       197.04
 1063.37        2957.50           1322          43.00       153.44
 1063.41        2957.75           1326          45.00       162.16
 1063.44        2958.00           1329          44.00       157.80
 1063.47        2958.25           1332          50.00       183.96
 1063.50        2958.50           1336          46.00       166.52
 1063.53        2958.75           1339          48.00       175.24
 1063.56        2959.00           1342          48.00       175.24
 1063.59        2959.25           1346          50.00       183.96
 1063.62        2959.50           1349          50.00       183.96
 1063.65        2959.75           1352          70.00       271.14
 1063.68        2960.00           1356         104.00       419.36
 1063.71        2960.25           1359         139.00       571.94
 1063.74        2960.50           1362         170.00       707.08
 1063.77        2960.75           1366         222.00       933.77
 1063.81        2961.00           1369         280.00      1186.62
 1063.84        2961.25           1372         333.00      1417.67
 1063.87        2961.50           1376         398.00      1701.05
 1063.90        2961.75           1379         614.00      2642.76
 1063.93        2962.00           1382        1242.00      5380.99
 1063.96        2962.25           1386        2906.00     12638.62
 1063.99        2962.50           1389        4474.00     19480.43
 1064.02        2962.75           1392        6261.00     27281.26
 1064.05        2963.00           1396        8263.00     36024.97
 1064.08        2963.25           1399        9976.00     43510.12
 1064.12        2963.50           1402       11780.00     51396.54
 1064.15        2963.75           1406       14035.00     61259.83
 1064.18        2964.00           1409       15684.00     68476.19
 1064.21        2964.25           1412       17157.00     74924.99
 1064.24        2964.50           1416       19382.00     84670.77
 1064.27        2964.75           1419       21130.00     92331.25
 1064.30        2965.00           1422       22759.00     99473.39
 1064.33        2965.25           1426       24925.00    108974.70
 1064.36        2965.50           1429       26673.00    116646.40
 1064.39        2965.75           1432       28247.00    123557.40
 1064.42        2966.00           1436       30778.00    134676.40
 1064.46        2966.25           1439       32382.00    141726.90
 1064.49        2966.50           1442       33814.00    148023.80
 1064.52        2966.75           1446       35342.00    154745.50
 1064.55        2967.00           1449       35839.00    156932.40
 1064.58        2967.25           1452       36122.00    158177.80
 1064.61        2967.50           1456       35944.00    157394.50
 1064.64        2967.75           1459       35944.00    157394.50
 1064.67        2968.00           1462       35762.00    156593.60
 1064.70        2968.25           1466       34807.00    152391.70
 1064.74        2968.50           1469       33277.00    145662.20
 1064.77        2968.75           1472       31998.00    140038.70
 1064.80        2969.00           1476       29741.00    130119.90
 1064.83        2969.25           1479       27922.00    122130.20
 1064.86        2969.50           1482       26318.00    115088.00
 1064.89        2969.75           1486       24282.00    106153.60
 1064.92        2970.00           1489       22718.00     99293.59
 1064.95        2970.25           1492       21135.00     92353.18
 1064.98        2970.50           1496       19039.00     83168.02
 1065.02        2970.75           1499       17396.00     75971.56
 1065.05        2971.00           1502       15659.00     68366.76
 1065.08        2971.25           1506       13408.00     58516.76
 1065.11        2971.50           1509       11701.00     51051.10
 1065.14        2971.75           1513        9470.00     41298.74
 1065.17        2972.00           1516        7778.00     33906.31
 1065.20        2972.25           1519        6293.00     27420.98
 1065.23        2972.50           1523        4164.00     18127.56
 1065.26        2972.75           1526        2607.00     11334.28
 1065.30        2973.00           1529        1201.00      5202.21
 1065.33        2973.25           1533         471.00      2019.30
 1065.36        2973.50           1536         344.00      1465.63
 1065.39        2973.75           1539         279.00      1182.26
 1065.42        2974.00           1543         232.00       977.36
 1065.45        2974.25           1546         174.00       724.51
 1065.48        2974.50           1549         140.00       576.30
 1065.51        2974.75           1553          87.00       345.25
 1065.54        2975.00           1556          65.00       249.35
 1065.57        2975.25           1559          61.00       231.91
 1065.60        2975.50           1563          45.00       162.16
 1065.64        2975.75           1566          46.00       166.52
 1065.67        2976.00           1569          44.00       157.80
 1065.70        2976.25           1573          43.00       153.44
 1065.73        2976.50           1576          48.00       175.24
 1065.76        2976.75           1579          42.00       149.09
 1065.79        2977.00           1583          48.00       175.24
 1065.82        2977.25           1586          41.00       144.73
 1065.85        2977.50           1590          48.00       175.24
 1065.88        2977.75           1593          38.00       131.65
 1065.91        2978.00           1596          43.00       153.44
 1065.95        2978.25           1600          44.00       157.80
 1065.98        2978.50           1603          44.00       157.80
 1066.01        2978.75           1606          45.00       162.16
 1066.04        2979.00           1610          43.00       153.44
 1066.07        2979.25           1613          44.00       157.80
 1066.10        2979.50           1616          48.00       175.24
 1066.13        2979.75           1620          42.00       149.09
 1066.16        2980.00           1623          45.00       162.16
 1066.19        2980.25           1626          43.00       153.44
 1066.22        2980.50           1630          55.00       205.76
 1066.25        2980.75           1633          37.00       127.29
 1066.28        2981.00           1637          40.00       140.37
 1066.31        2981.25           1640          46.00       166.52
 1066.34        2981.50           1643          48.00       175.24
 1066.38        2981.75           1647          38.00       131.65
 1066.41        2982.00           1650          41.00       144.73
 1066.44        2982.25           1653          43.00       153.44
 1066.47        2982.50           1657          39.00       136.01
 1066.50        2982.75           1660          49.00       179.60
 1066.53        2983.00           1663          45.00       162.16
 1066.56        2983.25           1667          45.00       162.16
 1066.59        2983.50           1670          44.00       157.80
 1066.62        2983.75           1673          43.00       153.44
 1066.65        2984.00           1677          42.00       149.09
HS scan finished at 17:46:52
end
