************************************************************
  HS Scan of (1) Internal mercury lamp
************************************************************
Integration time is 0.2294 seconds per sample
dh020218Manchester 53.47 2.23 2.750537pr1000
************************************************************
Dead Time -------------------------  3E-08 
Number of Cycles Used -------------  4 
Starting Wavelength (Angstroms) ---  2950 
Final Wavelength (Angstoms) -------  2984 
Wavelength Increment (Angstroms) --  .25 
Filter Wheel #1 Position ---------- (1) Ground quartz diffuser (ND=2.32)
Filter Wheel #2 Position ---------- (1) Neutral Density 0.494



************************************************************
HS scan start time = 05:04:01
Dark Count =  8.3 


Time (GMT)  Wavelength (Ang)  Step Number  Raw Counts  Counts/Second

  304.39        2950.00           1222          61.00       229.73
  304.45        2950.25           1226          58.00       216.65
  304.48        2950.50           1229          55.00       203.58
  304.52        2950.75           1232          66.00       251.53
  304.55        2951.00           1236          71.00       273.32
  304.58        2951.25           1239          57.00       212.29
  304.61        2951.50           1242          62.00       234.09
  304.64        2951.75           1246          60.00       225.37
  304.67        2952.00           1249          60.00       225.37
  304.70        2952.25           1252          59.00       221.01
  304.73        2952.50           1256          56.00       207.94
  304.76        2952.75           1259          58.00       216.65
  304.79        2953.00           1262          61.00       229.73
  304.82        2953.25           1266          60.00       225.37
  304.85        2953.50           1269          53.00       194.86
  304.88        2953.75           1272          65.00       247.17
  304.92        2954.00           1276          59.00       221.01
  304.95        2954.25           1279          59.00       221.01
  304.98        2954.50           1282          61.00       229.73
  305.01        2954.75           1286          64.00       242.81
  305.04        2955.00           1289          62.00       234.09
  305.07        2955.25           1292          62.00       234.09
  305.10        2955.50           1296          51.00       186.14
  305.13        2955.75           1299          58.00       216.65
  305.16        2956.00           1302          55.00       203.58
  305.19        2956.25           1306          64.00       242.81
  305.22        2956.50           1309          68.00       260.25
  305.25        2956.75           1312          61.00       229.73
  305.29        2957.00           1316          67.00       255.89
  305.32        2957.25           1319          52.00       190.50
  305.35        2957.50           1322          63.00       238.45
  305.38        2957.75           1326          62.00       234.09
  305.41        2958.00           1329          63.00       238.45
  305.44        2958.25           1332          61.00       229.73
  305.47        2958.50           1336          61.00       229.73
  305.50        2958.75           1339          65.00       247.17
  305.53        2959.00           1342          56.00       207.94
  305.56        2959.25           1346          58.00       216.65
  305.59        2959.50           1349          72.00       277.68
  305.62        2959.75           1352          82.00       321.28
  305.66        2960.00           1356         106.00       425.90
  305.69        2960.25           1359         142.00       582.83
  305.72        2960.50           1362         176.00       731.05
  305.75        2960.75           1366         223.00       935.95
  305.78        2961.00           1369         270.00      1140.84
  305.81        2961.25           1372         297.00      1258.55
  305.84        2961.50           1376         374.00      1594.24
  305.87        2961.75           1379         459.00      1964.81
  305.90        2962.00           1382         914.00      3948.59
  305.93        2962.25           1386        2351.00     10215.42
  305.96        2962.50           1389        3890.00     16929.70
  305.99        2962.75           1392        5324.00     23188.32
  306.03        2963.00           1396        7345.00     32012.86
  306.06        2963.25           1399        8914.00     38867.01
  306.09        2963.50           1402       10345.00     45120.76
  306.12        2963.75           1406       12506.00     54569.21
  306.15        2964.00           1409       14051.00     61327.64
  306.18        2964.25           1412       15499.00     67664.25
  306.21        2964.50           1416       17466.00     76275.91
  306.24        2964.75           1419       19076.00     83327.91
  306.28        2965.00           1422       20470.00     89436.25
  306.31        2965.25           1426       22608.00     98809.02
  306.34        2965.50           1429       24093.00    105322.20
  306.37        2965.75           1432       25564.00    111776.60
  306.40        2966.00           1436       27862.00    121864.50
  306.43        2966.25           1439       29092.00    127266.60
  306.46        2966.50           1442       30390.00    132969.20
  306.49        2966.75           1446       32044.00    140238.70
  306.52        2967.00           1449       32626.00    142797.40
  306.55        2967.25           1452       32665.00    142968.90
  306.59        2967.50           1456       32859.00    143821.90
  306.62        2967.75           1459       32710.00    143166.80
  306.65        2968.00           1462       32570.00    142551.20
  306.68        2968.25           1466       31844.00    139359.50
  306.71        2968.50           1469       30598.00    133883.20
  306.74        2968.75           1472       29230.00    127872.80
  306.77        2969.00           1476       27150.00    118738.30
  306.80        2969.25           1479       25775.00    112702.60
  306.83        2969.50           1482       24138.00    105519.60
  306.87        2969.75           1486       22088.00     96528.91
  306.90        2970.00           1489       20662.00     90277.74
  306.93        2970.25           1492       19336.00     84467.04
  306.96        2970.50           1496       17399.00     75982.50
  306.99        2970.75           1499       16054.00     70093.62
  307.02        2971.00           1502       14434.00     63003.46
  307.05        2971.25           1506       12494.00     54516.73
  307.08        2971.50           1509       10868.00     47406.96
  307.11        2971.75           1513        8918.00     38884.48
  307.14        2972.00           1516        7369.00     32117.68
  307.17        2972.25           1519        5925.00     25812.05
  307.21        2972.50           1523        4062.00     17680.26
  307.24        2972.75           1526        2642.00     11484.78
  307.27        2973.00           1529        1264.00      5474.74
  307.30        2973.25           1533         445.00      1903.77
  307.33        2973.50           1536         331.00      1406.77
  307.36        2973.75           1539         267.00      1127.76
  307.39        2974.00           1543         214.00       896.71
  307.42        2974.25           1546         162.00       670.02
  307.45        2974.50           1549         127.00       517.44
  307.48        2974.75           1553          83.00       325.64
  307.51        2975.00           1556          68.00       260.25
  307.55        2975.25           1559          73.00       282.04
  307.58        2975.50           1563          58.00       216.65
  307.61        2975.75           1566          61.00       229.73
  307.64        2976.00           1569          60.00       225.37
  307.67        2976.25           1573          57.00       212.29
  307.70        2976.50           1576          59.00       221.01
  307.73        2976.75           1579          70.00       268.96
  307.76        2977.00           1583          61.00       229.73
  307.79        2977.25           1586          63.00       238.45
  307.82        2977.50           1590          63.00       238.45
  307.85        2977.75           1593          62.00       234.09
  307.89        2978.00           1596          59.00       221.01
  307.92        2978.25           1600          54.00       199.22
  307.95        2978.50           1603          54.00       199.22
  307.98        2978.75           1606          53.00       194.86
  308.01        2979.00           1610          54.00       199.22
  308.04        2979.25           1613          49.00       177.42
  308.07        2979.50           1616          57.00       212.29
  308.10        2979.75           1620          54.00       199.22
  308.13        2980.00           1623          56.00       207.94
  308.16        2980.25           1626          50.00       181.78
  308.19        2980.50           1630          59.00       221.01
  308.22        2980.75           1633          53.00       194.86
  308.25        2981.00           1637          61.00       229.73
  308.28        2981.25           1640          59.00       221.01
  308.31        2981.50           1643          53.00       194.86
  308.35        2981.75           1647          54.00       199.22
  308.38        2982.00           1650          61.00       229.73
  308.41        2982.25           1653          54.00       199.22
  308.44        2982.50           1657          57.00       212.29
  308.47        2982.75           1660          54.00       199.22
  308.50        2983.00           1663          55.00       203.58
  308.53        2983.25           1667          61.00       229.73
  308.56        2983.50           1670          49.00       177.42
  308.59        2983.75           1673          57.00       212.29
  308.62        2984.00           1677          58.00       216.65
HS scan finished at 05:08:50
end
************************************************************
  HS Scan of (1) Internal mercury lamp
************************************************************
Integration time is 0.2294 seconds per sample
dh020218Manchester 53.47 2.23 2.804185pr1000
************************************************************
Dead Time -------------------------  3E-08 
Number of Cycles Used -------------  4 
Starting Wavelength (Angstroms) ---  2950 
Final Wavelength (Angstoms) -------  2984 
Wavelength Increment (Angstroms) --  .25 
Filter Wheel #1 Position ---------- (1) Ground quartz diffuser (ND=2.32)
Filter Wheel #2 Position ---------- (1) Neutral Density 0.494



************************************************************
HS scan start time = 17:42:00
Dark Count =  6.2 


Time (GMT)  Wavelength (Ang)  Step Number  Raw Counts  Counts/Second

 1062.37        2950.00           1222          65.00       256.32
 1062.43        2950.25           1226          60.00       234.53
 1062.46        2950.50           1229          57.00       221.45
 1062.50        2950.75           1232          60.00       234.53
 1062.53        2951.00           1236          59.00       230.17
 1062.56        2951.25           1239          65.00       256.32
 1062.59        2951.50           1242          61.00       238.89
 1062.62        2951.75           1246          58.00       225.81
 1062.65        2952.00           1249          60.00       234.53
 1062.68        2952.25           1252          61.00       238.89
 1062.71        2952.50           1256          56.00       217.09
 1062.74        2952.75           1259          58.00       225.81
 1062.77        2953.00           1262          66.00       260.68
 1062.80        2953.25           1266          59.00       230.17
 1062.83        2953.50           1269          57.00       221.45
 1062.86        2953.75           1272          58.00       225.81
 1062.89        2954.00           1276          63.00       247.60
 1062.93        2954.25           1279          58.00       225.81
 1062.96        2954.50           1282          70.00       278.12
 1062.99        2954.75           1286          57.00       221.45
 1063.02        2955.00           1289          75.00       299.92
 1063.05        2955.25           1292          59.00       230.17
 1063.08        2955.50           1296          66.00       260.68
 1063.11        2955.75           1299          62.00       243.25
 1063.14        2956.00           1302          63.00       247.60
 1063.17        2956.25           1306          68.00       269.40
 1063.20        2956.50           1309          60.00       234.53
 1063.23        2956.75           1312          67.00       265.04
 1063.26        2957.00           1316          59.00       230.17
 1063.29        2957.25           1319          63.00       247.60
 1063.33        2957.50           1322          60.00       234.53
 1063.36        2957.75           1326          70.00       278.12
 1063.39        2958.00           1329          59.00       230.17
 1063.42        2958.25           1332          58.00       225.81
 1063.45        2958.50           1336          57.00       221.45
 1063.48        2958.75           1339          55.00       212.73
 1063.51        2959.00           1342          56.00       217.09
 1063.55        2959.25           1346          69.00       273.76
 1063.59        2959.50           1349          71.00       282.48
 1063.62        2959.75           1352         106.00       435.05
 1063.65        2960.00           1356         126.00       522.24
 1063.68        2960.25           1359         159.00       666.10
 1063.71        2960.50           1362         199.00       840.47
 1063.74        2960.75           1366         245.00      1041.01
 1063.77        2961.00           1369         290.00      1237.19
 1063.80        2961.25           1372         343.00      1468.24
 1063.83        2961.50           1376         405.00      1738.54
 1063.87        2961.75           1379         613.00      2645.37
 1063.90        2962.00           1382        1247.00      5409.77
 1063.93        2962.25           1386        2986.00     12994.60
 1063.96        2962.50           1389        4402.00     19173.19
 1063.99        2962.75           1392        5811.00     25323.50
 1064.02        2963.00           1396        7805.00     34031.24
 1064.05        2963.25           1399        9340.00     40737.64
 1064.08        2963.50           1402       10941.00     47735.27
 1064.11        2963.75           1406       13133.00     57320.81
 1064.14        2964.00           1409       14699.00     64172.25
 1064.17        2964.25           1412       16180.00     70654.41
 1064.20        2964.50           1416       18169.00     79363.97
 1064.25        2964.75           1419       19580.00     85545.33
 1064.28        2965.00           1422       21257.00     92894.97
 1064.31        2965.25           1426       23131.00    101111.80
 1064.34        2965.50           1429       24565.00    107402.20
 1064.38        2965.75           1432       26162.00    114410.30
 1064.41        2966.00           1436       28176.00    123252.60
 1064.44        2966.25           1439       29569.00    129371.20
 1064.47        2966.50           1442       30898.00    135210.80
 1064.50        2966.75           1446       32304.00    141391.00
 1064.53        2967.00           1449       32477.00    142151.60
 1064.56        2967.25           1452       32534.00    142402.20
 1064.59        2967.50           1456       32475.00    142142.80
 1064.63        2967.75           1459       32333.00    141518.50
 1064.66        2968.00           1462       32291.00    141333.80
 1064.69        2968.25           1466       31165.00    136384.30
 1064.72        2968.50           1469       29816.00    130456.40
 1064.75        2968.75           1472       28356.00    124043.20
 1064.78        2969.00           1476       26354.00    115253.10
 1064.81        2969.25           1479       24982.00    109231.80
 1064.84        2969.50           1482       23453.00    102524.10
 1064.87        2969.75           1486       21464.00     93802.40
 1064.91        2970.00           1489       19969.00     87249.88
 1064.94        2970.25           1492       18456.00     80621.10
 1064.97        2970.50           1496       16369.00     71481.81
 1065.00        2970.75           1499       15114.00     65988.40
 1065.03        2971.00           1502       13686.00     59739.93
 1065.06        2971.25           1506       11530.00     50310.40
 1065.09        2971.50           1509       10267.00     44789.00
 1065.12        2971.75           1513        8300.00     36193.60
 1065.15        2972.00           1516        6654.00     29004.30
 1065.18        2972.25           1519        5209.00     22695.48
 1065.21        2972.50           1523        3275.00     14255.44
 1065.25        2972.75           1526        1838.00      7987.09
 1065.28        2973.00           1529         830.00      3591.49
 1065.31        2973.25           1533         373.00      1599.03
 1065.34        2973.50           1536         287.00      1224.11
 1065.37        2973.75           1539         229.00       971.26
 1065.40        2974.00           1543         179.00       753.29
 1065.43        2974.25           1546         135.00       561.47
 1065.46        2974.50           1549          99.00       404.54
 1065.49        2974.75           1553          85.00       343.51
 1065.52        2975.00           1556          65.00       256.32
 1065.55        2975.25           1559          57.00       221.45
 1065.59        2975.50           1563          58.00       225.81
 1065.62        2975.75           1566          56.00       217.09
 1065.65        2976.00           1569          54.00       208.37
 1065.68        2976.25           1573          60.00       234.53
 1065.72        2976.50           1576          59.00       230.17
 1065.75        2976.75           1579          55.00       212.73
 1065.78        2977.00           1583          59.00       230.17
 1065.81        2977.25           1586          58.00       225.81
 1065.85        2977.50           1590          61.00       238.89
 1065.89        2977.75           1593          61.00       238.89
 1065.92        2978.00           1596          64.00       251.96
 1065.95        2978.25           1600          55.00       212.73
 1065.98        2978.50           1603          57.00       221.45
 1066.01        2978.75           1606          53.00       204.01
 1066.05        2979.00           1610          53.00       204.01
 1066.09        2979.25           1613          54.00       208.37
 1066.12        2979.50           1616          47.00       177.86
 1066.15        2979.75           1620          59.00       230.17
 1066.18        2980.00           1623          55.00       212.73
 1066.21        2980.25           1626          62.00       243.25
 1066.24        2980.50           1630          62.00       243.25
 1066.28        2980.75           1633          57.00       221.45
 1066.32        2981.00           1637          55.00       212.73
 1066.35        2981.25           1640          61.00       238.89
 1066.38        2981.50           1643          53.00       204.01
 1066.41        2981.75           1647          54.00       208.37
 1066.44        2982.00           1650          65.00       256.32
 1066.47        2982.25           1653          57.00       221.45
 1066.50        2982.50           1657          52.00       199.65
 1066.53        2982.75           1660          52.00       199.65
 1066.56        2983.00           1663          56.00       217.09
 1066.59        2983.25           1667          51.00       195.29
 1066.63        2983.50           1670          52.00       199.65
 1066.66        2983.75           1673          56.00       217.09
 1066.69        2984.00           1677          59.00       230.17
HS scan finished at 17:46:54
end
