************************************************************
  HS Scan of (1) Internal mercury lamp
************************************************************
Integration time is 0.2294 seconds per sample
dh070217Manchester 53.47 2.23 2.750537pr1000
************************************************************
Dead Time -------------------------  3E-08 
Number of Cycles Used -------------  4 
Starting Wavelength (Angstroms) ---  2950 
Final Wavelength (Angstoms) -------  2984 
Wavelength Increment (Angstroms) --  .25 
Filter Wheel #1 Position ---------- (1) Ground quartz diffuser (ND=2.32)
Filter Wheel #2 Position ---------- (1) Neutral Density 0.494



************************************************************
HS scan start time = 04:55:45
Dark Count =  6.6 


Time (GMT)  Wavelength (Ang)  Step Number  Raw Counts  Counts/Second

  296.12        2950.00           1222          42.00       154.32
  296.19        2950.25           1226          41.00       149.96
  296.22        2950.50           1229          49.00       184.83
  296.25        2950.75           1232          42.00       154.32
  296.28        2951.00           1236          41.00       149.96
  296.31        2951.25           1239          48.00       180.47
  296.34        2951.50           1242          41.00       149.96
  296.37        2951.75           1246          40.00       145.60
  296.40        2952.00           1249          37.00       132.52
  296.44        2952.25           1252          40.00       145.60
  296.47        2952.50           1256          40.00       145.60
  296.50        2952.75           1259          45.00       167.39
  296.53        2953.00           1262          44.00       163.03
  296.56        2953.25           1266          54.00       206.63
  296.59        2953.50           1269          42.00       154.32
  296.62        2953.75           1272          55.00       210.99
  296.65        2954.00           1276          51.00       193.55
  296.68        2954.25           1279          53.00       202.27
  296.71        2954.50           1282          46.00       171.75
  296.74        2954.75           1286          46.00       171.75
  296.77        2955.00           1289          40.00       145.60
  296.80        2955.25           1292          45.00       167.39
  296.83        2955.50           1296          46.00       171.75
  296.86        2955.75           1299          41.00       149.96
  296.90        2956.00           1302          39.00       141.24
  296.93        2956.25           1306          43.00       158.68
  296.96        2956.50           1309          42.00       154.32
  296.99        2956.75           1312          41.00       149.96
  297.02        2957.00           1316          48.00       180.47
  297.05        2957.25           1319          47.00       176.11
  297.08        2957.50           1322          43.00       158.68
  297.11        2957.75           1326          47.00       176.11
  297.14        2958.00           1329          54.00       206.63
  297.17        2958.25           1332          41.00       149.96
  297.20        2958.50           1336          51.00       193.55
  297.23        2958.75           1339          51.00       193.55
  297.27        2959.00           1342          47.00       176.11
  297.30        2959.25           1346          44.00       163.03
  297.33        2959.50           1349          59.00       228.42
  297.36        2959.75           1352          61.00       237.14
  297.39        2960.00           1356          95.00       385.36
  297.42        2960.25           1359         120.00       494.34
  297.45        2960.50           1362         141.00       585.89
  297.48        2960.75           1366         232.00       982.59
  297.51        2961.00           1369         239.00      1013.11
  297.54        2961.25           1372         308.00      1313.91
  297.58        2961.50           1376         394.00      1688.84
  297.61        2961.75           1379         620.00      2674.15
  297.64        2962.00           1382        1317.00      5713.27
  297.67        2962.25           1386        3238.00     14092.27
  297.70        2962.50           1389        4870.00     21214.02
  297.73        2962.75           1392        6428.00     28015.69
  297.76        2963.00           1396        8622.00     37598.62
  297.79        2963.25           1399       10264.00     44774.14
  297.82        2963.50           1402       11841.00     51668.53
  297.86        2963.75           1406       14197.00     61973.89
  297.89        2964.00           1409       15759.00     68809.73
  297.92        2964.25           1412       17422.00     76090.68
  297.95        2964.50           1416       19796.00     86490.04
  297.98        2964.75           1419       21308.00     93116.78
  298.01        2965.00           1422       22970.00    100404.00
  298.04        2965.25           1426       25334.00    110774.70
  298.07        2965.50           1429       27017.00    118161.80
  298.10        2965.75           1432       28868.00    126290.10
  298.13        2966.00           1436       30706.00    134365.30
  298.17        2966.25           1439       32339.00    141543.10
  298.20        2966.50           1442       34129.00    149414.60
  298.23        2966.75           1446       35547.00    155652.80
  298.26        2967.00           1449       35762.00    156598.80
  298.29        2967.25           1452       35751.00    156550.40
  298.32        2967.50           1456       36004.00    157663.80
  298.35        2967.75           1459       35867.00    157060.90
  298.38        2968.00           1462       35735.00    156480.00
  298.41        2968.25           1466       34423.00    150707.80
  298.44        2968.50           1469       33137.00    145051.80
  298.47        2968.75           1472       31598.00    138285.70
  298.50        2969.00           1476       29491.00    129026.80
  298.54        2969.25           1479       27461.00    120111.20
  298.57        2969.50           1482       26068.00    113996.00
  298.60        2969.75           1486       23907.00    104513.80
  298.63        2970.00           1489       22347.00     97672.00
  298.66        2970.25           1492       20617.00     90087.97
  298.69        2970.50           1496       18700.00     81688.18
  298.72        2970.75           1499       16961.00     74072.01
  298.75        2971.00           1502       15156.00     66170.46
  298.78        2971.25           1506       12869.00     56164.30
  298.81        2971.50           1509       11166.00     48717.19
  298.85        2971.75           1513        9149.00     39901.27
  298.88        2972.00           1516        7450.00     32478.89
  298.91        2972.25           1519        5874.00     25596.81
  298.94        2972.50           1523        3641.00     15850.61
  298.97        2972.75           1526        2112.00      9180.38
  299.00        2973.00           1529        1029.00      4457.44
  299.03        2973.25           1533         451.00      1937.34
  299.06        2973.50           1536         334.00      1427.26
  299.09        2973.75           1539         279.00      1187.49
  299.12        2974.00           1543         246.00      1043.62
  299.15        2974.25           1546         179.00       751.54
  299.18        2974.50           1549         139.00       577.17
  299.22        2974.75           1553          86.00       346.12
  299.25        2975.00           1556          68.00       267.66
  299.28        2975.25           1559          64.00       250.22
  299.31        2975.50           1563          54.00       206.63
  299.34        2975.75           1566          60.00       232.78
  299.37        2976.00           1569          45.00       167.39
  299.40        2976.25           1573          58.00       224.06
  299.43        2976.50           1576          46.00       171.75
  299.46        2976.75           1579          44.00       163.03
  299.49        2977.00           1583          51.00       193.55
  299.52        2977.25           1586          47.00       176.11
  299.55        2977.50           1590          43.00       158.68
  299.58        2977.75           1593          47.00       176.11
  299.61        2978.00           1596          48.00       180.47
  299.65        2978.25           1600          47.00       176.11
  299.68        2978.50           1603          41.00       149.96
  299.71        2978.75           1606          53.00       202.27
  299.74        2979.00           1610          38.00       136.88
  299.77        2979.25           1613          49.00       184.83
  299.80        2979.50           1616          50.00       189.19
  299.83        2979.75           1620          46.00       171.75
  299.86        2980.00           1623          39.00       141.24
  299.89        2980.25           1626          41.00       149.96
  299.92        2980.50           1630          45.00       167.39
  299.95        2980.75           1633          43.00       158.68
  299.99        2981.00           1637          43.00       158.68
  300.02        2981.25           1640          49.00       184.83
  300.05        2981.50           1643          46.00       171.75
  300.08        2981.75           1647          52.00       197.91
  300.11        2982.00           1650          45.00       167.39
  300.14        2982.25           1653          41.00       149.96
  300.17        2982.50           1657          38.00       136.88
  300.20        2982.75           1660          44.00       163.03
  300.23        2983.00           1663          32.00       110.72
  300.26        2983.25           1667          42.00       154.32
  300.29        2983.50           1670          51.00       193.55
  300.32        2983.75           1673          41.00       149.96
  300.35        2984.00           1677          39.00       141.24
HS scan finished at 05:00:34
end
************************************************************
  HS Scan of (1) Internal mercury lamp
************************************************************
Integration time is 0.2294 seconds per sample
dh070217Manchester 53.47 2.23 2.750537pr1000
************************************************************
Dead Time -------------------------  3E-08 
Number of Cycles Used -------------  4 
Starting Wavelength (Angstroms) ---  2950 
Final Wavelength (Angstoms) -------  2984 
Wavelength Increment (Angstroms) --  .25 
Filter Wheel #1 Position ---------- (1) Ground quartz diffuser (ND=2.32)
Filter Wheel #2 Position ---------- (1) Neutral Density 0.494



************************************************************
HS scan start time = 18:12:04
Dark Count =  5.4 


Time (GMT)  Wavelength (Ang)  Step Number  Raw Counts  Counts/Second

 1092.44        2950.00           1222          47.00       181.34
 1092.51        2950.25           1226          53.00       207.50
 1092.54        2950.50           1229          50.00       194.42
 1092.57        2950.75           1232          44.00       168.27
 1092.60        2951.00           1236          43.00       163.91
 1092.63        2951.25           1239          43.00       163.91
 1092.66        2951.50           1242          43.00       163.91
 1092.69        2951.75           1246          45.00       172.63
 1092.72        2952.00           1249          53.00       207.50
 1092.75        2952.25           1252          50.00       194.42
 1092.78        2952.50           1256          48.00       185.70
 1092.81        2952.75           1259          45.00       172.63
 1092.84        2953.00           1262          45.00       172.63
 1092.87        2953.25           1266          39.00       146.47
 1092.90        2953.50           1269          53.00       207.50
 1092.93        2953.75           1272          42.00       159.55
 1092.97        2954.00           1276          47.00       181.34
 1093.00        2954.25           1279          41.00       155.19
 1093.03        2954.50           1282          47.00       181.34
 1093.06        2954.75           1286          36.00       133.39
 1093.09        2955.00           1289          48.00       185.70
 1093.12        2955.25           1292          40.00       150.83
 1093.15        2955.50           1296          37.00       137.75
 1093.18        2955.75           1299          42.00       159.55
 1093.21        2956.00           1302          46.00       176.98
 1093.24        2956.25           1306          41.00       155.19
 1093.28        2956.50           1309          43.00       163.91
 1093.31        2956.75           1312          43.00       163.91
 1093.34        2957.00           1316          49.00       190.06
 1093.37        2957.25           1319          44.00       168.27
 1093.40        2957.50           1322          48.00       185.70
 1093.43        2957.75           1326          39.00       146.47
 1093.46        2958.00           1329          50.00       194.42
 1093.49        2958.25           1332          41.00       155.19
 1093.52        2958.50           1336          46.00       176.98
 1093.55        2958.75           1339          51.00       198.78
 1093.59        2959.00           1342          47.00       181.34
 1093.62        2959.25           1346          49.00       190.06
 1093.65        2959.50           1349          56.00       220.58
 1093.68        2959.75           1352          66.00       264.17
 1093.71        2960.00           1356          94.00       386.23
 1093.74        2960.25           1359         136.00       569.32
 1093.77        2960.50           1362         159.00       669.59
 1093.80        2960.75           1366         223.00       948.59
 1093.83        2961.00           1369         262.00      1118.61
 1093.86        2961.25           1372         308.00      1319.15
 1093.89        2961.50           1376         383.00      1646.11
 1093.92        2961.75           1379         569.00      2457.03
 1093.95        2962.00           1382        1094.00      4746.10
 1093.98        2962.25           1386        2897.00     12609.83
 1094.02        2962.50           1389        4577.00     19940.44
 1094.05        2962.75           1392        6060.00     26414.13
 1094.08        2963.00           1396        8068.00     35183.59
 1094.11        2963.25           1399        9743.00     42502.29
 1094.14        2963.50           1402       11369.00     49609.96
 1094.17        2963.75           1406       13800.00     60242.17
 1094.20        2964.00           1409       15300.00     66805.95
 1094.23        2964.25           1412       17049.00     74462.58
 1094.26        2964.50           1416       19226.00     83997.80
 1094.29        2964.75           1419       20804.00     90912.83
 1094.32        2965.00           1422       22697.00     99212.03
 1094.35        2965.25           1426       24995.00    109292.40
 1094.38        2965.50           1429       26697.00    116762.30
 1094.42        2965.75           1432       28390.00    124196.00
 1094.45        2966.00           1436       30578.00    133808.10
 1094.48        2966.25           1439       31914.00    139680.00
 1094.51        2966.50           1442       33466.00    146503.90
 1094.54        2966.75           1446       34838.00    152538.70
 1094.57        2967.00           1449       35240.00    154307.30
 1094.60        2967.25           1452       35459.00    155270.90
 1094.63        2967.50           1456       35457.00    155262.10
 1094.66        2967.75           1459       35407.00    155042.10
 1094.70        2968.00           1462       35087.00    153634.10
 1094.73        2968.25           1466       34077.00    149191.10
 1094.76        2968.50           1469       32760.00    143399.40
 1094.79        2968.75           1472       31092.00    136066.90
 1094.82        2969.00           1476       28806.00    126023.10
 1094.85        2969.25           1479       27389.00    119800.30
 1094.88        2969.50           1482       25603.00    111960.40
 1094.91        2969.75           1486       23485.00    102668.00
 1094.94        2970.00           1489       21979.00     96063.72
 1094.97        2970.25           1492       20416.00     89212.29
 1095.01        2970.50           1496       18126.00     79179.15
 1095.04        2970.75           1499       16439.00     71791.77
 1095.07        2971.00           1502       14823.00     64718.39
 1095.10        2971.25           1506       12432.00     54258.26
 1095.13        2971.50           1509       10665.00     46532.22
 1095.16        2971.75           1513        8505.00     37092.69
 1095.19        2972.00           1516        6944.00     30274.22
 1095.22        2972.25           1519        5420.00     23620.05
 1095.25        2972.50           1523        3420.00     14891.57
 1095.28        2972.75           1526        2077.00      9032.96
 1095.32        2973.00           1529        1006.00      4362.38
 1095.35        2973.25           1533         465.00      2003.61
 1095.38        2973.50           1536         314.00      1345.30
 1095.41        2973.75           1539         300.00      1284.27
 1095.44        2974.00           1543         237.00      1009.62
 1095.47        2974.25           1546         166.00       700.10
 1095.50        2974.50           1549         129.00       538.81
 1095.53        2974.75           1553          77.00       312.12
 1095.56        2975.00           1556          67.00       268.53
 1095.59        2975.25           1559          49.00       190.06
 1095.62        2975.50           1563          51.00       198.78
 1095.65        2975.75           1566          49.00       190.06
 1095.68        2976.00           1569          51.00       198.78
 1095.72        2976.25           1573          49.00       190.06
 1095.75        2976.50           1576          44.00       168.27
 1095.78        2976.75           1579          42.00       159.55
 1095.81        2977.00           1583          51.00       198.78
 1095.84        2977.25           1586          49.00       190.06
 1095.87        2977.50           1590          42.00       159.55
 1095.90        2977.75           1593          54.00       211.86
 1095.93        2978.00           1596          46.00       176.98
 1095.96        2978.25           1600          53.00       207.50
 1095.99        2978.50           1603          43.00       163.91
 1096.02        2978.75           1606          44.00       168.27
 1096.05        2979.00           1610          41.00       155.19
 1096.09        2979.25           1613          38.00       142.11
 1096.12        2979.50           1616          49.00       190.06
 1096.15        2979.75           1620          46.00       176.98
 1096.18        2980.00           1623          47.00       181.34
 1096.21        2980.25           1626          51.00       198.78
 1096.24        2980.50           1630          39.00       146.47
 1096.27        2980.75           1633          48.00       185.70
 1096.30        2981.00           1637          45.00       172.63
 1096.33        2981.25           1640          46.00       176.98
 1096.36        2981.50           1643          43.00       163.91
 1096.39        2981.75           1647          50.00       194.42
 1096.42        2982.00           1650          45.00       172.63
 1096.46        2982.25           1653          41.00       155.19
 1096.49        2982.50           1657          45.00       172.63
 1096.52        2982.75           1660          42.00       159.55
 1096.55        2983.00           1663          47.00       181.34
 1096.58        2983.25           1667          46.00       176.98
 1096.61        2983.50           1670          41.00       155.19
 1096.64        2983.75           1673          38.00       142.11
 1096.67        2984.00           1677          41.00       155.19
HS scan finished at 18:16:53
end
