************************************************************
  HS Scan of (1) Internal mercury lamp
************************************************************
Integration time is 0.2294 seconds per sample
dh150217Manchester 53.47 2.23 2.804185pr1000
************************************************************
Dead Time -------------------------  3E-08 
Number of Cycles Used -------------  4 
Starting Wavelength (Angstroms) ---  2950 
Final Wavelength (Angstoms) -------  2984 
Wavelength Increment (Angstroms) --  .25 
Filter Wheel #1 Position ---------- (1) Ground quartz diffuser (ND=2.32)
Filter Wheel #2 Position ---------- (1) Neutral Density 0.494



************************************************************
HS scan start time = 04:40:35
Dark Count =  4.4 


Time (GMT)  Wavelength (Ang)  Step Number  Raw Counts  Counts/Second

  280.95        2950.00           1222          51.00       203.14
  281.02        2950.25           1226          41.00       159.55
  281.05        2950.50           1229          41.00       159.55
  281.08        2950.75           1232          51.00       203.14
  281.11        2951.00           1236          42.00       163.91
  281.14        2951.25           1239          44.00       172.63
  281.17        2951.50           1242          43.00       168.27
  281.20        2951.75           1246          44.00       172.63
  281.23        2952.00           1249          42.00       163.91
  281.27        2952.25           1252          46.00       181.34
  281.30        2952.50           1256          41.00       159.55
  281.33        2952.75           1259          40.00       155.19
  281.36        2953.00           1262          45.00       176.98
  281.39        2953.25           1266          44.00       172.63
  281.42        2953.50           1269          44.00       172.63
  281.45        2953.75           1272          39.00       150.83
  281.48        2954.00           1276          45.00       176.98
  281.51        2954.25           1279          43.00       168.27
  281.54        2954.50           1282          43.00       168.27
  281.57        2954.75           1286          42.00       163.91
  281.60        2955.00           1289          51.00       203.14
  281.63        2955.25           1292          54.00       216.22
  281.67        2955.50           1296          47.00       185.70
  281.70        2955.75           1299          47.00       185.70
  281.73        2956.00           1302          47.00       185.70
  281.76        2956.25           1306          48.00       190.06
  281.79        2956.50           1309          49.00       194.42
  281.82        2956.75           1312          43.00       168.27
  281.85        2957.00           1316          41.00       159.55
  281.88        2957.25           1319          39.00       150.83
  281.91        2957.50           1322          40.00       155.19
  281.94        2957.75           1326          43.00       168.27
  281.97        2958.00           1329          50.00       198.78
  282.00        2958.25           1332          42.00       163.91
  282.04        2958.50           1336          44.00       172.63
  282.07        2958.75           1339          41.00       159.55
  282.10        2959.00           1342          40.00       155.19
  282.13        2959.25           1346          46.00       181.34
  282.16        2959.50           1349          52.00       207.50
  282.19        2959.75           1352          56.00       224.94
  282.22        2960.00           1356          88.00       364.43
  282.25        2960.25           1359         114.00       477.77
  282.28        2960.50           1362         168.00       713.18
  282.31        2960.75           1366         215.00       918.07
  282.34        2961.00           1369         282.00      1210.16
  282.37        2961.25           1372         286.00      1227.60
  282.40        2961.50           1376         357.00      1537.12
  282.44        2961.75           1379         506.00      2186.72
  282.47        2962.00           1382         862.00      3738.87
  282.50        2962.25           1386        2230.00      9704.66
  282.53        2962.50           1389        3851.00     16776.53
  282.56        2962.75           1392        5497.00     23960.55
  282.59        2963.00           1396        7690.00     33536.78
  282.62        2963.25           1399        9264.00     40413.40
  282.65        2963.50           1402       10814.00     47187.94
  282.68        2963.75           1406       13308.00     58094.19
  282.71        2964.00           1409       14950.00     65278.55
  282.75        2964.25           1412       16656.00     72746.21
  282.78        2964.50           1416       18898.00     82565.21
  282.81        2964.75           1419       20555.00     89825.87
  282.84        2965.00           1422       22238.00     97203.71
  282.87        2965.25           1426       24428.00    106809.00
  282.90        2965.50           1429       26156.00    114391.90
  282.93        2965.75           1432       27865.00    121894.80
  282.96        2966.00           1436       30264.00    132432.70
  282.99        2966.25           1439       31815.00    139249.20
  283.03        2966.50           1442       33371.00    146090.50
  283.06        2966.75           1446       34928.00    152939.00
  283.09        2967.00           1449       35890.00    157171.80
  283.12        2967.25           1452       35788.00    156722.90
  283.15        2967.50           1456       35902.00    157224.60
  283.18        2967.75           1459       35907.00    157246.60
  283.21        2968.00           1462       35911.00    157264.20
  283.24        2968.25           1466       34936.00    152974.20
  283.27        2968.50           1469       33823.00    148078.40
  283.31        2968.75           1472       32033.00    140207.50
  283.34        2969.00           1476       30238.00    132318.50
  283.37        2969.25           1479       28490.00    124639.60
  283.40        2969.50           1482       26804.00    117236.40
  283.43        2969.75           1486       24579.00    107471.50
  283.46        2970.00           1489       22865.00     99953.16
  283.49        2970.25           1492       21166.00     92503.96
  283.52        2970.50           1496       19124.00     83555.31
  283.56        2970.75           1499       17641.00     77059.37
  283.59        2971.00           1502       15967.00     69729.85
  283.62        2971.25           1506       13690.00     59765.30
  283.65        2971.50           1509       11930.00     52067.32
  283.68        2971.75           1513        9778.00     42659.62
  283.71        2972.00           1516        8187.00     35707.81
  283.74        2972.25           1519        6624.00     28881.16
  283.77        2972.50           1523        4402.00     19181.04
  283.80        2972.75           1526        2867.00     12483.32
  283.84        2973.00           1529        1619.00      7039.85
  283.87        2973.25           1533         570.00      2465.74
  283.90        2973.50           1536         385.00      1659.19
  283.93        2973.75           1539         337.00      1449.93
  283.96        2974.00           1543         267.00      1144.76
  283.99        2974.25           1546         205.00       874.48
  284.02        2974.50           1549         162.00       687.02
  284.05        2974.75           1553         117.00       490.85
  284.08        2975.00           1556          74.00       303.40
  284.11        2975.25           1559          63.00       255.45
  284.14        2975.50           1563          62.00       251.09
  284.17        2975.75           1566          45.00       176.98
  284.21        2976.00           1569          51.00       203.14
  284.24        2976.25           1573          43.00       168.27
  284.27        2976.50           1576          49.00       194.42
  284.30        2976.75           1579          48.00       190.06
  284.33        2977.00           1583          43.00       168.27
  284.36        2977.25           1586          50.00       198.78
  284.39        2977.50           1590          45.00       176.98
  284.42        2977.75           1593          45.00       176.98
  284.45        2978.00           1596          43.00       168.27
  284.48        2978.25           1600          44.00       172.63
  284.51        2978.50           1603          49.00       194.42
  284.54        2978.75           1606          42.00       163.91
  284.57        2979.00           1610          42.00       163.91
  284.61        2979.25           1613          45.00       176.98
  284.64        2979.50           1616          44.00       172.63
  284.67        2979.75           1620          50.00       198.78
  284.70        2980.00           1623          48.00       190.06
  284.73        2980.25           1626          40.00       155.19
  284.76        2980.50           1630          42.00       163.91
  284.79        2980.75           1633          44.00       172.63
  284.82        2981.00           1637          47.00       185.70
  284.85        2981.25           1640          41.00       159.55
  284.88        2981.50           1643          45.00       176.98
  284.91        2981.75           1647          45.00       176.98
  284.94        2982.00           1650          42.00       163.91
  284.97        2982.25           1653          44.00       172.63
  285.01        2982.50           1657          46.00       181.34
  285.04        2982.75           1660          40.00       155.19
  285.07        2983.00           1663          38.00       146.47
  285.10        2983.25           1667          46.00       181.34
  285.13        2983.50           1670          41.00       159.55
  285.16        2983.75           1673          53.00       211.86
  285.19        2984.00           1677          40.00       155.19
HS scan finished at 04:45:24
end
************************************************************
  HS Scan of (1) Internal mercury lamp
************************************************************
Integration time is 0.2294 seconds per sample
dh150217Manchester 53.47 2.23 2.804185pr1000
************************************************************
Dead Time -------------------------  3E-08 
Number of Cycles Used -------------  4 
Starting Wavelength (Angstroms) ---  2950 
Final Wavelength (Angstoms) -------  2984 
Wavelength Increment (Angstroms) --  .25 
Filter Wheel #1 Position ---------- (1) Ground quartz diffuser (ND=2.32)
Filter Wheel #2 Position ---------- (1) Neutral Density 0.494



************************************************************
HS scan start time = 18:12:04
Dark Count =  7.9 


Time (GMT)  Wavelength (Ang)  Step Number  Raw Counts  Counts/Second

 1092.43        2950.00           1222          43.00       153.01
 1092.50        2950.25           1226          54.00       200.96
 1092.53        2950.50           1229          52.00       192.24
 1092.56        2950.75           1232          45.00       161.73
 1092.59        2951.00           1236          47.00       170.45
 1092.62        2951.25           1239          44.00       157.37
 1092.65        2951.50           1242          40.00       139.93
 1092.68        2951.75           1246          44.00       157.37
 1092.71        2952.00           1249          46.00       166.09
 1092.74        2952.25           1252          49.00       179.16
 1092.77        2952.50           1256          47.00       170.45
 1092.80        2952.75           1259          46.00       166.09
 1092.83        2953.00           1262          49.00       179.16
 1092.87        2953.25           1266          48.00       174.80
 1092.90        2953.50           1269          45.00       161.73
 1092.93        2953.75           1272          49.00       179.16
 1092.96        2954.00           1276          48.00       174.80
 1092.99        2954.25           1279          38.00       131.21
 1093.02        2954.50           1282          41.00       144.29
 1093.05        2954.75           1286          42.00       148.65
 1093.08        2955.00           1289          46.00       166.09
 1093.11        2955.25           1292          44.00       157.37
 1093.14        2955.50           1296          36.00       122.49
 1093.18        2955.75           1299          49.00       179.16
 1093.21        2956.00           1302          58.00       218.40
 1093.24        2956.25           1306          42.00       148.65
 1093.27        2956.50           1309          42.00       148.65
 1093.30        2956.75           1312          49.00       179.16
 1093.33        2957.00           1316          42.00       148.65
 1093.36        2957.25           1319          43.00       153.01
 1093.39        2957.50           1322          49.00       179.16
 1093.42        2957.75           1326          48.00       174.80
 1093.45        2958.00           1329          47.00       170.45
 1093.48        2958.25           1332          60.00       227.12
 1093.51        2958.50           1336          45.00       161.73
 1093.55        2958.75           1339          48.00       174.80
 1093.58        2959.00           1342          49.00       179.16
 1093.61        2959.25           1346          45.00       161.73
 1093.64        2959.50           1349          52.00       192.24
 1093.67        2959.75           1352          66.00       253.27
 1093.70        2960.00           1356          98.00       392.77
 1093.73        2960.25           1359         128.00       523.55
 1093.76        2960.50           1362         152.00       628.17
 1093.79        2960.75           1366         221.00       928.97
 1093.82        2961.00           1369         294.00      1247.21
 1093.85        2961.25           1372         305.00      1295.17
 1093.89        2961.50           1376         402.00      1718.05
 1093.92        2961.75           1379         601.00      2585.64
 1093.95        2962.00           1382        1319.00      5716.32
 1093.98        2962.25           1386        3230.00     14051.69
 1094.01        2962.50           1389        4712.00     20518.73
 1094.04        2962.75           1392        6372.00     27765.49
 1094.07        2963.00           1396        8458.00     36876.43
 1094.10        2963.25           1399       10019.00     43697.62
 1094.13        2963.50           1402       11677.00     50945.72
 1094.16        2963.75           1406       13965.00     60953.12
 1094.20        2964.00           1409       15634.00     68256.90
 1094.23        2964.25           1412       17393.00     75957.99
 1094.26        2964.50           1416       19649.00     85840.21
 1094.29        2964.75           1419       21149.00     92414.09
 1094.32        2965.00           1422       22670.00     99082.66
 1094.35        2965.25           1426       25134.00    109891.30
 1094.38        2965.50           1429       26937.00    117804.90
 1094.41        2965.75           1432       28642.00    125291.80
 1094.44        2966.00           1436       30864.00    135053.90
 1094.47        2966.25           1439       32311.00    141414.30
 1094.51        2966.50           1442       33699.00    147517.60
 1094.54        2966.75           1446       35101.00    153684.70
 1094.57        2967.00           1449       35425.00    155110.30
 1094.60        2967.25           1452       35543.00    155629.50
 1094.63        2967.50           1456       35504.00    155457.90
 1094.66        2967.75           1459       35720.00    156408.30
 1094.69        2968.00           1462       35234.00    154269.90
 1094.72        2968.25           1466       34211.00    149769.50
 1094.75        2968.50           1469       32816.00    143634.60
 1094.78        2968.75           1472       31298.00    136961.30
 1094.82        2969.00           1476       29146.00    127505.60
 1094.85        2969.25           1479       27424.00    119943.00
 1094.88        2969.50           1482       25697.00    112362.00
 1094.91        2969.75           1486       23507.00    102753.50
 1094.94        2970.00           1489       22014.00     96206.21
 1094.97        2970.25           1492       20505.00     89591.39
 1095.00        2970.50           1496       18353.00     80162.47
 1095.03        2970.75           1499       16753.00     73155.58
 1095.06        2971.00           1502       15014.00     65543.31
 1095.09        2971.25           1506       12835.00     56009.90
 1095.13        2971.50           1509       10978.00     47889.59
 1095.16        2971.75           1513        8898.00     38798.84
 1095.19        2972.00           1516        7317.00     31892.32
 1095.22        2972.25           1519        5633.00     24538.99
 1095.25        2972.50           1523        3581.00     15583.14
 1095.28        2972.75           1526        2126.00      9235.78
 1095.31        2973.00           1529        1017.00      4399.45
 1095.34        2973.25           1533         449.00      1922.95
 1095.37        2973.50           1536         332.00      1412.88
 1095.40        2973.75           1539         289.00      1225.42
 1095.43        2974.00           1543         226.00       950.77
 1095.47        2974.25           1546         196.00       819.99
 1095.50        2974.50           1549         138.00       567.14
 1095.53        2974.75           1553          95.00       379.69
 1095.56        2975.00           1556          66.00       253.27
 1095.59        2975.25           1559          55.00       205.32
 1095.62        2975.50           1563          46.00       166.09
 1095.65        2975.75           1566          53.00       196.60
 1095.68        2976.00           1569          46.00       166.09
 1095.71        2976.25           1573          50.00       183.52
 1095.74        2976.50           1576          35.00       118.13
 1095.77        2976.75           1579          42.00       148.65
 1095.80        2977.00           1583          44.00       157.37
 1095.84        2977.25           1586          42.00       148.65
 1095.87        2977.50           1590          49.00       179.16
 1095.90        2977.75           1593          45.00       161.73
 1095.93        2978.00           1596          48.00       174.80
 1095.96        2978.25           1600          43.00       153.01
 1095.99        2978.50           1603          44.00       157.37
 1096.02        2978.75           1606          42.00       148.65
 1096.05        2979.00           1610          39.00       135.57
 1096.08        2979.25           1613          45.00       161.73
 1096.11        2979.50           1616          44.00       157.37
 1096.15        2979.75           1620          44.00       157.37
 1096.18        2980.00           1623          44.00       157.37
 1096.21        2980.25           1626          43.00       153.01
 1096.24        2980.50           1630          43.00       153.01
 1096.27        2980.75           1633          50.00       183.52
 1096.30        2981.00           1637          48.00       174.80
 1096.33        2981.25           1640          39.00       135.57
 1096.36        2981.50           1643          42.00       148.65
 1096.39        2981.75           1647          49.00       179.16
 1096.43        2982.00           1650          45.00       161.73
 1096.46        2982.25           1653          40.00       139.93
 1096.49        2982.50           1657          48.00       174.80
 1096.52        2982.75           1660          43.00       153.01
 1096.55        2983.00           1663          51.00       187.88
 1096.58        2983.25           1667          43.00       153.01
 1096.61        2983.50           1670          49.00       179.16
 1096.64        2983.75           1673          42.00       148.65
 1096.67        2984.00           1677          42.00       148.65
HS scan finished at 18:16:53
end
