************************************************************
  HS Scan of (1) Internal mercury lamp
************************************************************
Integration time is 0.2294 seconds per sample
dh160217Manchester 53.47 2.23 2.750537pr1000
************************************************************
Dead Time -------------------------  3E-08 
Number of Cycles Used -------------  4 
Starting Wavelength (Angstroms) ---  2950 
Final Wavelength (Angstoms) -------  2984 
Wavelength Increment (Angstroms) --  .25 
Filter Wheel #1 Position ---------- (1) Ground quartz diffuser (ND=2.32)
Filter Wheel #2 Position ---------- (1) Neutral Density 0.494



************************************************************
HS scan start time = 04:38:30
Dark Count =  4 


Time (GMT)  Wavelength (Ang)  Step Number  Raw Counts  Counts/Second

  278.86        2950.00           1222          45.00       178.73
  278.93        2950.25           1226          46.00       183.09
  278.96        2950.50           1229          40.00       156.93
  278.99        2950.75           1232          43.00       170.01
  279.02        2951.00           1236          50.00       200.52
  279.05        2951.25           1239          44.00       174.37
  279.09        2951.50           1242          48.00       191.81
  279.12        2951.75           1246          44.00       174.37
  279.15        2952.00           1249          48.00       191.81
  279.18        2952.25           1252          38.00       148.21
  279.21        2952.50           1256          50.00       200.52
  279.24        2952.75           1259          39.00       152.57
  279.27        2953.00           1262          45.00       178.73
  279.30        2953.25           1266          44.00       174.37
  279.33        2953.50           1269          47.00       187.45
  279.36        2953.75           1272          47.00       187.45
  279.39        2954.00           1276          48.00       191.81
  279.42        2954.25           1279          40.00       156.93
  279.46        2954.50           1282          45.00       178.73
  279.49        2954.75           1286          39.00       152.57
  279.52        2955.00           1289          45.00       178.73
  279.55        2955.25           1292          43.00       170.01
  279.58        2955.50           1296          44.00       174.37
  279.61        2955.75           1299          41.00       161.29
  279.64        2956.00           1302          48.00       191.81
  279.67        2956.25           1306          50.00       200.52
  279.70        2956.50           1309          49.00       196.17
  279.73        2956.75           1312          38.00       148.21
  279.76        2957.00           1316          47.00       187.45
  279.79        2957.25           1319          44.00       174.37
  279.82        2957.50           1322          49.00       196.17
  279.85        2957.75           1326          47.00       187.45
  279.89        2958.00           1329          40.00       156.93
  279.92        2958.25           1332          40.00       156.93
  279.95        2958.50           1336          44.00       174.37
  279.98        2958.75           1339          51.00       204.88
  280.01        2959.00           1342          41.00       161.29
  280.04        2959.25           1346          45.00       178.73
  280.07        2959.50           1349          49.00       196.17
  280.10        2959.75           1352          60.00       244.12
  280.14        2960.00           1356          69.00       283.35
  280.17        2960.25           1359          99.00       414.13
  280.20        2960.50           1362         131.00       553.63
  280.23        2960.75           1366         202.00       863.14
  280.26        2961.00           1369         239.00      1024.44
  280.29        2961.25           1372         300.00      1290.37
  280.32        2961.50           1376         402.00      1735.05
  280.35        2961.75           1379         591.00      2559.05
  280.38        2962.00           1382        1219.00      5297.27
  280.41        2962.25           1386        2798.00     12184.05
  280.44        2962.50           1389        4467.00     19466.47
  280.47        2962.75           1392        6178.00     26935.45
  280.51        2963.00           1396        8117.00     35403.76
  280.54        2963.25           1399        9567.00     41739.25
  280.57        2963.50           1402       11361.00     49581.11
  280.60        2963.75           1406       13648.00     59583.31
  280.63        2964.00           1409       15299.00     66807.71
  280.66        2964.25           1412       17191.00     75090.50
  280.69        2964.50           1416       19264.00     84170.43
  280.72        2964.75           1419       20895.00     91317.83
  280.75        2965.00           1422       22517.00     98428.84
  280.79        2965.25           1426       24693.00    107973.40
  280.82        2965.50           1429       26327.00    115144.20
  280.85        2965.75           1432       27971.00    122362.00
  280.88        2966.00           1436       30232.00    132293.90
  280.91        2966.25           1439       31780.00    139097.10
  280.94        2966.50           1442       33301.00    145784.40
  280.97        2966.75           1446       35175.00    154027.50
  281.00        2967.00           1449       35480.00    155369.40
  281.03        2967.25           1452       35859.00    157037.10
  281.07        2967.50           1456       35615.00    155963.40
  281.10        2967.75           1459       35717.00    156412.30
  281.13        2968.00           1462       35695.00    156315.50
  281.16        2968.25           1466       34484.00    150987.50
  281.19        2968.50           1469       33414.00    146281.40
  281.22        2968.75           1472       31703.00    138758.60
  281.25        2969.00           1476       29554.00    129315.00
  281.28        2969.25           1479       27907.00    122081.00
  281.31        2969.50           1482       26335.00    115179.40
  281.34        2969.75           1486       24016.00    105003.30
  281.38        2970.00           1489       22438.00     98082.44
  281.41        2970.25           1492       20881.00     91256.47
  281.44        2970.50           1496       18794.00     82111.35
  281.47        2970.75           1499       17193.00     75099.27
  281.50        2971.00           1502       15591.00     68085.75
  281.53        2971.25           1506       13392.00     58463.39
  281.56        2971.50           1509       11601.00     50630.47
  281.59        2971.75           1513        9369.00     40873.98
  281.62        2972.00           1516        7852.00     34246.15
  281.66        2972.25           1519        6345.00     27664.63
  281.69        2972.50           1523        4081.00     17781.93
  281.72        2972.75           1526        2454.00     10683.46
  281.75        2973.00           1529        1188.00      5162.09
  281.78        2973.25           1533         506.00      2188.46
  281.81        2973.50           1536         372.00      1604.26
  281.84        2973.75           1539         305.00      1312.17
  281.87        2974.00           1543         256.00      1098.55
  281.90        2974.25           1546         203.00       867.50
  281.93        2974.50           1549         197.00       841.35
  281.96        2974.75           1553         104.00       435.93
  282.00        2975.00           1556          83.00       344.38
  282.03        2975.25           1559          62.00       252.84
  282.06        2975.50           1563          57.00       231.04
  282.09        2975.75           1566          47.00       187.45
  282.12        2976.00           1569          50.00       200.52
  282.15        2976.25           1573          43.00       170.01
  282.18        2976.50           1576          39.00       152.57
  282.21        2976.75           1579          39.00       152.57
  282.24        2977.00           1583          51.00       204.88
  282.27        2977.25           1586          40.00       156.93
  282.30        2977.50           1590          48.00       191.81
  282.33        2977.75           1593          40.00       156.93
  282.37        2978.00           1596          47.00       187.45
  282.40        2978.25           1600          45.00       178.73
  282.43        2978.50           1603          52.00       209.24
  282.46        2978.75           1606          39.00       152.57
  282.49        2979.00           1610          48.00       191.81
  282.52        2979.25           1613          43.00       170.01
  282.55        2979.50           1616          51.00       204.88
  282.58        2979.75           1620          40.00       156.93
  282.61        2980.00           1623          42.00       165.65
  282.64        2980.25           1626          42.00       165.65
  282.67        2980.50           1630          48.00       191.81
  282.70        2980.75           1633          40.00       156.93
  282.73        2981.00           1637          41.00       161.29
  282.76        2981.25           1640          44.00       174.37
  282.79        2981.50           1643          44.00       174.37
  282.83        2981.75           1647          41.00       161.29
  282.86        2982.00           1650          44.00       174.37
  282.89        2982.25           1653          39.00       152.57
  282.92        2982.50           1657          44.00       174.37
  282.95        2982.75           1660          39.00       152.57
  282.98        2983.00           1663          46.00       183.09
  283.01        2983.25           1667          38.00       148.21
  283.04        2983.50           1670          38.00       148.21
  283.07        2983.75           1673          49.00       196.17
  283.10        2984.00           1677          44.00       174.37
HS scan finished at 04:43:19
end
************************************************************
  HS Scan of (1) Internal mercury lamp
************************************************************
Integration time is 0.2294 seconds per sample
dh160217Manchester 53.47 2.23 2.804185pr1000
************************************************************
Dead Time -------------------------  3E-08 
Number of Cycles Used -------------  4 
Starting Wavelength (Angstroms) ---  2950 
Final Wavelength (Angstoms) -------  2984 
Wavelength Increment (Angstroms) --  .25 
Filter Wheel #1 Position ---------- (1) Ground quartz diffuser (ND=2.32)
Filter Wheel #2 Position ---------- (1) Neutral Density 0.494



************************************************************
HS scan start time = 18:12:03
Dark Count =  6.8 


Time (GMT)  Wavelength (Ang)  Step Number  Raw Counts  Counts/Second

 1092.42        2950.00           1222          42.00       153.44
 1092.49        2950.25           1226          45.00       166.52
 1092.52        2950.50           1229          43.00       157.80
 1092.55        2950.75           1232          45.00       166.52
 1092.58        2951.00           1236          40.00       144.73
 1092.61        2951.25           1239          52.00       197.04
 1092.64        2951.50           1242          40.00       144.73
 1092.67        2951.75           1246          51.00       192.68
 1092.71        2952.00           1249          40.00       144.73
 1092.74        2952.25           1252          50.00       188.32
 1092.77        2952.50           1256          50.00       188.32
 1092.80        2952.75           1259          41.00       149.09
 1092.83        2953.00           1262          45.00       166.52
 1092.86        2953.25           1266          50.00       188.32
 1092.89        2953.50           1269          50.00       188.32
 1092.92        2953.75           1272          60.00       231.91
 1092.95        2954.00           1276          57.00       218.83
 1092.98        2954.25           1279          41.00       149.09
 1093.01        2954.50           1282          48.00       179.60
 1093.05        2954.75           1286          41.00       149.09
 1093.08        2955.00           1289          37.00       131.65
 1093.11        2955.25           1292          42.00       153.44
 1093.14        2955.50           1296          48.00       179.60
 1093.17        2955.75           1299          52.00       197.04
 1093.20        2956.00           1302          42.00       153.44
 1093.23        2956.25           1306          42.00       153.44
 1093.26        2956.50           1309          44.00       162.16
 1093.29        2956.75           1312          54.00       205.76
 1093.32        2957.00           1316          44.00       162.16
 1093.35        2957.25           1319          46.00       170.88
 1093.38        2957.50           1322          44.00       162.16
 1093.42        2957.75           1326          38.00       136.01
 1093.45        2958.00           1329          46.00       170.88
 1093.48        2958.25           1332          41.00       149.09
 1093.51        2958.50           1336          47.00       175.24
 1093.54        2958.75           1339          45.00       166.52
 1093.57        2959.00           1342          44.00       162.16
 1093.60        2959.25           1346          50.00       188.32
 1093.63        2959.50           1349          55.00       210.11
 1093.66        2959.75           1352          62.00       240.63
 1093.70        2960.00           1356          86.00       345.25
 1093.73        2960.25           1359         126.00       519.62
 1093.76        2960.50           1362         154.00       641.69
 1093.79        2960.75           1366         213.00       898.89
 1093.82        2961.00           1369         246.00      1042.75
 1093.85        2961.25           1372         278.00      1182.26
 1093.88        2961.50           1376         385.00      1648.73
 1093.91        2961.75           1379         620.00      2673.27
 1093.94        2962.00           1382        1298.00      5629.55
 1093.97        2962.25           1386        3126.00     13602.76
 1094.00        2962.50           1389        4641.00     20213.65
 1094.04        2962.75           1392        6265.00     27303.09
 1094.07        2963.00           1396        8457.00     36876.88
 1094.10        2963.25           1399        9905.00     43204.18
 1094.13        2963.50           1402       11441.00     49918.64
 1094.16        2963.75           1406       13690.00     59754.80
 1094.19        2964.00           1409       15333.00     66944.26
 1094.22        2964.25           1412       17086.00     74618.46
 1094.25        2964.50           1416       19320.00     84403.52
 1094.28        2964.75           1419       21027.00     91884.14
 1094.31        2965.00           1422       22739.00     99390.07
 1094.34        2965.25           1426       25001.00    109312.60
 1094.37        2965.50           1429       26599.00    116325.90
 1094.41        2965.75           1432       28465.00    124519.20
 1094.44        2966.00           1436       30437.00    133182.30
 1094.47        2966.25           1439       31993.00    140021.10
 1094.50        2966.50           1442       33472.00    146524.10
 1094.53        2966.75           1446       35030.00    153377.20
 1094.56        2967.00           1449       35348.00    154776.30
 1094.59        2967.25           1452       35267.00    154419.90
 1094.62        2967.50           1456       35626.00    155999.50
 1094.65        2967.75           1459       35408.00    155040.30
 1094.68        2968.00           1462       35100.00    153685.10
 1094.72        2968.25           1466       34066.00    149136.60
 1094.75        2968.50           1469       32791.00    143529.50
 1094.78        2968.75           1472       31036.00    135814.70
 1094.81        2969.00           1476       28994.00    126842.70
 1094.84        2969.25           1479       27425.00    119952.20
 1094.87        2969.50           1482       25951.00    113481.60
 1094.90        2969.75           1486       23687.00    103547.80
 1094.93        2970.00           1489       22092.00     96553.03
 1094.96        2970.25           1492       20548.00     89784.68
 1095.00        2970.50           1496       18438.00     80539.62
 1095.03        2970.75           1499       16843.00     73554.46
 1095.06        2971.00           1502       15120.00     66012.03
 1095.09        2971.25           1506       13043.00     56924.51
 1095.12        2971.50           1509       11209.00     48904.31
 1095.15        2971.75           1513        8969.00     39113.88
 1095.18        2972.00           1516        7346.00     32023.78
 1095.21        2972.25           1519        5843.00     25460.59
 1095.24        2972.50           1523        3707.00     16137.72
 1095.27        2972.75           1526        2304.00     10016.96
 1095.31        2973.00           1529        1129.00      4892.61
 1095.34        2973.25           1533         492.00      2115.22
 1095.37        2973.50           1536         344.00      1469.99
 1095.40        2973.75           1539         293.00      1247.65
 1095.43        2974.00           1543         237.00      1003.52
 1095.46        2974.25           1546         184.00       772.47
 1095.49        2974.50           1549         152.00       632.97
 1095.52        2974.75           1553         108.00       441.16
 1095.55        2975.00           1556          76.00       301.66
 1095.58        2975.25           1559          60.00       231.91
 1095.61        2975.50           1563          44.00       162.16
 1095.65        2975.75           1566          50.00       188.32
 1095.68        2976.00           1569          47.00       175.24
 1095.71        2976.25           1573          41.00       149.09
 1095.74        2976.50           1576          46.00       170.88
 1095.77        2976.75           1579          46.00       170.88
 1095.80        2977.00           1583          40.00       144.73
 1095.83        2977.25           1586          43.00       157.80
 1095.86        2977.50           1590          45.00       166.52
 1095.89        2977.75           1593          46.00       170.88
 1095.92        2978.00           1596          50.00       188.32
 1095.96        2978.25           1600          41.00       149.09
 1095.99        2978.50           1603          48.00       179.60
 1096.02        2978.75           1606          42.00       153.44
 1096.05        2979.00           1610          46.00       170.88
 1096.08        2979.25           1613          43.00       157.80
 1096.11        2979.50           1616          45.00       166.52
 1096.14        2979.75           1620          41.00       149.09
 1096.17        2980.00           1623          39.00       140.37
 1096.20        2980.25           1626          40.00       144.73
 1096.23        2980.50           1630          47.00       175.24
 1096.26        2980.75           1633          39.00       140.37
 1096.30        2981.00           1637          42.00       153.44
 1096.33        2981.25           1640          43.00       157.80
 1096.36        2981.50           1643          44.00       162.16
 1096.39        2981.75           1647          40.00       144.73
 1096.42        2982.00           1650          36.00       127.29
 1096.45        2982.25           1653          37.00       131.65
 1096.48        2982.50           1657          47.00       175.24
 1096.51        2982.75           1660          40.00       144.73
 1096.54        2983.00           1663          52.00       197.04
 1096.58        2983.25           1667          42.00       153.44
 1096.61        2983.50           1670          46.00       170.88
 1096.64        2983.75           1673          45.00       166.52
 1096.67        2984.00           1677          45.00       166.52
HS scan finished at 18:16:53
end
