************************************************************
  HS Scan of (1) Internal mercury lamp
************************************************************
Integration time is 0.2294 seconds per sample
dh130219Manchester 53.47 2.23 2.804185pr1000
************************************************************
Dead Time -------------------------  3E-08 
Number of Cycles Used -------------  4 
Starting Wavelength (Angstroms) ---  2950 
Final Wavelength (Angstoms) -------  2984 
Wavelength Increment (Angstroms) --  .25 
Filter Wheel #1 Position ---------- (1) Ground quartz diffuser (ND=2.32)
Filter Wheel #2 Position ---------- (1) Neutral Density 0.494



************************************************************
HS scan start time = 04:46:12
Dark Count =  6.9 


Time (GMT)  Wavelength (Ang)  Step Number  Raw Counts  Counts/Second

  286.60        2950.00           1222          55.00       209.68
  286.68        2950.25           1226          49.00       183.52
  286.73        2950.50           1229          60.00       231.48
  286.78        2950.75           1232          53.00       200.96
  286.83        2951.00           1236          47.00       174.80
  286.87        2951.25           1239          51.00       192.24
  286.90        2951.50           1242          70.00       275.07
  286.93        2951.75           1246          64.00       248.91
  286.96        2952.00           1249          57.00       218.40
  286.99        2952.25           1252          61.00       235.83
  287.03        2952.50           1256          61.00       235.83
  287.06        2952.75           1259          54.00       205.32
  287.09        2953.00           1262          53.00       200.96
  287.12        2953.25           1266          50.00       187.88
  287.15        2953.50           1269          54.00       205.32
  287.18        2953.75           1272          57.00       218.40
  287.21        2954.00           1276          49.00       183.52
  287.24        2954.25           1279          63.00       244.55
  287.28        2954.50           1282          53.00       200.96
  287.31        2954.75           1286          54.00       205.32
  287.34        2955.00           1289          55.00       209.68
  287.37        2955.25           1292          59.00       227.12
  287.40        2955.50           1296          57.00       218.40
  287.43        2955.75           1299          59.00       227.12
  287.46        2956.00           1302          57.00       218.40
  287.49        2956.25           1306          60.00       231.48
  287.52        2956.50           1309          51.00       192.24
  287.55        2956.75           1312          61.00       235.83
  287.59        2957.00           1316          60.00       231.48
  287.62        2957.25           1319          55.00       209.68
  287.65        2957.50           1322          55.00       209.68
  287.68        2957.75           1326          54.00       205.32
  287.71        2958.00           1329          52.00       196.60
  287.74        2958.25           1332          51.00       192.24
  287.77        2958.50           1336          63.00       244.55
  287.80        2958.75           1339          60.00       231.48
  287.83        2959.00           1342          59.00       227.12
  287.86        2959.25           1346          55.00       209.68
  287.90        2959.50           1349          69.00       270.71
  287.95        2959.75           1352          59.00       227.12
  288.01        2960.00           1356          80.00       318.66
  288.05        2960.25           1359         102.00       414.56
  288.10        2960.50           1362         129.00       532.27
  288.16        2960.75           1366         189.00       793.83
  288.21        2961.00           1369         211.00       889.74
  288.27        2961.25           1372         235.00       994.36
  288.32        2961.50           1376         294.00      1251.57
  288.36        2961.75           1379         380.00      1626.50
  288.39        2962.00           1382         722.00      3117.55
  288.42        2962.25           1386        1921.00      8346.03
  288.45        2962.50           1389        2983.00     12978.46
  288.48        2962.75           1392        4116.00     17922.01
  288.51        2963.00           1396        5771.00     25145.82
  288.54        2963.25           1399        6980.00     30424.88
  288.58        2963.50           1402        8206.00     35779.88
  288.61        2963.75           1406        9755.00     42548.17
  288.64        2964.00           1409       10965.00     47837.13
  288.67        2964.25           1412       12162.00     53070.91
  288.70        2964.50           1416       13770.00     60104.35
  288.73        2964.75           1419       15047.00     65692.11
  288.76        2965.00           1422       16122.00     70397.43
  288.79        2965.25           1426       17692.00     77271.78
  288.82        2965.50           1429       18908.00     82598.05
  288.86        2965.75           1432       20191.00     88219.66
  288.89        2966.00           1436       22102.00     96596.44
  288.92        2966.25           1439       23194.00    101385.10
  288.95        2966.50           1442       24187.00    105740.80
  288.98        2966.75           1446       25382.00    110984.00
  289.01        2967.00           1449       25638.00    112107.50
  289.04        2967.25           1452       25767.00    112673.60
  289.07        2967.50           1456       25764.00    112660.40
  289.10        2967.75           1459       25834.00    112967.60
  289.14        2968.00           1462       25558.00    111756.40
  289.17        2968.25           1466       25315.00    110690.00
  289.20        2968.50           1469       24321.00    106328.60
  289.23        2968.75           1472       23062.00    100806.10
  289.26        2969.00           1476       21579.00     94303.48
  289.29        2969.25           1479       20362.00     88969.06
  289.32        2969.50           1482       19213.00     83934.28
  289.35        2969.75           1486       17619.00     76952.08
  289.38        2970.00           1489       16405.00     71636.35
  289.42        2970.25           1492       15189.00     66313.58
  289.45        2970.50           1496       13724.00     59903.12
  289.48        2970.75           1499       12590.00     54942.71
  289.51        2971.00           1502       11348.00     49511.58
  289.54        2971.25           1506        9812.00     42797.28
  289.57        2971.50           1509        8664.00     37780.81
  289.60        2971.75           1513        7001.00     30516.59
  289.63        2972.00           1516        5687.00     24779.10
  289.66        2972.25           1519        4580.00     19946.98
  289.70        2972.50           1523        3015.00     13118.07
  289.73        2972.75           1526        1899.00      8250.08
  289.76        2973.00           1529         951.00      4116.03
  289.79        2973.25           1533         430.00      1844.48
  289.82        2973.50           1536         285.00      1212.34
  289.85        2973.75           1539         231.00       976.92
  289.88        2974.00           1543         209.00       881.02
  289.91        2974.25           1546         157.00       654.33
  289.94        2974.50           1549         125.00       514.83
  289.97        2974.75           1553          95.00       384.05
  290.01        2975.00           1556          68.00       266.35
  290.04        2975.25           1559          63.00       244.55
  290.07        2975.50           1563          55.00       209.68
  290.10        2975.75           1566          55.00       209.68
  290.13        2976.00           1569          54.00       205.32
  290.16        2976.25           1573          53.00       200.96
  290.19        2976.50           1576          57.00       218.40
  290.22        2976.75           1579          47.00       174.80
  290.25        2977.00           1583          55.00       209.68
  290.29        2977.25           1586          56.00       214.04
  290.32        2977.50           1590          64.00       248.91
  290.35        2977.75           1593          55.00       209.68
  290.38        2978.00           1596          55.00       209.68
  290.41        2978.25           1600          57.00       218.40
  290.44        2978.50           1603          52.00       196.60
  290.47        2978.75           1606          50.00       187.88
  290.50        2979.00           1610          47.00       174.80
  290.53        2979.25           1613          54.00       205.32
  290.57        2979.50           1616          51.00       192.24
  290.60        2979.75           1620          49.00       183.52
  290.63        2980.00           1623          46.00       170.45
  290.67        2980.25           1626          54.00       205.32
  290.70        2980.50           1630          51.00       192.24
  290.74        2980.75           1633          48.00       179.16
  290.77        2981.00           1637          54.00       205.32
  290.80        2981.25           1640          49.00       183.52
  290.83        2981.50           1643          50.00       187.88
  290.86        2981.75           1647          47.00       174.80
  290.89        2982.00           1650          52.00       196.60
  290.92        2982.25           1653          54.00       205.32
  290.95        2982.50           1657          46.00       170.45
  290.99        2982.75           1660          42.00       153.01
  291.02        2983.00           1663          52.00       196.60
  291.05        2983.25           1667          52.00       196.60
  291.08        2983.50           1670          48.00       179.16
  291.11        2983.75           1673          54.00       205.32
  291.14        2984.00           1677          41.00       148.65
HS scan finished at 04:51:21
end
************************************************************
  HS Scan of (1) Internal mercury lamp
************************************************************
Integration time is 0.2294 seconds per sample
dh130219Manchester 53.47 2.23 2.804185pr1000
************************************************************
Dead Time -------------------------  3E-08 
Number of Cycles Used -------------  4 
Starting Wavelength (Angstroms) ---  2950 
Final Wavelength (Angstoms) -------  2984 
Wavelength Increment (Angstroms) --  .25 
Filter Wheel #1 Position ---------- (1) Ground quartz diffuser (ND=2.32)
Filter Wheel #2 Position ---------- (1) Neutral Density 0.494



************************************************************
HS scan start time = 18:12:05
Dark Count =  7.7 


Time (GMT)  Wavelength (Ang)  Step Number  Raw Counts  Counts/Second

 1092.46        2950.00           1222          58.00       219.27
 1092.53        2950.25           1226          57.00       214.91
 1092.56        2950.50           1229          56.00       210.55
 1092.59        2950.75           1232          58.00       219.27
 1092.62        2951.00           1236          56.00       210.55
 1092.65        2951.25           1239          51.00       188.75
 1092.68        2951.50           1242          58.00       219.27
 1092.71        2951.75           1246          57.00       214.91
 1092.74        2952.00           1249          59.00       223.63
 1092.77        2952.25           1252          53.00       197.47
 1092.80        2952.50           1256          54.00       201.83
 1092.83        2952.75           1259          59.00       223.63
 1092.87        2953.00           1262          55.00       206.19
 1092.90        2953.25           1266          59.00       223.63
 1092.93        2953.50           1269          58.00       219.27
 1092.96        2953.75           1272          51.00       188.75
 1092.99        2954.00           1276          53.00       197.47
 1093.02        2954.25           1279          55.00       206.19
 1093.05        2954.50           1282          55.00       206.19
 1093.08        2954.75           1286          53.00       197.47
 1093.11        2955.00           1289          47.00       171.32
 1093.14        2955.25           1292          55.00       206.19
 1093.17        2955.50           1296          56.00       210.55
 1093.20        2955.75           1299          52.00       193.11
 1093.23        2956.00           1302          51.00       188.75
 1093.26        2956.25           1306          57.00       214.91
 1093.29        2956.50           1309          63.00       241.07
 1093.33        2956.75           1312          57.00       214.91
 1093.36        2957.00           1316          56.00       210.55
 1093.39        2957.25           1319          58.00       219.27
 1093.42        2957.50           1322          63.00       241.07
 1093.45        2957.75           1326          52.00       193.11
 1093.48        2958.00           1329          48.00       175.68
 1093.51        2958.25           1332          52.00       193.11
 1093.54        2958.50           1336          54.00       201.83
 1093.57        2958.75           1339          52.00       193.11
 1093.60        2959.00           1342          56.00       210.55
 1093.63        2959.25           1346          59.00       223.63
 1093.66        2959.50           1349          59.00       223.63
 1093.70        2959.75           1352          64.00       245.42
 1093.73        2960.00           1356          94.00       376.20
 1093.76        2960.25           1359         106.00       428.51
 1093.79        2960.50           1362         132.00       541.86
 1093.82        2960.75           1366         182.00       759.83
 1093.85        2961.00           1369         219.00       921.12
 1093.88        2961.25           1372         245.00      1034.47
 1093.91        2961.50           1376         301.00      1278.60
 1093.94        2961.75           1379         419.00      1793.03
 1093.97        2962.00           1382         954.00      4125.62
 1094.00        2962.25           1386        2341.00     10174.42
 1094.03        2962.50           1389        3465.00     15077.87
 1094.06        2962.75           1392        4574.00     19917.30
 1094.10        2963.00           1396        6102.00     26587.46
 1094.13        2963.25           1399        7149.00     31159.45
 1094.16        2963.50           1402        8346.00     36388.00
 1094.19        2963.75           1406       10044.00     43807.76
 1094.22        2964.00           1409       11252.00     49088.37
 1094.25        2964.25           1412       12527.00     54663.68
 1094.28        2964.50           1416       14144.00     61737.17
 1094.31        2964.75           1419       15315.00     66861.53
 1094.34        2965.00           1422       16531.00     72184.50
 1094.37        2965.25           1426       18159.00     79313.62
 1094.40        2965.50           1429       19218.00     83952.68
 1094.44        2965.75           1432       20413.00     89189.07
 1094.47        2966.00           1436       22145.00     96781.46
 1094.50        2966.25           1439       23041.00    100710.50
 1094.53        2966.50           1442       24139.00    105526.70
 1094.56        2966.75           1446       25468.00    111357.90
 1094.59        2967.00           1449       25724.00    112481.40
 1094.62        2967.25           1452       25688.00    112323.40
 1094.65        2967.50           1456       25790.00    112771.00
 1094.68        2967.75           1459       25816.00    112885.10
 1094.71        2968.00           1462       25649.00    112152.20
 1094.75        2968.25           1466       25033.00    109449.00
 1094.78        2968.50           1469       23974.00    104802.80
 1094.81        2968.75           1472       22883.00    100017.60
 1094.84        2969.00           1476       21328.00     93199.63
 1094.87        2969.25           1479       19978.00     87282.74
 1094.90        2969.50           1482       19088.00     83383.13
 1094.93        2969.75           1486       17426.00     76103.38
 1094.96        2970.00           1489       16303.00     71186.31
 1095.00        2970.25           1492       15045.00     65679.86
 1095.03        2970.50           1496       13532.00     59059.65
 1095.06        2970.75           1499       12237.00     53395.40
 1095.09        2971.00           1502       11075.00     48314.53
 1095.12        2971.25           1506        9519.00     41513.31
 1095.15        2971.50           1509        8241.00     35929.29
 1095.18        2971.75           1513        6755.00     29438.81
 1095.21        2972.00           1516        5592.00     24360.87
 1095.24        2972.25           1519        4301.00     18725.86
 1095.27        2972.50           1523        2886.00     12551.81
 1095.31        2972.75           1526        1783.00      7740.68
 1095.34        2973.00           1529         773.00      3336.43
 1095.37        2973.25           1533         354.00      1509.66
 1095.40        2973.50           1536         257.00      1086.78
 1095.43        2973.75           1539         234.00       986.52
 1095.46        2974.00           1543         192.00       803.42
 1095.49        2974.25           1546         153.00       633.40
 1095.52        2974.50           1549         126.00       515.70
 1095.55        2974.75           1553          86.00       341.33
 1095.58        2975.00           1556          69.00       267.22
 1095.61        2975.25           1559          61.00       232.35
 1095.65        2975.50           1563          50.00       184.40
 1095.68        2975.75           1566          56.00       210.55
 1095.71        2976.00           1569          54.00       201.83
 1095.74        2976.25           1573          53.00       197.47
 1095.77        2976.50           1576          50.00       184.40
 1095.80        2976.75           1579          51.00       188.75
 1095.83        2977.00           1583          51.00       188.75
 1095.86        2977.25           1586          50.00       184.40
 1095.89        2977.50           1590          51.00       188.75
 1095.92        2977.75           1593          52.00       193.11
 1095.95        2978.00           1596          46.00       166.96
 1095.98        2978.25           1600          57.00       214.91
 1096.01        2978.50           1603          49.00       180.04
 1096.05        2978.75           1606          50.00       184.40
 1096.08        2979.00           1610          50.00       184.40
 1096.11        2979.25           1613          49.00       180.04
 1096.14        2979.50           1616          52.00       193.11
 1096.17        2979.75           1620          56.00       210.55
 1096.20        2980.00           1623          52.00       193.11
 1096.23        2980.25           1626          45.00       162.60
 1096.26        2980.50           1630          48.00       175.68
 1096.29        2980.75           1633          50.00       184.40
 1096.32        2981.00           1637          44.00       158.24
 1096.36        2981.25           1640          48.00       175.68
 1096.39        2981.50           1643          52.00       193.11
 1096.42        2981.75           1647          55.00       206.19
 1096.45        2982.00           1650          52.00       193.11
 1096.48        2982.25           1653          54.00       201.83
 1096.51        2982.50           1657          58.00       219.27
 1096.54        2982.75           1660          47.00       171.32
 1096.57        2983.00           1663          47.00       171.32
 1096.60        2983.25           1667          51.00       188.75
 1096.63        2983.50           1670          54.00       201.83
 1096.67        2983.75           1673          53.00       197.47
 1096.70        2984.00           1677          47.00       171.32
HS scan finished at 18:16:55
end
