************************************************************
  HS Scan of (1) Internal mercury lamp
************************************************************
Integration time is 0.2294 seconds per sample
dh100217Manchester 53.47 2.23 2.750537pr1000
************************************************************
Dead Time -------------------------  3E-08 
Number of Cycles Used -------------  4 
Starting Wavelength (Angstroms) ---  2950 
Final Wavelength (Angstoms) -------  2984 
Wavelength Increment (Angstroms) --  .25 
Filter Wheel #1 Position ---------- (1) Ground quartz diffuser (ND=2.32)
Filter Wheel #2 Position ---------- (1) Neutral Density 0.494



************************************************************
HS scan start time = 04:50:25
Dark Count =  6.2 


Time (GMT)  Wavelength (Ang)  Step Number  Raw Counts  Counts/Second

  290.79        2950.00           1222          53.00       204.01
  290.85        2950.25           1226          41.00       151.70
  290.88        2950.50           1229          47.00       177.86
  290.91        2950.75           1232          45.00       169.14
  290.94        2951.00           1236          43.00       160.42
  290.97        2951.25           1239          45.00       169.14
  291.01        2951.50           1242          47.00       177.86
  291.04        2951.75           1246          50.00       190.93
  291.07        2952.00           1249          51.00       195.29
  291.10        2952.25           1252          43.00       160.42
  291.13        2952.50           1256          41.00       151.70
  291.16        2952.75           1259          47.00       177.86
  291.19        2953.00           1262          42.00       156.06
  291.22        2953.25           1266          43.00       160.42
  291.25        2953.50           1269          42.00       156.06
  291.28        2953.75           1272          39.00       142.98
  291.32        2954.00           1276          42.00       156.06
  291.35        2954.25           1279          55.00       212.73
  291.38        2954.50           1282          41.00       151.70
  291.41        2954.75           1286          41.00       151.70
  291.44        2955.00           1289          43.00       160.42
  291.47        2955.25           1292          48.00       182.22
  291.50        2955.50           1296          46.00       173.50
  291.53        2955.75           1299          47.00       177.86
  291.56        2956.00           1302          44.00       164.78
  291.59        2956.25           1306          47.00       177.86
  291.62        2956.50           1309          39.00       142.98
  291.65        2956.75           1312          42.00       156.06
  291.69        2957.00           1316          44.00       164.78
  291.72        2957.25           1319          45.00       169.14
  291.75        2957.50           1322          43.00       160.42
  291.78        2957.75           1326          44.00       164.78
  291.81        2958.00           1329          48.00       182.22
  291.84        2958.25           1332          41.00       151.70
  291.87        2958.50           1336          44.00       164.78
  291.90        2958.75           1339          43.00       160.42
  291.93        2959.00           1342          43.00       160.42
  291.96        2959.25           1346          46.00       173.50
  291.99        2959.50           1349          50.00       190.93
  292.03        2959.75           1352          75.00       299.92
  292.06        2960.00           1356         104.00       426.34
  292.09        2960.25           1359         138.00       574.55
  292.12        2960.50           1362         180.00       757.65
  292.15        2960.75           1366         220.00       932.02
  292.18        2961.00           1369         264.00      1123.84
  292.21        2961.25           1372         313.00      1337.46
  292.24        2961.50           1376         384.00      1646.99
  292.27        2961.75           1379         565.00      2436.10
  292.30        2962.00           1382        1095.00      4746.97
  292.33        2962.25           1386        2695.00     11725.14
  292.36        2962.50           1389        4199.00     18287.27
  292.39        2962.75           1392        5731.00     24974.24
  292.42        2963.00           1396        7913.00     34503.00
  292.46        2963.25           1399        9357.00     40811.93
  292.49        2963.50           1402       10988.00     47940.74
  292.52        2963.75           1406       13152.00     57403.92
  292.55        2964.00           1409       14721.00     64268.52
  292.58        2964.25           1412       16431.00     71753.25
  292.61        2964.50           1416       18605.00     81273.78
  292.64        2964.75           1419       20343.00     88888.86
  292.67        2965.00           1422       22124.00     96695.98
  292.70        2965.25           1426       24309.00    106279.00
  292.74        2965.50           1429       25912.00    113313.10
  292.77        2965.75           1432       27501.00    120288.60
  292.80        2966.00           1436       29738.00    130113.70
  292.83        2966.25           1439       31123.00    136199.70
  292.86        2966.50           1442       32582.00    142613.20
  292.89        2966.75           1446       34464.00    150889.90
  292.92        2967.00           1449       35388.00    154954.90
  292.95        2967.25           1452       35278.00    154470.90
  292.98        2967.50           1456       35442.00    155192.60
  293.02        2967.75           1459       35293.00    154537.00
  293.05        2968.00           1462       35119.00    153771.40
  293.08        2968.25           1466       34329.00    150296.00
  293.11        2968.50           1469       33295.00    145748.40
  293.14        2968.75           1472       31853.00    139408.40
  293.17        2969.00           1476       29824.00    130491.60
  293.20        2969.25           1479       28298.00    123788.40
  293.23        2969.50           1482       26715.00    116837.80
  293.26        2969.75           1486       24496.00    107099.50
  293.30        2970.00           1489       22803.00     99673.36
  293.33        2970.25           1492       21363.00     93359.64
  293.36        2970.50           1496       18987.00     82947.22
  293.39        2970.75           1499       17488.00     76381.46
  293.42        2971.00           1502       15833.00     69135.41
  293.45        2971.25           1506       13523.00     59026.84
  293.48        2971.50           1509       11802.00     51499.73
  293.51        2971.75           1513        9603.00     41886.95
  293.54        2972.00           1516        7894.00     34420.01
  293.57        2972.25           1519        6269.00     27323.17
  293.60        2972.50           1523        4448.00     19373.94
  293.64        2972.75           1526        2953.00     12850.64
  293.67        2973.00           1529        1598.00      6940.42
  293.70        2973.25           1533         562.00      2423.02
  293.73        2973.50           1536         365.00      1564.15
  293.76        2973.75           1539         302.00      1289.50
  293.79        2974.00           1543         219.00       927.66
  293.82        2974.25           1546         171.00       718.41
  293.85        2974.50           1549         141.00       587.63
  293.88        2974.75           1553          80.00       321.71
  293.92        2975.00           1556          56.00       217.09
  293.95        2975.25           1559          50.00       190.93
  293.98        2975.50           1563          39.00       142.98
  294.01        2975.75           1566          43.00       160.42
  294.04        2976.00           1569          52.00       199.65
  294.07        2976.25           1573          43.00       160.42
  294.10        2976.50           1576          51.00       195.29
  294.13        2976.75           1579          52.00       199.65
  294.16        2977.00           1583          49.00       186.57
  294.19        2977.25           1586          49.00       186.57
  294.23        2977.50           1590          48.00       182.22
  294.26        2977.75           1593          51.00       195.29
  294.29        2978.00           1596          42.00       156.06
  294.32        2978.25           1600          39.00       142.98
  294.35        2978.50           1603          41.00       151.70
  294.38        2978.75           1606          59.00       230.17
  294.41        2979.00           1610          45.00       169.14
  294.44        2979.25           1613          52.00       199.65
  294.47        2979.50           1616          58.00       225.81
  294.50        2979.75           1620          57.00       221.45
  294.53        2980.00           1623          41.00       151.70
  294.56        2980.25           1626          50.00       190.93
  294.60        2980.50           1630          46.00       173.50
  294.63        2980.75           1633          45.00       169.14
  294.66        2981.00           1637          40.00       147.34
  294.69        2981.25           1640          38.00       138.62
  294.72        2981.50           1643          55.00       212.73
  294.75        2981.75           1647          43.00       160.42
  294.78        2982.00           1650          40.00       147.34
  294.81        2982.25           1653          36.00       129.90
  294.84        2982.50           1657          48.00       182.22
  294.88        2982.75           1660          42.00       156.06
  294.91        2983.00           1663          43.00       160.42
  294.94        2983.25           1667          44.00       164.78
  294.97        2983.50           1670          44.00       164.78
  295.00        2983.75           1673          42.00       156.06
  295.03        2984.00           1677          37.00       134.26
HS scan finished at 04:55:15
end
************************************************************
  HS Scan of (1) Internal mercury lamp
************************************************************
Integration time is 0.2294 seconds per sample
dh100217Manchester 53.47 2.23 2.750537pr1000
************************************************************
Dead Time -------------------------  3E-08 
Number of Cycles Used -------------  4 
Starting Wavelength (Angstroms) ---  2950 
Final Wavelength (Angstoms) -------  2984 
Wavelength Increment (Angstroms) --  .25 
Filter Wheel #1 Position ---------- (1) Ground quartz diffuser (ND=2.32)
Filter Wheel #2 Position ---------- (1) Neutral Density 0.494



************************************************************
HS scan start time = 18:12:03
Dark Count =  5.1 


Time (GMT)  Wavelength (Ang)  Step Number  Raw Counts  Counts/Second

 1092.41        2950.00           1222          46.00       178.29
 1092.48        2950.25           1226          42.00       160.86
 1092.51        2950.50           1229          43.00       165.21
 1092.54        2950.75           1232          44.00       169.57
 1092.57        2951.00           1236          44.00       169.57
 1092.60        2951.25           1239          48.00       187.01
 1092.63        2951.50           1242          48.00       187.01
 1092.66        2951.75           1246          50.00       195.73
 1092.69        2952.00           1249          43.00       165.21
 1092.73        2952.25           1252          45.00       173.93
 1092.76        2952.50           1256          51.00       200.09
 1092.79        2952.75           1259          44.00       169.57
 1092.82        2953.00           1262          51.00       200.09
 1092.85        2953.25           1266          48.00       187.01
 1092.88        2953.50           1269          45.00       173.93
 1092.91        2953.75           1272          44.00       169.57
 1092.94        2954.00           1276          44.00       169.57
 1092.97        2954.25           1279          45.00       173.93
 1093.00        2954.50           1282          44.00       169.57
 1093.04        2954.75           1286          49.00       191.37
 1093.07        2955.00           1289          40.00       152.14
 1093.10        2955.25           1292          45.00       173.93
 1093.13        2955.50           1296          41.00       156.50
 1093.16        2955.75           1299          43.00       165.21
 1093.19        2956.00           1302          38.00       143.42
 1093.22        2956.25           1306          41.00       156.50
 1093.25        2956.50           1309          45.00       173.93
 1093.28        2956.75           1312          42.00       160.86
 1093.31        2957.00           1316          39.00       147.78
 1093.34        2957.25           1319          43.00       165.21
 1093.37        2957.50           1322          44.00       169.57
 1093.41        2957.75           1326          58.00       230.60
 1093.44        2958.00           1329          58.00       230.60
 1093.47        2958.25           1332          46.00       178.29
 1093.50        2958.50           1336          42.00       160.86
 1093.53        2958.75           1339          46.00       178.29
 1093.56        2959.00           1342          47.00       182.65
 1093.59        2959.25           1346          47.00       182.65
 1093.62        2959.50           1349          46.00       178.29
 1093.65        2959.75           1352          58.00       230.60
 1093.68        2960.00           1356          87.00       357.02
 1093.71        2960.25           1359         112.00       466.00
 1093.75        2960.50           1362         147.00       618.58
 1093.78        2960.75           1366         212.00       901.94
 1093.81        2961.00           1369         252.00      1076.32
 1093.84        2961.25           1372         295.00      1263.78
 1093.87        2961.50           1376         401.00      1725.90
 1093.90        2961.75           1379         667.00      2885.60
 1093.93        2962.00           1382        1381.00      5998.90
 1093.96        2962.25           1386        3083.00     13422.58
 1093.99        2962.50           1389        4643.00     20229.80
 1094.02        2962.75           1392        6061.00     26419.80
 1094.05        2963.00           1396        8141.00     35503.80
 1094.09        2963.25           1399        9720.00     42403.08
 1094.12        2963.50           1402       11347.00     49515.09
 1094.15        2963.75           1406       13785.00     60177.86
 1094.18        2964.00           1409       15528.00     67805.19
 1094.21        2964.25           1412       17276.00     75457.90
 1094.24        2964.50           1416       19266.00     84174.37
 1094.27        2964.75           1419       20944.00     91527.78
 1094.30        2965.00           1422       22700.00     99226.49
 1094.33        2965.25           1426       24853.00    108670.60
 1094.36        2965.50           1429       26621.00    116430.00
 1094.40        2965.75           1432       28152.00    123152.10
 1094.43        2966.00           1436       30208.00    132183.60
 1094.46        2966.25           1439       31944.00    139813.20
 1094.49        2966.50           1442       33432.00    146355.70
 1094.52        2966.75           1446       34659.00    151752.50
 1094.55        2967.00           1449       35098.00    153683.80
 1094.58        2967.25           1452       35220.00    154220.60
 1094.61        2967.50           1456       34919.00    152896.30
 1094.64        2967.75           1459       35190.00    154088.60
 1094.67        2968.00           1462       34924.00    152918.30
 1094.70        2968.25           1466       33778.00    147877.30
 1094.74        2968.50           1469       32549.00    142473.00
 1094.77        2968.75           1472       31104.00    136121.00
 1094.80        2969.00           1476       29024.00    126982.00
 1094.83        2969.25           1479       27369.00    119713.80
 1094.86        2969.50           1482       25617.00    112023.20
 1094.89        2969.75           1486       23495.00    102713.10
 1094.92        2970.00           1489       21684.00     94771.69
 1094.95        2970.25           1492       20226.00     88380.93
 1094.98        2970.50           1496       18217.00     79579.04
 1095.01        2970.75           1499       16480.00     71972.59
 1095.05        2971.00           1502       14831.00     64754.71
 1095.08        2971.25           1506       12645.00     55191.14
 1095.11        2971.50           1509       11019.00     48081.08
 1095.14        2971.75           1513        8925.00     38929.06
 1095.17        2972.00           1516        7457.00     32516.01
 1095.20        2972.25           1519        5921.00     25808.55
 1095.23        2972.50           1523        3842.00     16734.21
 1095.26        2972.75           1526        2296.00      9989.48
 1095.29        2973.00           1529        1101.00      4777.93
 1095.33        2973.25           1533         470.00      2026.71
 1095.36        2973.50           1536         337.00      1446.88
 1095.39        2973.75           1539         286.00      1224.54
 1095.42        2974.00           1543         235.00      1002.21
 1095.45        2974.25           1546         163.00       688.33
 1095.48        2974.50           1549         139.00       583.71
 1095.51        2974.75           1553          85.00       348.30
 1095.54        2975.00           1556          62.00       248.04
 1095.57        2975.25           1559          55.00       217.53
 1095.60        2975.50           1563          44.00       169.57
 1095.63        2975.75           1566          53.00       208.81
 1095.66        2976.00           1569          48.00       187.01
 1095.70        2976.25           1573          50.00       195.73
 1095.73        2976.50           1576          46.00       178.29
 1095.76        2976.75           1579          45.00       173.93
 1095.79        2977.00           1583          45.00       173.93
 1095.82        2977.25           1586          52.00       204.45
 1095.85        2977.50           1590          44.00       169.57
 1095.88        2977.75           1593          46.00       178.29
 1095.91        2978.00           1596          46.00       178.29
 1095.94        2978.25           1600          48.00       187.01
 1095.97        2978.50           1603          45.00       173.93
 1096.00        2978.75           1606          44.00       169.57
 1096.03        2979.00           1610          42.00       160.86
 1096.07        2979.25           1613          41.00       156.50
 1096.10        2979.50           1616          41.00       156.50
 1096.13        2979.75           1620          43.00       165.21
 1096.16        2980.00           1623          37.00       139.06
 1096.19        2980.25           1626          43.00       165.21
 1096.22        2980.50           1630          42.00       160.86
 1096.25        2980.75           1633          48.00       187.01
 1096.28        2981.00           1637          48.00       187.01
 1096.31        2981.25           1640          38.00       143.42
 1096.34        2981.50           1643          46.00       178.29
 1096.37        2981.75           1647          44.00       169.57
 1096.40        2982.00           1650          46.00       178.29
 1096.43        2982.25           1653          43.00       165.21
 1096.46        2982.50           1657          46.00       178.29
 1096.49        2982.75           1660          36.00       134.70
 1096.52        2983.00           1663          39.00       147.78
 1096.55        2983.25           1667          46.00       178.29
 1096.59        2983.50           1670          46.00       178.29
 1096.62        2983.75           1673          40.00       152.14
 1096.65        2984.00           1677          52.00       204.45
HS scan finished at 18:16:52
end
