************************************************************
  HS Scan of (1) Internal mercury lamp
************************************************************
Integration time is 0.2294 seconds per sample
dh180219Manchester 53.47 2.23 2.804185pr1000
************************************************************
Dead Time -------------------------  3E-08 
Number of Cycles Used -------------  4 
Starting Wavelength (Angstroms) ---  2950 
Final Wavelength (Angstoms) -------  2984 
Wavelength Increment (Angstroms) --  .25 
Filter Wheel #1 Position ---------- (1) Ground quartz diffuser (ND=2.32)
Filter Wheel #2 Position ---------- (1) Neutral Density 0.494



************************************************************
HS scan start time = 04:35:19
Dark Count =  7.1 


Time (GMT)  Wavelength (Ang)  Step Number  Raw Counts  Counts/Second

  275.68        2950.00           1222          61.00       234.96
  275.75        2950.25           1226          65.00       252.40
  275.78        2950.50           1229          60.00       230.60
  275.81        2950.75           1232          62.00       239.32
  275.84        2951.00           1236          52.00       195.73
  275.87        2951.25           1239          59.00       226.24
  275.90        2951.50           1242          63.00       243.68
  275.93        2951.75           1246          53.00       200.09
  275.96        2952.00           1249          46.00       169.57
  275.99        2952.25           1252          51.00       191.37
  276.02        2952.50           1256          59.00       226.24
  276.06        2952.75           1259          50.00       187.01
  276.09        2953.00           1262          56.00       213.17
  276.12        2953.25           1266          61.00       234.96
  276.15        2953.50           1269          55.00       208.81
  276.18        2953.75           1272          60.00       230.60
  276.21        2954.00           1276          51.00       191.37
  276.24        2954.25           1279          52.00       195.73
  276.27        2954.50           1282          55.00       208.81
  276.30        2954.75           1286          51.00       191.37
  276.33        2955.00           1289          63.00       243.68
  276.36        2955.25           1292          51.00       191.37
  276.40        2955.50           1296          56.00       213.17
  276.43        2955.75           1299          58.00       221.88
  276.46        2956.00           1302          57.00       217.53
  276.49        2956.25           1306          51.00       191.37
  276.52        2956.50           1309          54.00       204.45
  276.55        2956.75           1312          51.00       191.37
  276.58        2957.00           1316          55.00       208.81
  276.61        2957.25           1319          64.00       248.04
  276.64        2957.50           1322          56.00       213.17
  276.67        2957.75           1326          53.00       200.09
  276.70        2958.00           1329          56.00       213.17
  276.73        2958.25           1332          60.00       230.60
  276.76        2958.50           1336          55.00       208.81
  276.80        2958.75           1339          54.00       204.45
  276.83        2959.00           1342          62.00       239.32
  276.86        2959.25           1346          53.00       200.09
  276.89        2959.50           1349          55.00       208.81
  276.92        2959.75           1352          70.00       274.20
  276.95        2960.00           1356          99.00       400.62
  276.98        2960.25           1359         120.00       492.16
  277.01        2960.50           1362         157.00       653.46
  277.04        2960.75           1366         188.00       788.60
  277.07        2961.00           1369         214.00       901.94
  277.10        2961.25           1372         242.00      1024.01
  277.14        2961.50           1376         293.00      1246.34
  277.17        2961.75           1379         414.00      1773.85
  277.20        2962.00           1382         732.00      3160.28
  277.23        2962.25           1386        1970.00      8558.87
  277.26        2962.50           1389        3174.00     13810.86
  277.29        2962.75           1392        4459.00     19418.02
  277.32        2963.00           1396        5885.00     25642.65
  277.35        2963.25           1399        7152.00     31175.18
  277.38        2963.50           1402        8272.00     36067.35
  277.41        2963.75           1406        9941.00     43360.21
  277.44        2964.00           1409       11156.00     48671.28
  277.48        2964.25           1412       12463.00     54386.40
  277.51        2964.50           1416       14114.00     61608.54
  277.54        2964.75           1419       15123.00     66023.85
  277.57        2965.00           1422       16452.00     71841.25
  277.60        2965.25           1426       18034.00     78768.75
  277.63        2965.50           1429       19433.00     84897.29
  277.66        2965.75           1432       20718.00     90528.44
  277.69        2966.00           1436       22366.00     97753.12
  277.72        2966.25           1439       23514.00    102787.70
  277.75        2966.50           1442       24615.00    107617.60
  277.79        2966.75           1446       25765.00    112664.00
  277.82        2967.00           1449       26153.00    114366.90
  277.85        2967.25           1452       26085.00    114068.40
  277.88        2967.50           1456       26105.00    114156.20
  277.91        2967.75           1459       26080.00    114046.50
  277.94        2968.00           1462       26088.00    114081.60
  277.97        2968.25           1466       25250.00    110403.90
  278.00        2968.50           1469       24244.00    105989.90
  278.03        2968.75           1472       23165.00    101257.00
  278.07        2969.00           1476       21352.00     93307.47
  278.10        2969.25           1479       20260.00     88521.18
  278.13        2969.50           1482       19001.00     83004.61
  278.16        2969.75           1486       17585.00     76802.30
  278.19        2970.00           1489       16253.00     70970.03
  278.22        2970.25           1492       15199.00     66356.47
  278.25        2970.50           1496       13691.00     59757.87
  278.28        2970.75           1499       12475.00     54438.89
  278.31        2971.00           1502       11312.00     49353.32
  278.35        2971.25           1506        9556.00     41677.63
  278.38        2971.50           1509        8282.00     36111.03
  278.41        2971.75           1513        6714.00     29262.38
  278.44        2972.00           1516        5463.00     23800.34
  278.47        2972.25           1519        4326.00     18837.58
  278.50        2972.50           1523        2908.00     12650.40
  278.53        2972.75           1526        1827.00      7935.19
  278.56        2973.00           1529         880.00      3805.58
  278.59        2973.25           1533         371.00      1586.39
  278.62        2973.50           1536         258.00      1093.76
  278.65        2973.75           1539         222.00       936.82
  278.69        2974.00           1543         186.00       779.88
  278.72        2974.25           1546         142.00       588.07
  278.75        2974.50           1549         119.00       487.80
  278.78        2974.75           1553          87.00       348.30
  278.81        2975.00           1556          68.00       265.48
  278.84        2975.25           1559          58.00       221.88
  278.87        2975.50           1563          57.00       217.53
  278.90        2975.75           1566          55.00       208.81
  278.93        2976.00           1569          52.00       195.73
  278.96        2976.25           1573          49.00       182.65
  278.99        2976.50           1576          60.00       230.60
  279.02        2976.75           1579          59.00       226.24
  279.05        2977.00           1583          53.00       200.09
  279.09        2977.25           1586          53.00       200.09
  279.12        2977.50           1590          57.00       217.53
  279.15        2977.75           1593          46.00       169.57
  279.18        2978.00           1596          48.00       178.29
  279.21        2978.25           1600          49.00       182.65
  279.24        2978.50           1603          47.00       173.93
  279.27        2978.75           1606          54.00       204.45
  279.30        2979.00           1610          41.00       147.78
  279.33        2979.25           1613          54.00       204.45
  279.36        2979.50           1616          44.00       160.86
  279.39        2979.75           1620          55.00       208.81
  279.43        2980.00           1623          55.00       208.81
  279.46        2980.25           1626          46.00       169.57
  279.49        2980.50           1630          54.00       204.45
  279.52        2980.75           1633          47.00       173.93
  279.55        2981.00           1637          48.00       178.29
  279.58        2981.25           1640          58.00       221.88
  279.61        2981.50           1643          53.00       200.09
  279.64        2981.75           1647          49.00       182.65
  279.67        2982.00           1650          47.00       173.93
  279.70        2982.25           1653          50.00       187.01
  279.73        2982.50           1657          50.00       187.01
  279.77        2982.75           1660          50.00       187.01
  279.80        2983.00           1663          50.00       187.01
  279.83        2983.25           1667          44.00       160.86
  279.86        2983.50           1670          48.00       178.29
  279.89        2983.75           1673          48.00       178.29
  279.92        2984.00           1677          56.00       213.17
HS scan finished at 04:40:08
end
************************************************************
  HS Scan of (1) Internal mercury lamp
************************************************************
Integration time is 0.2294 seconds per sample
dh180219Manchester 53.47 2.23 2.804185pr1000
************************************************************
Dead Time -------------------------  3E-08 
Number of Cycles Used -------------  4 
Starting Wavelength (Angstroms) ---  2950 
Final Wavelength (Angstoms) -------  2984 
Wavelength Increment (Angstroms) --  .25 
Filter Wheel #1 Position ---------- (1) Ground quartz diffuser (ND=2.32)
Filter Wheel #2 Position ---------- (1) Neutral Density 0.494



************************************************************
HS scan start time = 18:12:06
Dark Count =  3.3 


Time (GMT)  Wavelength (Ang)  Step Number  Raw Counts  Counts/Second

 1092.47        2950.00           1222          64.00       264.61
 1092.54        2950.25           1226          58.00       238.45
 1092.57        2950.50           1229          51.00       207.94
 1092.60        2950.75           1232          49.00       199.22
 1092.63        2951.00           1236          53.00       216.65
 1092.66        2951.25           1239          56.00       229.73
 1092.69        2951.50           1242          52.00       212.29
 1092.72        2951.75           1246          50.00       203.58
 1092.75        2952.00           1249          52.00       212.29
 1092.78        2952.25           1252          56.00       229.73
 1092.81        2952.50           1256          59.00       242.81
 1092.84        2952.75           1259          61.00       251.53
 1092.87        2953.00           1262          60.00       247.17
 1092.91        2953.25           1266          54.00       221.01
 1092.94        2953.50           1269          50.00       203.58
 1092.97        2953.75           1272          54.00       221.01
 1093.00        2954.00           1276          50.00       203.58
 1093.03        2954.25           1279          55.00       225.37
 1093.06        2954.50           1282          51.00       207.94
 1093.09        2954.75           1286          60.00       247.17
 1093.12        2955.00           1289          56.00       229.73
 1093.15        2955.25           1292          62.00       255.89
 1093.18        2955.50           1296          54.00       221.01
 1093.21        2955.75           1299          52.00       212.29
 1093.24        2956.00           1302          56.00       229.73
 1093.27        2956.25           1306          59.00       242.81
 1093.30        2956.50           1309          52.00       212.29
 1093.34        2956.75           1312          52.00       212.29
 1093.37        2957.00           1316          54.00       221.01
 1093.40        2957.25           1319          60.00       247.17
 1093.43        2957.50           1322          53.00       216.65
 1093.46        2957.75           1326          55.00       225.37
 1093.49        2958.00           1329          49.00       199.22
 1093.52        2958.25           1332          59.00       242.81
 1093.55        2958.50           1336          52.00       212.29
 1093.58        2958.75           1339          49.00       199.22
 1093.61        2959.00           1342          55.00       225.37
 1093.64        2959.25           1346          59.00       242.81
 1093.67        2959.50           1349          75.00       312.56
 1093.70        2959.75           1352          94.00       395.38
 1093.74        2960.00           1356         118.00       500.01
 1093.77        2960.25           1359         144.00       613.35
 1093.80        2960.50           1362         160.00       683.10
 1093.83        2960.75           1366         207.00       887.99
 1093.86        2961.00           1369         242.00      1040.57
 1093.89        2961.25           1372         268.00      1153.92
 1093.92        2961.50           1376         362.00      1563.72
 1093.95        2961.75           1379         589.00      2553.38
 1093.98        2962.00           1382        1268.00      5513.99
 1094.01        2962.25           1386        2751.00     11982.08
 1094.04        2962.50           1389        3954.00     17230.79
 1094.08        2962.75           1392        5036.00     21952.99
 1094.11        2963.00           1396        6613.00     28837.93
 1094.14        2963.25           1399        7766.00     33873.56
 1094.17        2963.50           1402        9013.00     39321.42
 1094.20        2963.75           1406       10626.00     46370.92
 1094.23        2964.00           1409       11884.00     51870.98
 1094.26        2964.25           1412       13123.00     57289.75
 1094.29        2964.50           1416       14658.00     64005.53
 1094.32        2964.75           1419       15994.00     69852.85
 1094.35        2965.00           1422       17198.00     75124.22
 1094.39        2965.25           1426       18938.00     82745.25
 1094.42        2965.50           1429       20165.00     88121.49
 1094.45        2965.75           1432       21352.00     93324.13
 1094.48        2966.00           1436       22893.00    100080.80
 1094.51        2966.25           1439       23981.00    104852.90
 1094.54        2966.50           1442       24899.00    108880.40
 1094.57        2966.75           1446       25848.00    113044.90
 1094.60        2967.00           1449       25976.00    113606.70
 1094.63        2967.25           1452       26043.00    113900.70
 1094.66        2967.50           1456       25957.00    113523.30
 1094.70        2967.75           1459       25900.00    113273.10
 1094.73        2968.00           1462       25739.00    112566.50
 1094.76        2968.25           1466       24731.00    108143.20
 1094.79        2968.50           1469       23550.00    102962.30
 1094.82        2968.75           1472       22475.00     98247.74
 1094.85        2969.00           1476       21025.00     91890.72
 1094.88        2969.25           1479       19694.00     86057.55
 1094.91        2969.50           1482       18731.00     81838.43
 1094.94        2969.75           1486       17241.00     75312.51
 1094.97        2970.00           1489       15907.00     69472.01
 1095.01        2970.25           1492       14719.00     64272.46
 1095.04        2970.50           1496       13076.00     57084.17
 1095.07        2970.75           1499       11938.00     52107.11
 1095.10        2971.00           1502       10624.00     46362.18
 1095.13        2971.25           1506        9025.00     39373.86
 1095.16        2971.50           1509        7691.00     33545.95
 1095.19        2971.75           1513        6120.00     26685.26
 1095.22        2972.00           1516        5039.00     21966.09
 1095.25        2972.25           1519        3844.00     16750.79
 1095.28        2972.50           1523        2294.00      9988.61
 1095.32        2972.75           1526        1306.00      5679.69
 1095.35        2973.00           1529         543.00      2352.83
 1095.38        2973.25           1533         324.00      1398.05
 1095.41        2973.50           1536         235.00      1010.06
 1095.44        2973.75           1539         194.00       831.32
 1095.47        2974.00           1543         186.00       796.44
 1095.50        2974.25           1546         130.00       552.32
 1095.53        2974.50           1549          99.00       417.18
 1095.56        2974.75           1553          84.00       351.79
 1095.59        2975.00           1556          62.00       255.89
 1095.62        2975.25           1559          58.00       238.45
 1095.65        2975.50           1563          51.00       207.94
 1095.69        2975.75           1566          51.00       207.94
 1095.72        2976.00           1569          58.00       238.45
 1095.75        2976.25           1573          60.00       247.17
 1095.78        2976.50           1576          53.00       216.65
 1095.81        2976.75           1579          60.00       247.17
 1095.84        2977.00           1583          52.00       212.29
 1095.87        2977.25           1586          55.00       225.37
 1095.90        2977.50           1590          55.00       225.37
 1095.93        2977.75           1593          50.00       203.58
 1095.96        2978.00           1596          50.00       203.58
 1096.00        2978.25           1600          57.00       234.09
 1096.03        2978.50           1603          54.00       221.01
 1096.06        2978.75           1606          53.00       216.65
 1096.09        2979.00           1610          51.00       207.94
 1096.12        2979.25           1613          47.00       190.50
 1096.15        2979.50           1616          56.00       229.73
 1096.18        2979.75           1620          54.00       221.01
 1096.21        2980.00           1623          55.00       225.37
 1096.24        2980.25           1626          54.00       221.01
 1096.27        2980.50           1630          52.00       212.29
 1096.30        2980.75           1633          46.00       186.14
 1096.33        2981.00           1637          46.00       186.14
 1096.36        2981.25           1640          50.00       203.58
 1096.39        2981.50           1643          52.00       212.29
 1096.43        2981.75           1647          49.00       199.22
 1096.46        2982.00           1650          53.00       216.65
 1096.49        2982.25           1653          54.00       221.01
 1096.52        2982.50           1657          47.00       190.50
 1096.55        2982.75           1660          48.00       194.86
 1096.58        2983.00           1663          54.00       221.01
 1096.61        2983.25           1667          44.00       177.42
 1096.64        2983.50           1670          48.00       194.86
 1096.67        2983.75           1673          42.00       168.70
 1096.71        2984.00           1677          50.00       203.58
HS scan finished at 18:16:55
end
