************************************************************
  HS Scan of (1) Internal mercury lamp
************************************************************
Integration time is 0.2294 seconds per sample
dh130217Manchester 53.47 2.23 2.750537pr1000
************************************************************
Dead Time -------------------------  3E-08 
Number of Cycles Used -------------  4 
Starting Wavelength (Angstroms) ---  2950 
Final Wavelength (Angstoms) -------  2984 
Wavelength Increment (Angstroms) --  .25 
Filter Wheel #1 Position ---------- (1) Ground quartz diffuser (ND=2.32)
Filter Wheel #2 Position ---------- (1) Neutral Density 0.494



************************************************************
HS scan start time = 04:44:41
Dark Count =  4.2 


Time (GMT)  Wavelength (Ang)  Step Number  Raw Counts  Counts/Second

  285.05        2950.00           1222          56.00       225.81
  285.12        2950.25           1226          51.00       204.01
  285.15        2950.50           1229          51.00       204.01
  285.18        2950.75           1232          45.00       177.86
  285.21        2951.00           1236          38.00       147.34
  285.24        2951.25           1239          45.00       177.86
  285.27        2951.50           1242          46.00       182.22
  285.30        2951.75           1246          46.00       182.22
  285.33        2952.00           1249          47.00       186.57
  285.36        2952.25           1252          44.00       173.50
  285.40        2952.50           1256          44.00       173.50
  285.43        2952.75           1259          43.00       169.14
  285.46        2953.00           1262          46.00       182.22
  285.49        2953.25           1266          52.00       208.37
  285.52        2953.50           1269          51.00       204.01
  285.55        2953.75           1272          42.00       164.78
  285.58        2954.00           1276          40.00       156.06
  285.61        2954.25           1279          42.00       164.78
  285.64        2954.50           1282          49.00       195.29
  285.67        2954.75           1286          42.00       164.78
  285.70        2955.00           1289          42.00       164.78
  285.73        2955.25           1292          46.00       182.22
  285.76        2955.50           1296          41.00       160.42
  285.79        2955.75           1299          50.00       199.65
  285.82        2956.00           1302          43.00       169.14
  285.85        2956.25           1306          38.00       147.34
  285.88        2956.50           1309          48.00       190.93
  285.91        2956.75           1312          50.00       199.65
  285.94        2957.00           1316          43.00       169.14
  285.97        2957.25           1319          50.00       199.65
  286.00        2957.50           1322          41.00       160.42
  286.04        2957.75           1326          42.00       164.78
  286.07        2958.00           1329          46.00       182.22
  286.10        2958.25           1332          45.00       177.86
  286.13        2958.50           1336          44.00       173.50
  286.16        2958.75           1339          49.00       195.29
  286.19        2959.00           1342          47.00       186.57
  286.22        2959.25           1346          48.00       190.93
  286.25        2959.50           1349          51.00       204.01
  286.28        2959.75           1352          71.00       291.20
  286.31        2960.00           1356          86.00       356.59
  286.34        2960.25           1359         118.00       496.08
  286.37        2960.50           1362         146.00       618.15
  286.40        2960.75           1366         217.00       927.66
  286.43        2961.00           1369         247.00      1058.45
  286.47        2961.25           1372         309.00      1328.74
  286.50        2961.50           1376         364.00      1568.51
  286.53        2961.75           1379         534.00      2309.66
  286.56        2962.00           1382        1049.00      4555.11
  286.59        2962.25           1386        2641.00     11498.30
  286.62        2962.50           1389        4196.00     18282.91
  286.65        2962.75           1392        5707.00     24878.19
  286.68        2963.00           1396        7719.00     33664.32
  286.71        2963.25           1399        9386.00     40947.40
  286.74        2963.50           1402       11080.00     48351.69
  286.77        2963.75           1406       13315.00     58125.69
  286.81        2964.00           1409       14874.00     64946.82
  286.84        2964.25           1412       16762.00     73211.19
  286.87        2964.50           1416       18995.00     82991.03
  286.90        2964.75           1419       20871.00     91211.77
  286.93        2965.00           1422       22447.00     98121.02
  286.96        2965.25           1426       24640.00    107740.00
  286.99        2965.50           1429       26349.00    115239.90
  287.02        2965.75           1432       27877.00    121948.40
  287.05        2966.00           1436       30097.00    131699.80
  287.08        2966.25           1439       31452.00    137654.50
  287.12        2966.50           1442       33112.00    144952.40
  287.15        2966.75           1446       34741.00    152117.20
  287.18        2967.00           1449       35173.00    154017.80
  287.21        2967.25           1452       35474.00    155342.10
  287.24        2967.50           1456       35332.00    154717.30
  287.27        2967.75           1459       35532.00    155597.40
  287.30        2968.00           1462       35305.00    154598.60
  287.33        2968.25           1466       34166.00    149587.90
  287.36        2968.50           1469       33016.00    144530.30
  287.40        2968.75           1472       31207.00    136577.60
  287.43        2969.00           1476       29356.00    128444.30
  287.46        2969.25           1479       27654.00    120969.20
  287.49        2969.50           1482       26201.00    114590.30
  287.52        2969.75           1486       23958.00    104748.00
  287.55        2970.00           1489       22284.00     97406.29
  287.58        2970.25           1492       20772.00     90777.84
  287.61        2970.50           1496       18383.00     80310.09
  287.64        2970.75           1499       16815.00     73443.25
  287.68        2971.00           1502       15202.00     66382.28
  287.71        2971.25           1506       13019.00     56830.90
  287.74        2971.50           1509       11135.00     48592.15
  287.77        2971.75           1513        9027.00     39378.67
  287.80        2972.00           1516        7540.00     32882.47
  287.83        2972.25           1519        6057.00     26406.26
  287.86        2972.50           1523        3891.00     16951.95
  287.89        2972.75           1526        2492.00     10848.34
  287.92        2973.00           1529        1404.00      6103.12
  287.95        2973.25           1533         518.00      2239.91
  287.98        2973.50           1536         353.00      1520.56
  288.02        2973.75           1539         284.00      1219.75
  288.05        2974.00           1543         214.00       914.58
  288.08        2974.25           1546         176.00       748.93
  288.11        2974.50           1549         148.00       626.86
  288.14        2974.75           1553          91.00       378.38
  288.17        2975.00           1556          70.00       286.84
  288.20        2975.25           1559          54.00       217.09
  288.23        2975.50           1563          50.00       199.65
  288.26        2975.75           1566          47.00       186.57
  288.30        2976.00           1569          48.00       190.93
  288.33        2976.25           1573          49.00       195.29
  288.36        2976.50           1576          42.00       164.78
  288.39        2976.75           1579          42.00       164.78
  288.42        2977.00           1583          49.00       195.29
  288.45        2977.25           1586          44.00       173.50
  288.48        2977.50           1590          47.00       186.57
  288.51        2977.75           1593          47.00       186.57
  288.54        2978.00           1596          49.00       195.29
  288.57        2978.25           1600          44.00       173.50
  288.60        2978.50           1603          42.00       164.78
  288.63        2978.75           1606          46.00       182.22
  288.66        2979.00           1610          44.00       173.50
  288.70        2979.25           1613          52.00       208.37
  288.73        2979.50           1616          42.00       164.78
  288.76        2979.75           1620          44.00       173.50
  288.79        2980.00           1623          45.00       177.86
  288.82        2980.25           1626          38.00       147.34
  288.85        2980.50           1630          44.00       173.50
  288.88        2980.75           1633          45.00       177.86
  288.91        2981.00           1637          48.00       190.93
  288.94        2981.25           1640          38.00       147.34
  288.97        2981.50           1643          48.00       190.93
  289.00        2981.75           1647          45.00       177.86
  289.03        2982.00           1650          38.00       147.34
  289.07        2982.25           1653          50.00       199.65
  289.10        2982.50           1657          45.00       177.86
  289.13        2982.75           1660          46.00       182.22
  289.16        2983.00           1663          42.00       164.78
  289.19        2983.25           1667          37.00       142.98
  289.22        2983.50           1670          45.00       177.86
  289.25        2983.75           1673          45.00       177.86
  289.28        2984.00           1677          40.00       156.06
HS scan finished at 04:49:30
end
************************************************************
  HS Scan of (1) Internal mercury lamp
************************************************************
Integration time is 0.2294 seconds per sample
dh130217Manchester 53.47 2.23 2.750537pr1000
************************************************************
Dead Time -------------------------  3E-08 
Number of Cycles Used -------------  4 
Starting Wavelength (Angstroms) ---  2950 
Final Wavelength (Angstoms) -------  2984 
Wavelength Increment (Angstroms) --  .25 
Filter Wheel #1 Position ---------- (1) Ground quartz diffuser (ND=2.32)
Filter Wheel #2 Position ---------- (1) Neutral Density 0.494



************************************************************
HS scan start time = 18:12:04
Dark Count =  7.2 


Time (GMT)  Wavelength (Ang)  Step Number  Raw Counts  Counts/Second

 1092.43        2950.00           1222          51.00       190.93
 1092.50        2950.25           1226          41.00       147.34
 1092.53        2950.50           1229          47.00       173.50
 1092.56        2950.75           1232          35.00       121.19
 1092.59        2951.00           1236          46.00       169.14
 1092.62        2951.25           1239          52.00       195.29
 1092.65        2951.50           1242          40.00       142.98
 1092.69        2951.75           1246          48.00       177.86
 1092.72        2952.00           1249          47.00       173.50
 1092.75        2952.25           1252          41.00       147.34
 1092.78        2952.50           1256          41.00       147.34
 1092.81        2952.75           1259          44.00       160.42
 1092.84        2953.00           1262          47.00       173.50
 1092.87        2953.25           1266          48.00       177.86
 1092.90        2953.50           1269          57.00       217.09
 1092.93        2953.75           1272          45.00       164.78
 1092.96        2954.00           1276          45.00       164.78
 1092.99        2954.25           1279          44.00       160.42
 1093.03        2954.50           1282          51.00       190.93
 1093.06        2954.75           1286          52.00       195.29
 1093.09        2955.00           1289          47.00       173.50
 1093.12        2955.25           1292          48.00       177.86
 1093.15        2955.50           1296          44.00       160.42
 1093.18        2955.75           1299          44.00       160.42
 1093.21        2956.00           1302          39.00       138.62
 1093.24        2956.25           1306          40.00       142.98
 1093.27        2956.50           1309          40.00       142.98
 1093.30        2956.75           1312          46.00       169.14
 1093.33        2957.00           1316          43.00       156.06
 1093.37        2957.25           1319          47.00       173.50
 1093.40        2957.50           1322          43.00       156.06
 1093.43        2957.75           1326          49.00       182.22
 1093.46        2958.00           1329          41.00       147.34
 1093.49        2958.25           1332          41.00       147.34
 1093.52        2958.50           1336          49.00       182.22
 1093.55        2958.75           1339          42.00       151.70
 1093.58        2959.00           1342          40.00       142.98
 1093.61        2959.25           1346          47.00       173.50
 1093.64        2959.50           1349          50.00       186.57
 1093.67        2959.75           1352          65.00       251.96
 1093.70        2960.00           1356          81.00       321.71
 1093.73        2960.25           1359         110.00       448.13
 1093.77        2960.50           1362         159.00       661.74
 1093.80        2960.75           1366         195.00       818.68
 1093.83        2961.00           1369         263.00      1115.12
 1093.86        2961.25           1372         298.00      1267.70
 1093.89        2961.50           1376         372.00      1590.31
 1093.92        2961.75           1379         593.00      2553.81
 1093.95        2962.00           1382        1195.00      5178.66
 1093.98        2962.25           1386        2827.00     12296.60
 1094.01        2962.50           1389        4521.00     19688.17
 1094.04        2962.75           1392        6093.00     26550.35
 1094.08        2963.00           1396        8245.00     35948.95
 1094.11        2963.25           1399        9704.00     42323.98
 1094.14        2963.50           1402       11548.00     50384.73
 1094.17        2963.75           1406       13840.00     60409.29
 1094.20        2964.00           1409       15430.00     67367.06
 1094.23        2964.25           1412       17143.00     74866.31
 1094.26        2964.50           1416       19356.00     84559.49
 1094.29        2964.75           1419       20794.00     90861.12
 1094.32        2965.00           1422       22679.00     99125.21
 1094.35        2965.25           1426       24595.00    107529.40
 1094.38        2965.50           1429       26246.00    114774.60
 1094.41        2965.75           1432       28318.00    123871.90
 1094.44        2966.00           1436       30492.00    133422.30
 1094.48        2966.25           1439       32057.00    140300.70
 1094.51        2966.50           1442       33468.00    146504.70
 1094.54        2966.75           1446       34799.00    152359.20
 1094.57        2967.00           1449       35279.00    154470.90
 1094.60        2967.25           1452       35235.00    154277.40
 1094.63        2967.50           1456       35436.00    155161.70
 1094.66        2967.75           1459       35130.00    153815.40
 1094.69        2968.00           1462       34895.00    152781.50
 1094.72        2968.25           1466       33720.00    147613.00
 1094.75        2968.50           1469       32619.00    142771.50
 1094.79        2968.75           1472       30760.00    134600.00
 1094.82        2969.00           1476       28721.00    125641.80
 1094.85        2969.25           1479       27117.00    118598.20
 1094.88        2969.50           1482       25534.00    111649.70
 1094.91        2969.75           1486       23376.00    102182.00
 1094.94        2970.00           1489       21561.00     94223.26
 1094.97        2970.25           1492       20148.00     88029.91
 1095.00        2970.50           1496       17866.00     78032.51
 1095.03        2970.75           1499       16449.00     71827.68
 1095.07        2971.00           1502       14842.00     64793.66
 1095.10        2971.25           1506       12536.00     54705.23
 1095.13        2971.50           1509       10797.00     47101.39
 1095.16        2971.75           1513        8685.00     37871.25
 1095.19        2972.00           1516        7159.00     31205.31
 1095.22        2972.25           1519        5572.00     24275.74
 1095.25        2972.50           1523        3462.00     15066.97
 1095.28        2972.75           1526        2104.00      9142.87
 1095.31        2973.00           1529        1024.00      4433.02
 1095.34        2973.25           1533         487.00      2091.67
 1095.37        2973.50           1536         402.00      1721.10
 1095.40        2973.75           1539         307.00      1306.94
 1095.43        2974.00           1543         259.00      1097.68
 1095.47        2974.25           1546         182.00       762.01
 1095.50        2974.50           1549         156.00       648.66
 1095.53        2974.75           1553         105.00       426.34
 1095.56        2975.00           1556          62.00       238.89
 1095.59        2975.25           1559          60.00       230.17
 1095.62        2975.50           1563          56.00       212.73
 1095.65        2975.75           1566          52.00       195.29
 1095.68        2976.00           1569          51.00       190.93
 1095.71        2976.25           1573          48.00       177.86
 1095.74        2976.50           1576          46.00       169.14
 1095.78        2976.75           1579          50.00       186.57
 1095.81        2977.00           1583          47.00       173.50
 1095.84        2977.25           1586          50.00       186.57
 1095.87        2977.50           1590          49.00       182.22
 1095.90        2977.75           1593          42.00       151.70
 1095.93        2978.00           1596          47.00       173.50
 1095.96        2978.25           1600          50.00       186.57
 1095.99        2978.50           1603          48.00       177.86
 1096.02        2978.75           1606          47.00       173.50
 1096.05        2979.00           1610          40.00       142.98
 1096.09        2979.25           1613          45.00       164.78
 1096.12        2979.50           1616          51.00       190.93
 1096.15        2979.75           1620          40.00       142.98
 1096.18        2980.00           1623          37.00       129.90
 1096.21        2980.25           1626          50.00       186.57
 1096.24        2980.50           1630          44.00       160.42
 1096.27        2980.75           1633          38.00       134.26
 1096.30        2981.00           1637          43.00       156.06
 1096.33        2981.25           1640          42.00       151.70
 1096.36        2981.50           1643          48.00       177.86
 1096.39        2981.75           1647          45.00       164.78
 1096.42        2982.00           1650          39.00       138.62
 1096.45        2982.25           1653          38.00       134.26
 1096.48        2982.50           1657          41.00       147.34
 1096.52        2982.75           1660          45.00       164.78
 1096.55        2983.00           1663          42.00       151.70
 1096.58        2983.25           1667          42.00       151.70
 1096.61        2983.50           1670          43.00       156.06
 1096.64        2983.75           1673          43.00       156.06
 1096.67        2984.00           1677          45.00       164.78
HS scan finished at 18:16:53
end
