************************************************************
  HS Scan of (1) Internal mercury lamp
************************************************************
Integration time is 0.2294 seconds per sample
dh140218Manchester 53.47 2.23 2.750537pr1000
************************************************************
Dead Time -------------------------  3E-08 
Number of Cycles Used -------------  4 
Starting Wavelength (Angstroms) ---  2950 
Final Wavelength (Angstoms) -------  2984 
Wavelength Increment (Angstroms) --  .25 
Filter Wheel #1 Position ---------- (1) Ground quartz diffuser (ND=2.32)
Filter Wheel #2 Position ---------- (1) Neutral Density 0.494



************************************************************
HS scan start time = 04:43:08
Dark Count =  7.4 


Time (GMT)  Wavelength (Ang)  Step Number  Raw Counts  Counts/Second

  283.50        2950.00           1222          65.00       251.09
  283.57        2950.25           1226          66.00       255.45
  283.60        2950.50           1229          64.00       246.73
  283.63        2950.75           1232          63.00       242.37
  283.66        2951.00           1236          53.00       198.78
  283.69        2951.25           1239          53.00       198.78
  283.72        2951.50           1242          63.00       242.37
  283.75        2951.75           1246          56.00       211.86
  283.78        2952.00           1249          67.00       259.81
  283.81        2952.25           1252          69.00       268.53
  283.85        2952.50           1256          68.00       264.17
  283.88        2952.75           1259          67.00       259.81
  283.91        2953.00           1262          57.00       216.22
  283.94        2953.25           1266          64.00       246.73
  283.97        2953.50           1269          58.00       220.58
  284.00        2953.75           1272          66.00       255.45
  284.03        2954.00           1276          63.00       242.37
  284.06        2954.25           1279          65.00       251.09
  284.09        2954.50           1282          64.00       246.73
  284.12        2954.75           1286          58.00       220.58
  284.15        2955.00           1289          55.00       207.50
  284.19        2955.25           1292          64.00       246.73
  284.22        2955.50           1296          61.00       233.65
  284.25        2955.75           1299          65.00       251.09
  284.28        2956.00           1302          51.00       190.06
  284.31        2956.25           1306          61.00       233.65
  284.34        2956.50           1309          68.00       264.17
  284.37        2956.75           1312          66.00       255.45
  284.40        2957.00           1316          58.00       220.58
  284.43        2957.25           1319          64.00       246.73
  284.46        2957.50           1322          60.00       229.30
  284.49        2957.75           1326          56.00       211.86
  284.52        2958.00           1329          62.00       238.01
  284.56        2958.25           1332          60.00       229.30
  284.59        2958.50           1336          54.00       203.14
  284.62        2958.75           1339          58.00       220.58
  284.65        2959.00           1342          59.00       224.94
  284.68        2959.25           1346          62.00       238.01
  284.71        2959.50           1349          66.00       255.45
  284.74        2959.75           1352          78.00       307.76
  284.77        2960.00           1356         106.00       429.82
  284.80        2960.25           1359         129.00       530.09
  284.83        2960.50           1362         166.00       691.38
  284.86        2960.75           1366         231.00       974.75
  284.89        2961.00           1369         260.00      1101.17
  284.92        2961.25           1372         288.00      1223.24
  284.95        2961.50           1376         361.00      1541.48
  284.99        2961.75           1379         463.00      1986.17
  285.02        2962.00           1382         901.00      3895.83
  285.05        2962.25           1386        2362.00     10267.33
  285.08        2962.50           1389        3761.00     16370.73
  285.11        2962.75           1392        5255.00     22891.04
  285.14        2963.00           1396        7139.00     31117.10
  285.17        2963.25           1399        8600.00     37499.01
  285.20        2963.50           1402       10199.00     44486.53
  285.23        2963.75           1406       12296.00     53654.74
  285.26        2964.00           1409       13941.00     60850.30
  285.29        2964.25           1412       15548.00     67882.66
  285.33        2964.50           1416       17322.00     75649.25
  285.36        2964.75           1419       19097.00     83423.88
  285.39        2965.00           1422       20598.00     90001.18
  285.42        2965.25           1426       22555.00     98580.56
  285.45        2965.50           1429       24130.00    105488.50
  285.48        2965.75           1432       25460.00    111324.10
  285.51        2966.00           1436       27625.00    120827.80
  285.54        2966.25           1439       28873.00    126308.60
  285.57        2966.50           1442       30390.00    132973.20
  285.61        2966.75           1446       32096.00    140471.30
  285.64        2967.00           1449       32452.00    142036.40
  285.67        2967.25           1452       32621.00    142779.40
  285.70        2967.50           1456       32481.00    142163.90
  285.73        2967.75           1459       32728.00    143249.90
  285.76        2968.00           1462       32515.00    142313.40
  285.79        2968.25           1466       31803.00    139183.30
  285.82        2968.50           1469       30730.00    134467.20
  285.85        2968.75           1472       29364.00    128465.40
  285.88        2969.00           1476       27330.00    119532.50
  285.91        2969.25           1479       25850.00    113035.70
  285.94        2969.50           1482       24369.00    106537.00
  285.97        2969.75           1486       22295.00     97440.49
  286.01        2970.00           1489       20878.00     91228.41
  286.04        2970.25           1492       19577.00     85526.92
  286.07        2970.50           1496       17355.00     75793.78
  286.10        2970.75           1499       16067.00     70154.48
  286.13        2971.00           1502       14473.00     63178.05
  286.16        2971.25           1506       12435.00     54262.63
  286.19        2971.50           1509       10947.00     47756.26
  286.22        2971.75           1513        9044.00     39438.97
  286.25        2972.00           1516        7580.00     33043.20
  286.28        2972.25           1519        6093.00     26549.47
  286.32        2972.50           1523        4159.00     18107.48
  286.35        2972.75           1526        2681.00     11658.83
  286.38        2973.00           1529        1301.00      5640.01
  286.41        2973.25           1533         480.00      2060.28
  286.44        2973.50           1536         352.00      1502.25
  286.47        2973.75           1539         267.00      1131.69
  286.50        2974.00           1543         215.00       904.99
  286.53        2974.25           1546         162.00       673.95
  286.56        2974.50           1549         122.00       499.57
  286.59        2974.75           1553          93.00       373.15
  286.62        2975.00           1556          77.00       303.40
  286.65        2975.25           1559          57.00       216.22
  286.68        2975.50           1563          67.00       259.81
  286.72        2975.75           1566          59.00       224.94
  286.75        2976.00           1569          63.00       242.37
  286.78        2976.25           1573          67.00       259.81
  286.81        2976.50           1576          63.00       242.37
  286.84        2976.75           1579          62.00       238.01
  286.87        2977.00           1583          57.00       216.22
  286.90        2977.25           1586          59.00       224.94
  286.93        2977.50           1590          55.00       207.50
  286.96        2977.75           1593          54.00       203.14
  286.99        2978.00           1596          55.00       207.50
  287.02        2978.25           1600          55.00       207.50
  287.05        2978.50           1603          53.00       198.78
  287.08        2978.75           1606          57.00       216.22
  287.11        2979.00           1610          52.00       194.42
  287.14        2979.25           1613          64.00       246.73
  287.17        2979.50           1616          61.00       233.65
  287.21        2979.75           1620          64.00       246.73
  287.24        2980.00           1623          56.00       211.86
  287.27        2980.25           1626          47.00       172.63
  287.30        2980.50           1630          53.00       198.78
  287.33        2980.75           1633          65.00       251.09
  287.36        2981.00           1637          47.00       172.63
  287.39        2981.25           1640          56.00       211.86
  287.42        2981.50           1643          59.00       224.94
  287.45        2981.75           1647          59.00       224.94
  287.48        2982.00           1650          51.00       190.06
  287.51        2982.25           1653          55.00       207.50
  287.54        2982.50           1657          54.00       203.14
  287.58        2982.75           1660          56.00       211.86
  287.61        2983.00           1663          60.00       229.30
  287.64        2983.25           1667          52.00       194.42
  287.67        2983.50           1670          55.00       207.50
  287.70        2983.75           1673          59.00       224.94
  287.73        2984.00           1677          56.00       211.86
HS scan finished at 04:47:57
end
************************************************************
  HS Scan of (1) Internal mercury lamp
************************************************************
Integration time is 0.2294 seconds per sample
dh140218Manchester 53.47 2.23 2.750537pr1000
************************************************************
Dead Time -------------------------  3E-08 
Number of Cycles Used -------------  4 
Starting Wavelength (Angstroms) ---  2950 
Final Wavelength (Angstoms) -------  2984 
Wavelength Increment (Angstroms) --  .25 
Filter Wheel #1 Position ---------- (1) Ground quartz diffuser (ND=2.32)
Filter Wheel #2 Position ---------- (1) Neutral Density 0.494



************************************************************
HS scan start time = 18:12:00
Dark Count =  4.7 


Time (GMT)  Wavelength (Ang)  Step Number  Raw Counts  Counts/Second

 1092.36        2950.00           1222          60.00       241.07
 1092.43        2950.25           1226          57.00       227.99
 1092.46        2950.50           1229          64.00       258.50
 1092.49        2950.75           1232          61.00       245.42
 1092.52        2951.00           1236          57.00       227.99
 1092.55        2951.25           1239          61.00       245.42
 1092.58        2951.50           1242          64.00       258.50
 1092.61        2951.75           1246          64.00       258.50
 1092.65        2952.00           1249          61.00       245.42
 1092.68        2952.25           1252          58.00       232.35
 1092.71        2952.50           1256          62.00       249.78
 1092.74        2952.75           1259          64.00       258.50
 1092.77        2953.00           1262          57.00       227.99
 1092.80        2953.25           1266          60.00       241.07
 1092.83        2953.50           1269          60.00       241.07
 1092.86        2953.75           1272          56.00       223.63
 1092.89        2954.00           1276          57.00       227.99
 1092.92        2954.25           1279          55.00       219.27
 1092.95        2954.50           1282          66.00       267.22
 1092.98        2954.75           1286          65.00       262.86
 1093.01        2955.00           1289          58.00       232.35
 1093.05        2955.25           1292          63.00       254.14
 1093.08        2955.50           1296          59.00       236.71
 1093.11        2955.75           1299          67.00       271.58
 1093.14        2956.00           1302          67.00       271.58
 1093.17        2956.25           1306          52.00       206.19
 1093.20        2956.50           1309          55.00       219.27
 1093.23        2956.75           1312          64.00       258.50
 1093.26        2957.00           1316          58.00       232.35
 1093.29        2957.25           1319          59.00       236.71
 1093.32        2957.50           1322          62.00       249.78
 1093.35        2957.75           1326          69.00       280.30
 1093.38        2958.00           1329          59.00       236.71
 1093.41        2958.25           1332          62.00       249.78
 1093.44        2958.50           1336          61.00       245.42
 1093.48        2958.75           1339          57.00       227.99
 1093.51        2959.00           1342          63.00       254.14
 1093.54        2959.25           1346          59.00       236.71
 1093.57        2959.50           1349          73.00       297.74
 1093.60        2959.75           1352          86.00       354.41
 1093.63        2960.00           1356         107.00       445.95
 1093.66        2960.25           1359         125.00       524.42
 1093.69        2960.50           1362         168.00       711.87
 1093.72        2960.75           1366         223.00       951.64
 1093.75        2961.00           1369         260.00      1112.94
 1093.78        2961.25           1372         299.00      1282.96
 1093.81        2961.50           1376         401.00      1727.64
 1093.84        2961.75           1379         602.00      2603.95
 1093.87        2962.00           1382        1364.00      5926.51
 1093.91        2962.25           1386        3060.00     13323.98
 1093.94        2962.50           1389        4325.00     18843.69
 1093.97        2962.75           1392        5792.00     25247.10
 1094.00        2963.00           1396        7907.00     34483.35
 1094.03        2963.25           1399        9458.00     41259.85
 1094.06        2963.50           1402       10995.00     47977.90
 1094.09        2963.75           1406       13138.00     57349.24
 1094.12        2964.00           1409       14512.00     63360.51
 1094.15        2964.25           1412       16164.00     70590.93
 1094.18        2964.50           1416       18278.00     79847.98
 1094.22        2964.75           1419       19617.00     85714.02
 1094.25        2965.00           1422       21060.00     92038.00
 1094.28        2965.25           1426       23222.00    101517.50
 1094.31        2965.50           1429       24789.00    108391.60
 1094.34        2965.75           1432       26238.00    114750.50
 1094.37        2966.00           1436       28346.00    124005.80
 1094.40        2966.25           1439       29686.00    129891.80
 1094.43        2966.50           1442       31020.00    135753.60
 1094.46        2966.75           1446       32234.00    141089.90
 1094.49        2967.00           1449       32345.00    141577.80
 1094.52        2967.25           1452       32327.00    141498.70
 1094.55        2967.50           1456       32386.00    141758.10
 1094.58        2967.75           1459       32462.00    142092.20
 1094.62        2968.00           1462       32212.00    140993.10
 1094.65        2968.25           1466       30965.00    135511.90
 1094.68        2968.50           1469       29572.00    129391.00
 1094.71        2968.75           1472       28035.00    122640.00
 1094.74        2969.00           1476       26081.00    114061.40
 1094.77        2969.25           1479       24514.00    107185.00
 1094.80        2969.50           1482       23192.00    101385.90
 1094.83        2969.75           1486       21180.00     92564.02
 1094.86        2970.00           1489       19548.00     85411.69
 1094.89        2970.25           1492       18069.00     78932.56
 1094.93        2970.50           1496       16131.00     70446.46
 1094.96        2970.75           1499       14841.00     64800.22
 1094.99        2971.00           1502       13265.00     57904.78
 1095.02        2971.25           1506       11226.00     48987.81
 1095.05        2971.50           1509        9811.00     42802.53
 1095.08        2971.75           1513        7765.00     33863.07
 1095.11        2972.00           1516        6122.00     26687.88
 1095.14        2972.25           1519        4707.00     20510.87
 1095.17        2972.50           1523        2855.00     12429.66
 1095.20        2972.75           1526        1577.00      6855.38
 1095.23        2973.00           1529         741.00      3209.99
 1095.27        2973.25           1533         396.00      1705.84
 1095.30        2973.50           1536         333.00      1431.19
 1095.33        2973.75           1539         281.00      1204.49
 1095.36        2974.00           1543         235.00      1003.95
 1095.39        2974.25           1546         171.00       724.95
 1095.42        2974.50           1549         160.00       677.00
 1095.45        2974.75           1553         112.00       467.75
 1095.48        2975.00           1556          73.00       297.74
 1095.51        2975.25           1559          64.00       258.50
 1095.54        2975.50           1563          62.00       249.78
 1095.57        2975.75           1566          65.00       262.86
 1095.61        2976.00           1569          67.00       271.58
 1095.64        2976.25           1573          59.00       236.71
 1095.67        2976.50           1576          60.00       241.07
 1095.70        2976.75           1579          58.00       232.35
 1095.73        2977.00           1583          63.00       254.14
 1095.76        2977.25           1586          64.00       258.50
 1095.79        2977.50           1590          57.00       227.99
 1095.82        2977.75           1593          61.00       245.42
 1095.85        2978.00           1596          55.00       219.27
 1095.88        2978.25           1600          56.00       223.63
 1095.91        2978.50           1603          62.00       249.78
 1095.94        2978.75           1606          59.00       236.71
 1095.98        2979.00           1610          49.00       193.11
 1096.01        2979.25           1613          58.00       232.35
 1096.04        2979.50           1616          55.00       219.27
 1096.07        2979.75           1620          60.00       241.07
 1096.10        2980.00           1623          57.00       227.99
 1096.13        2980.25           1626          55.00       219.27
 1096.16        2980.50           1630          51.00       201.83
 1096.19        2980.75           1633          55.00       219.27
 1096.22        2981.00           1637          54.00       214.91
 1096.25        2981.25           1640          52.00       206.19
 1096.28        2981.50           1643          56.00       223.63
 1096.31        2981.75           1647          54.00       214.91
 1096.34        2982.00           1650          54.00       214.91
 1096.38        2982.25           1653          54.00       214.91
 1096.41        2982.50           1657          58.00       232.35
 1096.44        2982.75           1660          58.00       232.35
 1096.47        2983.00           1663          57.00       227.99
 1096.50        2983.25           1667          52.00       206.19
 1096.53        2983.50           1670          53.00       210.55
 1096.56        2983.75           1673          54.00       214.91
 1096.59        2984.00           1677          57.00       227.99
HS scan finished at 18:16:48
end
