************************************************************
  HS Scan of (1) Internal mercury lamp
************************************************************
Integration time is 0.2294 seconds per sample
dh090217Manchester 53.47 2.23 2.750537pr1000
************************************************************
Dead Time -------------------------  3E-08 
Number of Cycles Used -------------  4 
Starting Wavelength (Angstroms) ---  2950 
Final Wavelength (Angstoms) -------  2984 
Wavelength Increment (Angstroms) --  .25 
Filter Wheel #1 Position ---------- (1) Ground quartz diffuser (ND=2.32)
Filter Wheel #2 Position ---------- (1) Neutral Density 0.494



************************************************************
HS scan start time = 04:52:12
Dark Count =  6.1 


Time (GMT)  Wavelength (Ang)  Step Number  Raw Counts  Counts/Second

  292.57        2950.00           1222          46.00       173.93
  292.64        2950.25           1226          47.00       178.29
  292.67        2950.50           1229          44.00       165.21
  292.70        2950.75           1232          49.00       187.01
  292.73        2951.00           1236          38.00       139.06
  292.76        2951.25           1239          47.00       178.29
  292.79        2951.50           1242          47.00       178.29
  292.83        2951.75           1246          43.00       160.86
  292.86        2952.00           1249          42.00       156.50
  292.89        2952.25           1252          54.00       208.81
  292.92        2952.50           1256          44.00       165.21
  292.95        2952.75           1259          46.00       173.93
  292.98        2953.00           1262          45.00       169.57
  293.01        2953.25           1266          52.00       200.09
  293.04        2953.50           1269          43.00       160.86
  293.07        2953.75           1272          44.00       165.21
  293.10        2954.00           1276          47.00       178.29
  293.13        2954.25           1279          53.00       204.45
  293.16        2954.50           1282          39.00       143.42
  293.19        2954.75           1286          46.00       173.93
  293.23        2955.00           1289          41.00       152.14
  293.26        2955.25           1292          47.00       178.29
  293.29        2955.50           1296          45.00       169.57
  293.32        2955.75           1299          49.00       187.01
  293.35        2956.00           1302          41.00       152.14
  293.38        2956.25           1306          49.00       187.01
  293.41        2956.50           1309          49.00       187.01
  293.44        2956.75           1312          51.00       195.73
  293.47        2957.00           1316          43.00       160.86
  293.50        2957.25           1319          46.00       173.93
  293.53        2957.50           1322          45.00       169.57
  293.56        2957.75           1326          48.00       182.65
  293.59        2958.00           1329          47.00       178.29
  293.62        2958.25           1332          43.00       160.86
  293.66        2958.50           1336          48.00       182.65
  293.69        2958.75           1339          40.00       147.78
  293.72        2959.00           1342          44.00       165.21
  293.75        2959.25           1346          54.00       208.81
  293.78        2959.50           1349          62.00       243.68
  293.81        2959.75           1352          77.00       309.07
  293.84        2960.00           1356         122.00       505.24
  293.87        2960.25           1359         170.00       714.49
  293.90        2960.50           1362         190.00       801.68
  293.93        2960.75           1366         243.00      1032.73
  293.96        2961.00           1369         289.00      1233.26
  293.99        2961.25           1372         332.00      1420.72
  294.02        2961.50           1376         452.00      1943.88
  294.06        2961.75           1379         797.00      3448.05
  294.09        2962.00           1382        1647.00      7154.54
  294.12        2962.25           1386        3561.00     15503.72
  294.15        2962.50           1389        5230.00     22787.59
  294.18        2962.75           1392        6769.00     29506.93
  294.21        2963.00           1396        8753.00     38173.17
  294.24        2963.25           1399       10374.00     45257.14
  294.27        2963.50           1402       11999.00     52361.62
  294.30        2963.75           1406       14099.00     61547.28
  294.34        2964.00           1409       15888.00     69376.60
  294.37        2964.25           1412       17450.00     76215.48
  294.40        2964.50           1416       19601.00     85637.78
  294.43        2964.75           1419       21267.00     92939.25
  294.46        2965.00           1422       23080.00    100888.60
  294.49        2965.25           1426       25380.00    110978.70
  294.52        2965.50           1429       27142.00    118712.80
  294.55        2965.75           1432       28591.00    125075.70
  294.58        2966.00           1436       30793.00    134749.80
  294.61        2966.25           1439       32332.00    141514.50
  294.64        2966.50           1442       33595.00    147068.10
  294.68        2966.75           1446       35036.00    153406.70
  294.71        2967.00           1449       35517.00    155523.00
  294.74        2967.25           1452       35391.00    154968.60
  294.77        2967.50           1456       35481.00    155364.60
  294.80        2967.75           1459       35346.00    154770.60
  294.83        2968.00           1462       35161.00    153956.60
  294.86        2968.25           1466       33985.00    148783.40
  294.89        2968.50           1469       32486.00    142191.60
  294.92        2968.75           1472       30856.00    135026.70
  294.96        2969.00           1476       28753.00    125787.20
  294.99        2969.25           1479       27319.00    119489.90
  295.02        2969.50           1482       25664.00    112225.10
  295.05        2969.75           1486       23576.00    103064.00
  295.08        2970.00           1489       21956.00     95959.81
  295.11        2970.25           1492       20393.00     89108.43
  295.14        2970.50           1496       18329.00     80065.23
  295.17        2970.75           1499       16502.00     72064.53
  295.20        2971.00           1502       14797.00     64601.55
  295.24        2971.25           1506       12536.00     54710.04
  295.27        2971.50           1509       10884.00     47486.53
  295.30        2971.75           1513        8668.00     37801.79
  295.33        2972.00           1516        7098.00     30943.71
  295.36        2972.25           1519        5505.00     23988.05
  295.39        2972.50           1523        3455.00     15041.22
  295.42        2972.75           1526        2136.00      9287.24
  295.45        2973.00           1529         952.00      4123.88
  295.48        2973.25           1533         416.00      1786.93
  295.51        2973.50           1536         330.00      1412.00
  295.54        2973.75           1539         274.00      1167.87
  295.58        2974.00           1543         217.00       919.38
  295.61        2974.25           1546         141.00       588.07
  295.64        2974.50           1549         118.00       487.80
  295.67        2974.75           1553          80.00       322.15
  295.70        2975.00           1556          57.00       221.88
  295.73        2975.25           1559          60.00       234.96
  295.76        2975.50           1563          47.00       178.29
  295.79        2975.75           1566          48.00       182.65
  295.82        2976.00           1569          47.00       178.29
  295.85        2976.25           1573          36.00       130.34
  295.88        2976.50           1576          40.00       147.78
  295.92        2976.75           1579          46.00       173.93
  295.95        2977.00           1583          48.00       182.65
  295.98        2977.25           1586          53.00       204.45
  296.01        2977.50           1590          45.00       169.57
  296.04        2977.75           1593          42.00       156.50
  296.07        2978.00           1596          48.00       182.65
  296.10        2978.25           1600          40.00       147.78
  296.13        2978.50           1603          50.00       191.37
  296.16        2978.75           1606          40.00       147.78
  296.19        2979.00           1610          42.00       156.50
  296.22        2979.25           1613          46.00       173.93
  296.25        2979.50           1616          42.00       156.50
  296.29        2979.75           1620          51.00       195.73
  296.32        2980.00           1623          35.00       125.98
  296.35        2980.25           1626          52.00       200.09
  296.38        2980.50           1630          59.00       230.60
  296.41        2980.75           1633          44.00       165.21
  296.44        2981.00           1637          44.00       165.21
  296.47        2981.25           1640          41.00       152.14
  296.50        2981.50           1643          41.00       152.14
  296.53        2981.75           1647          41.00       152.14
  296.56        2982.00           1650          42.00       156.50
  296.59        2982.25           1653          38.00       139.06
  296.62        2982.50           1657          43.00       160.86
  296.65        2982.75           1660          45.00       169.57
  296.69        2983.00           1663          46.00       173.93
  296.72        2983.25           1667          43.00       160.86
  296.75        2983.50           1670          35.00       125.98
  296.78        2983.75           1673          47.00       178.29
  296.81        2984.00           1677          35.00       125.98
HS scan finished at 04:57:01
end
************************************************************
  HS Scan of (1) Internal mercury lamp
************************************************************
Integration time is 0.2294 seconds per sample
dh090217Manchester 53.47 2.23 2.750537pr1000
************************************************************
Dead Time -------------------------  3E-08 
Number of Cycles Used -------------  4 
Starting Wavelength (Angstroms) ---  2950 
Final Wavelength (Angstoms) -------  2984 
Wavelength Increment (Angstroms) --  .25 
Filter Wheel #1 Position ---------- (1) Ground quartz diffuser (ND=2.32)
Filter Wheel #2 Position ---------- (1) Neutral Density 0.494



************************************************************
HS scan start time = 18:12:00
Dark Count =  7.6 


Time (GMT)  Wavelength (Ang)  Step Number  Raw Counts  Counts/Second

 1092.38        2950.00           1222          41.00       145.60
 1092.44        2950.25           1226          56.00       210.99
 1092.47        2950.50           1229          51.00       189.19
 1092.51        2950.75           1232          40.00       141.24
 1092.54        2951.00           1236          51.00       189.19
 1092.57        2951.25           1239          42.00       149.96
 1092.60        2951.50           1242          46.00       167.39
 1092.63        2951.75           1246          42.00       149.96
 1092.66        2952.00           1249          39.00       136.88
 1092.69        2952.25           1252          44.00       158.68
 1092.72        2952.50           1256          43.00       154.32
 1092.75        2952.75           1259          38.00       132.52
 1092.79        2953.00           1262          51.00       189.19
 1092.82        2953.25           1266          44.00       158.68
 1092.85        2953.50           1269          41.00       145.60
 1092.88        2953.75           1272          48.00       176.11
 1092.91        2954.00           1276          42.00       149.96
 1092.94        2954.25           1279          48.00       176.11
 1092.97        2954.50           1282          51.00       189.19
 1093.00        2954.75           1286          52.00       193.55
 1093.03        2955.00           1289          44.00       158.68
 1093.06        2955.25           1292          45.00       163.03
 1093.09        2955.50           1296          47.00       171.75
 1093.12        2955.75           1299          35.00       119.44
 1093.15        2956.00           1302          44.00       158.68
 1093.18        2956.25           1306          44.00       158.68
 1093.22        2956.50           1309          48.00       176.11
 1093.25        2956.75           1312          44.00       158.68
 1093.28        2957.00           1316          49.00       180.47
 1093.31        2957.25           1319          50.00       184.83
 1093.34        2957.50           1322          39.00       136.88
 1093.37        2957.75           1326          50.00       184.83
 1093.40        2958.00           1329          44.00       158.68
 1093.43        2958.25           1332          40.00       141.24
 1093.46        2958.50           1336          51.00       189.19
 1093.49        2958.75           1339          42.00       149.96
 1093.52        2959.00           1342          52.00       193.55
 1093.55        2959.25           1346          45.00       163.03
 1093.58        2959.50           1349          48.00       176.11
 1093.62        2959.75           1352          63.00       241.50
 1093.65        2960.00           1356          97.00       389.72
 1093.68        2960.25           1359         134.00       551.01
 1093.71        2960.50           1362         167.00       694.87
 1093.74        2960.75           1366         219.00       921.56
 1093.77        2961.00           1369         252.00      1065.42
 1093.80        2961.25           1372         316.00      1344.43
 1093.83        2961.50           1376         395.00      1688.84
 1093.86        2961.75           1379         614.00      2643.63
 1093.90        2962.00           1382        1292.00      5599.89
 1093.93        2962.25           1386        3020.00     13136.82
 1093.96        2962.50           1389        4549.00     19808.63
 1093.99        2962.75           1392        6072.00     26456.91
 1094.02        2963.00           1396        8108.00     35348.72
 1094.05        2963.25           1399        9594.00     41841.51
 1094.08        2963.50           1402       11157.00     48673.47
 1094.11        2963.75           1406       13452.00     58710.12
 1094.14        2964.00           1409       15025.00     65592.77
 1094.18        2964.25           1412       16952.00     74028.23
 1094.21        2964.50           1416       19173.00     83755.96
 1094.24        2964.75           1419       20918.00     91402.87
 1094.27        2965.00           1422       22578.00     98680.56
 1094.30        2965.25           1426       24565.00    107396.00
 1094.33        2965.50           1429       26236.00    114729.00
 1094.36        2965.75           1432       28005.00    122495.60
 1094.39        2966.00           1436       30047.00    131465.20
 1094.42        2966.25           1439       31699.00    138725.20
 1094.45        2966.50           1442       32879.00    143912.90
 1094.49        2966.75           1446       34360.00    150426.20
 1094.52        2967.00           1449       35104.00    153699.20
 1094.55        2967.25           1452       34693.00    151891.10
 1094.58        2967.50           1456       35125.00    153791.60
 1094.61        2967.75           1459       34864.00    152643.40
 1094.64        2968.00           1462       34809.00    152401.40
 1094.67        2968.25           1466       33656.00    147329.80
 1094.70        2968.50           1469       32626.00    142800.50
 1094.74        2968.75           1472       31120.00    136180.30
 1094.77        2969.00           1476       29067.00    127159.90
 1094.80        2969.25           1479       27560.00    120541.50
 1094.83        2969.50           1482       25978.00    113596.60
 1094.86        2969.75           1486       23839.00    104211.10
 1094.89        2970.00           1489       22211.00     97071.28
 1094.92        2970.25           1492       20500.00     89570.80
 1094.95        2970.50           1496       18484.00     80737.61
 1094.98        2970.75           1499       16835.00     73515.93
 1095.02        2971.00           1502       15330.00     66927.62
 1095.05        2971.25           1506       12882.00     56216.79
 1095.08        2971.50           1509       11299.00     49294.29
 1095.11        2971.75           1513        9191.00     40080.43
 1095.14        2972.00           1516        7620.00     33217.04
 1095.17        2972.25           1519        6060.00     26404.52
 1095.20        2972.50           1523        3970.00     17281.84
 1095.23        2972.75           1526        2595.00     11282.81
 1095.26        2973.00           1529        1363.00      5909.50
 1095.30        2973.25           1533         482.00      2068.13
 1095.33        2973.50           1536         366.00      1562.41
 1095.36        2973.75           1539         287.00      1218.00
 1095.39        2974.00           1543         253.00      1069.78
 1095.42        2974.25           1546         178.00       742.82
 1095.45        2974.50           1549         135.00       555.37
 1095.48        2974.75           1553          80.00       315.61
 1095.51        2975.00           1556          74.00       289.45
 1095.54        2975.25           1559          48.00       176.11
 1095.57        2975.50           1563          47.00       171.75
 1095.61        2975.75           1566          48.00       176.11
 1095.64        2976.00           1569          43.00       154.32
 1095.67        2976.25           1573          46.00       167.39
 1095.70        2976.50           1576          42.00       149.96
 1095.73        2976.75           1579          47.00       171.75
 1095.76        2977.00           1583          47.00       171.75
 1095.79        2977.25           1586          45.00       163.03
 1095.82        2977.50           1590          43.00       154.32
 1095.85        2977.75           1593          46.00       167.39
 1095.88        2978.00           1596          45.00       163.03
 1095.91        2978.25           1600          42.00       149.96
 1095.95        2978.50           1603          51.00       189.19
 1095.98        2978.75           1606          47.00       171.75
 1096.01        2979.00           1610          42.00       149.96
 1096.04        2979.25           1613          45.00       163.03
 1096.07        2979.50           1616          44.00       158.68
 1096.10        2979.75           1620          45.00       163.03
 1096.13        2980.00           1623          42.00       149.96
 1096.16        2980.25           1626          40.00       141.24
 1096.19        2980.50           1630          43.00       154.32
 1096.22        2980.75           1633          41.00       145.60
 1096.26        2981.00           1637          41.00       145.60
 1096.29        2981.25           1640          42.00       149.96
 1096.32        2981.50           1643          41.00       145.60
 1096.35        2981.75           1647          46.00       167.39
 1096.38        2982.00           1650          48.00       176.11
 1096.41        2982.25           1653          43.00       154.32
 1096.44        2982.50           1657          48.00       176.11
 1096.47        2982.75           1660          45.00       163.03
 1096.50        2983.00           1663          39.00       136.88
 1096.53        2983.25           1667          45.00       163.03
 1096.56        2983.50           1670          49.00       180.47
 1096.60        2983.75           1673          47.00       171.75
 1096.63        2984.00           1677          38.00       132.52
HS scan finished at 18:16:51
end
