************************************************************
  HS Scan of (1) Internal mercury lamp
************************************************************
Integration time is 0.2294 seconds per sample
dh170219Manchester 53.47 2.23 2.804185pr1000
************************************************************
Dead Time -------------------------  3E-08 
Number of Cycles Used -------------  4 
Starting Wavelength (Angstroms) ---  2950 
Final Wavelength (Angstoms) -------  2984 
Wavelength Increment (Angstroms) --  .25 
Filter Wheel #1 Position ---------- (1) Ground quartz diffuser (ND=2.32)
Filter Wheel #2 Position ---------- (1) Neutral Density 0.494



************************************************************
HS scan start time = 04:37:27
Dark Count =  7.3 


Time (GMT)  Wavelength (Ang)  Step Number  Raw Counts  Counts/Second

  277.82        2950.00           1222          50.00       186.14
  277.89        2950.25           1226          57.00       216.65
  277.92        2950.50           1229          56.00       212.29
  277.95        2950.75           1232          56.00       212.29
  277.98        2951.00           1236          51.00       190.50
  278.01        2951.25           1239          55.00       207.94
  278.04        2951.50           1242          52.00       194.86
  278.07        2951.75           1246          59.00       225.37
  278.10        2952.00           1249          52.00       194.86
  278.14        2952.25           1252          59.00       225.37
  278.17        2952.50           1256          51.00       190.50
  278.20        2952.75           1259          52.00       194.86
  278.23        2953.00           1262          54.00       203.58
  278.26        2953.25           1266          59.00       225.37
  278.29        2953.50           1269          53.00       199.22
  278.32        2953.75           1272          53.00       199.22
  278.35        2954.00           1276          57.00       216.65
  278.38        2954.25           1279          55.00       207.94
  278.41        2954.50           1282          54.00       203.58
  278.44        2954.75           1286          57.00       216.65
  278.48        2955.00           1289          53.00       199.22
  278.51        2955.25           1292          55.00       207.94
  278.54        2955.50           1296          55.00       207.94
  278.57        2955.75           1299          48.00       177.42
  278.60        2956.00           1302          53.00       199.22
  278.63        2956.25           1306          51.00       190.50
  278.66        2956.50           1309          53.00       199.22
  278.69        2956.75           1312          57.00       216.65
  278.72        2957.00           1316          49.00       181.78
  278.75        2957.25           1319          57.00       216.65
  278.78        2957.50           1322          53.00       199.22
  278.81        2957.75           1326          59.00       225.37
  278.84        2958.00           1329          49.00       181.78
  278.87        2958.25           1332          56.00       212.29
  278.90        2958.50           1336          55.00       207.94
  278.94        2958.75           1339          51.00       190.50
  278.97        2959.00           1342          50.00       186.14
  279.00        2959.25           1346          57.00       216.65
  279.03        2959.50           1349          59.00       225.37
  279.06        2959.75           1352          70.00       273.32
  279.09        2960.00           1356          88.00       351.79
  279.12        2960.25           1359         116.00       473.85
  279.15        2960.50           1362         127.00       521.80
  279.18        2960.75           1366         184.00       770.29
  279.21        2961.00           1369         213.00       896.71
  279.24        2961.25           1372         247.00      1044.93
  279.27        2961.50           1376         311.00      1323.94
  279.31        2961.75           1379         381.00      1629.11
  279.34        2962.00           1382         735.00      3172.49
  279.37        2962.25           1386        1927.00      8370.45
  279.40        2962.50           1389        3057.00     13299.55
  279.43        2962.75           1392        4214.00     18347.94
  279.46        2963.00           1396        5765.00     25117.88
  279.49        2963.25           1399        6896.00     30056.30
  279.52        2963.50           1402        8133.00     35459.24
  279.55        2963.75           1406        9743.00     42493.99
  279.58        2964.00           1409       10855.00     47354.50
  279.62        2964.25           1412       12120.00     52885.50
  279.65        2964.50           1416       13731.00     59931.99
  279.68        2964.75           1419       14810.00     64653.18
  279.71        2965.00           1422       16224.00     70842.21
  279.74        2965.25           1426       17899.00     78176.60
  279.77        2965.50           1429       19023.00     83100.11
  279.80        2965.75           1432       20106.00     87845.41
  279.83        2966.00           1436       21865.00     95555.58
  279.87        2966.25           1439       22858.00     99909.74
  279.90        2966.50           1442       24175.00    105686.40
  279.93        2966.75           1446       25461.00    111328.90
  279.96        2967.00           1449       25945.00    113453.10
  279.99        2967.25           1452       26052.00    113922.70
  280.02        2967.50           1456       26186.00    114510.80
  280.05        2967.75           1459       26134.00    114282.60
  280.08        2968.00           1462       25990.00    113650.60
  280.11        2968.25           1466       25672.00    112254.90
  280.14        2968.50           1469       24784.00    108358.20
  280.17        2968.75           1472       23612.00    103216.70
  280.21        2969.00           1476       21830.00     95402.12
  280.24        2969.25           1479       20915.00     91391.03
  280.27        2969.50           1482       19736.00     86224.06
  280.30        2969.75           1486       18086.00     78995.62
  280.33        2970.00           1489       16983.00     74165.27
  280.36        2970.25           1492       15877.00     69323.19
  280.39        2970.50           1496       14032.00     61248.89
  280.42        2970.75           1499       12841.00     56038.77
  280.45        2971.00           1502       11565.00     50458.63
  280.49        2971.25           1506        9842.00     42926.65
  280.52        2971.50           1509        8695.00     37914.51
  280.55        2971.75           1513        7194.00     31357.74
  280.58        2972.00           1516        5873.00     25589.39
  280.61        2972.25           1519        4734.00     20617.37
  280.64        2972.50           1523        3157.00     13735.82
  280.67        2972.75           1526        2074.00      9011.59
  280.70        2973.00           1529        1122.00      4859.91
  280.73        2973.25           1533         403.00      1725.02
  280.77        2973.50           1536         271.00      1149.56
  280.80        2973.75           1539         229.00       966.46
  280.83        2974.00           1543         187.00       783.37
  280.86        2974.25           1546         144.00       595.91
  280.89        2974.50           1549         116.00       473.85
  280.92        2974.75           1553          88.00       351.79
  280.95        2975.00           1556          63.00       242.81
  280.98        2975.25           1559          57.00       216.65
  281.01        2975.50           1563          49.00       181.78
  281.04        2975.75           1566          59.00       225.37
  281.07        2976.00           1569          48.00       177.42
  281.10        2976.25           1573          51.00       190.50
  281.13        2976.50           1576          54.00       203.58
  281.16        2976.75           1579          54.00       203.58
  281.20        2977.00           1583          56.00       212.29
  281.23        2977.25           1586          58.00       221.01
  281.26        2977.50           1590          47.00       173.06
  281.29        2977.75           1593          56.00       212.29
  281.32        2978.00           1596          58.00       221.01
  281.35        2978.25           1600          46.00       168.70
  281.38        2978.50           1603          50.00       186.14
  281.41        2978.75           1606          47.00       173.06
  281.44        2979.00           1610          49.00       181.78
  281.47        2979.25           1613          42.00       151.26
  281.51        2979.50           1616          47.00       173.06
  281.54        2979.75           1620          51.00       190.50
  281.57        2980.00           1623          52.00       194.86
  281.60        2980.25           1626          51.00       190.50
  281.63        2980.50           1630          51.00       190.50
  281.66        2980.75           1633          51.00       190.50
  281.69        2981.00           1637          43.00       155.62
  281.72        2981.25           1640          49.00       181.78
  281.75        2981.50           1643          45.00       164.34
  281.78        2981.75           1647          55.00       207.94
  281.81        2982.00           1650          49.00       181.78
  281.84        2982.25           1653          54.00       203.58
  281.87        2982.50           1657          49.00       181.78
  281.90        2982.75           1660          54.00       203.58
  281.94        2983.00           1663          56.00       212.29
  281.97        2983.25           1667          50.00       186.14
  282.00        2983.50           1670          45.00       164.34
  282.03        2983.75           1673          50.00       186.14
  282.06        2984.00           1677          43.00       155.62
HS scan finished at 04:42:17
end
************************************************************
  HS Scan of (1) Internal mercury lamp
************************************************************
Integration time is 0.2294 seconds per sample
dh170219Manchester 53.47 2.23 2.804185pr1000
************************************************************
Dead Time -------------------------  3E-08 
Number of Cycles Used -------------  4 
Starting Wavelength (Angstroms) ---  2950 
Final Wavelength (Angstoms) -------  2984 
Wavelength Increment (Angstroms) --  .25 
Filter Wheel #1 Position ---------- (1) Ground quartz diffuser (ND=2.32)
Filter Wheel #2 Position ---------- (1) Neutral Density 0.494



************************************************************
HS scan start time = 18:12:09
Dark Count =  5.9 


Time (GMT)  Wavelength (Ang)  Step Number  Raw Counts  Counts/Second

 1092.52        2950.00           1222          62.00       244.55
 1092.59        2950.25           1226          59.00       231.48
 1092.62        2950.50           1229          55.00       214.04
 1092.65        2950.75           1232          53.00       205.32
 1092.68        2951.00           1236          62.00       244.55
 1092.71        2951.25           1239          56.00       218.40
 1092.74        2951.50           1242          56.00       218.40
 1092.77        2951.75           1246          55.00       214.04
 1092.81        2952.00           1249          53.00       205.32
 1092.84        2952.25           1252          57.00       222.76
 1092.87        2952.50           1256          56.00       218.40
 1092.90        2952.75           1259          56.00       218.40
 1092.93        2953.00           1262          52.00       200.96
 1092.96        2953.25           1266          61.00       240.19
 1092.99        2953.50           1269          57.00       222.76
 1093.02        2953.75           1272          58.00       227.12
 1093.05        2954.00           1276          56.00       218.40
 1093.08        2954.25           1279          57.00       222.76
 1093.11        2954.50           1282          54.00       209.68
 1093.14        2954.75           1286          54.00       209.68
 1093.17        2955.00           1289          61.00       240.19
 1093.20        2955.25           1292          62.00       244.55
 1093.24        2955.50           1296          51.00       196.60
 1093.27        2955.75           1299          51.00       196.60
 1093.30        2956.00           1302          57.00       222.76
 1093.33        2956.25           1306          50.00       192.24
 1093.36        2956.50           1309          50.00       192.24
 1093.39        2956.75           1312          63.00       248.91
 1093.42        2957.00           1316          56.00       218.40
 1093.45        2957.25           1319          53.00       205.32
 1093.48        2957.50           1322          62.00       244.55
 1093.51        2957.75           1326          59.00       231.48
 1093.55        2958.00           1329          52.00       200.96
 1093.58        2958.25           1332          69.00       275.07
 1093.61        2958.50           1336          55.00       214.04
 1093.64        2958.75           1339          57.00       222.76
 1093.67        2959.00           1342          57.00       222.76
 1093.70        2959.25           1346          60.00       235.83
 1093.73        2959.50           1349          65.00       257.63
 1093.76        2959.75           1352          64.00       253.27
 1093.79        2960.00           1356          82.00       331.74
 1093.82        2960.25           1359         106.00       436.36
 1093.85        2960.50           1362         130.00       540.99
 1093.88        2960.75           1366         171.00       719.72
 1093.91        2961.00           1369         210.00       889.74
 1093.94        2961.25           1372         253.00      1077.19
 1093.97        2961.50           1376         299.00      1277.73
 1094.01        2961.75           1379         436.00      1875.00
 1094.04        2962.00           1382         946.00      4098.59
 1094.07        2962.25           1386        2359.00     10260.79
 1094.10        2962.50           1389        3511.00     15286.44
 1094.13        2962.75           1392        4709.00     20514.37
 1094.16        2963.00           1396        6194.00     26997.01
 1094.19        2963.25           1399        7341.00     32005.87
 1094.22        2963.50           1402        8573.00     37387.60
 1094.25        2963.75           1406       10174.00     44383.82
 1094.28        2964.00           1409       11291.00     49266.75
 1094.31        2964.25           1412       12596.00     54973.33
 1094.35        2964.50           1416       14100.00     61552.53
 1094.38        2964.75           1419       15340.00     66978.83
 1094.41        2965.00           1422       16622.00     72590.78
 1094.44        2965.25           1426       18200.00     79501.06
 1094.47        2965.50           1429       19518.00     85274.99
 1094.50        2965.75           1432       20675.00     90345.24
 1094.53        2966.00           1436       22437.00     98069.71
 1094.56        2966.25           1439       23446.00    102494.70
 1094.59        2966.50           1442       24588.00    107504.40
 1094.63        2966.75           1446       25828.00    112945.70
 1094.66        2967.00           1449       25924.00    113367.00
 1094.69        2967.25           1452       26030.00    113832.30
 1094.72        2967.50           1456       26101.00    114143.90
 1094.75        2967.75           1459       25976.00    113595.30
 1094.78        2968.00           1462       25810.00    112866.70
 1094.81        2968.25           1466       25126.00    109865.00
 1094.84        2968.50           1469       23888.00    104433.50
 1094.87        2968.75           1472       22823.00     99762.39
 1094.90        2969.00           1476       21373.00     93404.79
 1094.94        2969.25           1479       20150.00     88044.36
 1094.97        2969.50           1482       19017.00     83079.96
 1095.00        2969.75           1486       17538.00     76601.73
 1095.03        2970.00           1489       16355.00     71421.83
 1095.06        2970.25           1492       15165.00     66212.91
 1095.09        2970.50           1496       13617.00     59439.38
 1095.12        2970.75           1499       12234.00     53390.16
 1095.15        2971.00           1502       11082.00     48353.00
 1095.18        2971.25           1506        9415.00     41066.69
 1095.22        2971.50           1509        8305.00     36216.75
 1095.25        2971.75           1513        6574.00     28656.27
 1095.28        2972.00           1516        5390.00     23486.90
 1095.31        2972.25           1519        4210.00     18336.59
 1095.34        2972.50           1523        2697.00     11735.17
 1095.37        2972.75           1526        1632.00      7090.00
 1095.40        2973.00           1529         744.00      3217.83
 1095.43        2973.25           1533         360.00      1543.66
 1095.46        2973.50           1536         266.00      1133.87
 1095.49        2973.75           1539         235.00       998.72
 1095.53        2974.00           1543         198.00       837.42
 1095.56        2974.25           1546         144.00       602.02
 1095.59        2974.50           1549         122.00       506.11
 1095.62        2974.75           1553          89.00       362.25
 1095.65        2975.00           1556          68.00       270.71
 1095.68        2975.25           1559          74.00       296.86
 1095.71        2975.50           1563          55.00       214.04
 1095.74        2975.75           1566          54.00       209.68
 1095.77        2976.00           1569          52.00       200.96
 1095.80        2976.25           1573          49.00       187.88
 1095.83        2976.50           1576          59.00       231.48
 1095.87        2976.75           1579          52.00       200.96
 1095.90        2977.00           1583          48.00       183.52
 1095.93        2977.25           1586          50.00       192.24
 1095.96        2977.50           1590          52.00       200.96
 1095.99        2977.75           1593          50.00       192.24
 1096.02        2978.00           1596          53.00       205.32
 1096.05        2978.25           1600          52.00       200.96
 1096.08        2978.50           1603          50.00       192.24
 1096.11        2978.75           1606          49.00       187.88
 1096.14        2979.00           1610          55.00       214.04
 1096.17        2979.25           1613          44.00       166.09
 1096.20        2979.50           1616          50.00       192.24
 1096.23        2979.75           1620          44.00       166.09
 1096.26        2980.00           1623          51.00       196.60
 1096.30        2980.25           1626          51.00       196.60
 1096.33        2980.50           1630          62.00       244.55
 1096.36        2980.75           1633          48.00       183.52
 1096.39        2981.00           1637          42.00       157.37
 1096.42        2981.25           1640          48.00       183.52
 1096.45        2981.50           1643          57.00       222.76
 1096.48        2981.75           1647          47.00       179.16
 1096.51        2982.00           1650          57.00       222.76
 1096.54        2982.25           1653          43.00       161.73
 1096.58        2982.50           1657          52.00       200.96
 1096.61        2982.75           1660          53.00       205.32
 1096.64        2983.00           1663          52.00       200.96
 1096.67        2983.25           1667          54.00       209.68
 1096.70        2983.50           1670          47.00       179.16
 1096.73        2983.75           1673          52.00       200.96
 1096.76        2984.00           1677          57.00       222.76
HS scan finished at 18:16:59
end
