************************************************************
  HS Scan of (1) Internal mercury lamp
************************************************************
Integration time is 0.2294 seconds per sample
dh120219Manchester 53.47 2.23 2.804185pr1000
************************************************************
Dead Time -------------------------  3E-08 
Number of Cycles Used -------------  4 
Starting Wavelength (Angstroms) ---  2950 
Final Wavelength (Angstoms) -------  2984 
Wavelength Increment (Angstroms) --  .25 
Filter Wheel #1 Position ---------- (1) Ground quartz diffuser (ND=2.32)
Filter Wheel #2 Position ---------- (1) Neutral Density 0.494



************************************************************
HS scan start time = 04:48:54
Dark Count =  6 


Time (GMT)  Wavelength (Ang)  Step Number  Raw Counts  Counts/Second

  289.27        2950.00           1222          62.00       244.12
  289.34        2950.25           1226          53.00       204.88
  289.37        2950.50           1229          57.00       222.32
  289.40        2950.75           1232          55.00       213.60
  289.43        2951.00           1236          59.00       231.04
  289.46        2951.25           1239          54.00       209.24
  289.49        2951.50           1242          64.00       252.84
  289.52        2951.75           1246          58.00       226.68
  289.55        2952.00           1249          49.00       187.45
  289.58        2952.25           1252          52.00       200.52
  289.61        2952.50           1256          55.00       213.60
  289.64        2952.75           1259          54.00       209.24
  289.67        2953.00           1262          59.00       231.04
  289.70        2953.25           1266          51.00       196.17
  289.73        2953.50           1269          51.00       196.17
  289.77        2953.75           1272          64.00       252.84
  289.80        2954.00           1276          58.00       226.68
  289.83        2954.25           1279          57.00       222.32
  289.86        2954.50           1282          49.00       187.45
  289.89        2954.75           1286          49.00       187.45
  289.92        2955.00           1289          48.00       183.09
  289.95        2955.25           1292          51.00       196.17
  289.98        2955.50           1296          52.00       200.52
  290.01        2955.75           1299          54.00       209.24
  290.04        2956.00           1302          53.00       204.88
  290.07        2956.25           1306          63.00       248.48
  290.11        2956.50           1309          57.00       222.32
  290.14        2956.75           1312          58.00       226.68
  290.17        2957.00           1316          56.00       217.96
  290.20        2957.25           1319          56.00       217.96
  290.23        2957.50           1322          57.00       222.32
  290.26        2957.75           1326          58.00       226.68
  290.29        2958.00           1329          57.00       222.32
  290.32        2958.25           1332          52.00       200.52
  290.35        2958.50           1336          55.00       213.60
  290.38        2958.75           1339          47.00       178.73
  290.42        2959.00           1342          50.00       191.81
  290.45        2959.25           1346          56.00       217.96
  290.48        2959.50           1349          61.00       239.76
  290.51        2959.75           1352          70.00       278.99
  290.54        2960.00           1356          99.00       405.41
  290.57        2960.25           1359         112.00       462.08
  290.60        2960.50           1362         141.00       588.50
  290.63        2960.75           1366         166.00       697.49
  290.66        2961.00           1369         205.00       867.50
  290.69        2961.25           1372         246.00      1046.24
  290.72        2961.50           1376         312.00      1333.97
  290.76        2961.75           1379         403.00      1730.69
  290.79        2962.00           1382         847.00      3666.49
  290.82        2962.25           1386        2100.00      9130.66
  290.85        2962.50           1389        3232.00     14068.71
  290.88        2962.75           1392        4612.00     20090.57
  290.91        2963.00           1396        6220.00     27110.10
  290.94        2963.25           1399        7456.00     32507.71
  290.97        2963.50           1402        8676.00     37837.17
  291.00        2963.75           1406       10258.00     44750.54
  291.03        2964.00           1409       11604.00     50634.84
  291.06        2964.25           1412       12786.00     55803.89
  291.10        2964.50           1416       14539.00     63472.98
  291.13        2964.75           1419       15711.00     68602.25
  291.16        2965.00           1422       16773.00     73251.47
  291.19        2965.25           1426       18618.00     81331.60
  291.22        2965.50           1429       19868.00     86808.16
  291.25        2965.75           1432       21155.00     92448.72
  291.28        2966.00           1436       22840.00     99836.50
  291.31        2966.25           1439       23900.00    104485.70
  291.34        2966.50           1442       25160.00    110013.80
  291.38        2966.75           1446       26214.00    114639.50
  291.41        2967.00           1449       26440.00    115631.50
  291.44        2967.25           1452       26487.00    115837.80
  291.47        2967.50           1456       26579.00    116241.60
  291.50        2967.75           1459       26666.00    116623.50
  291.53        2968.00           1462       26513.00    115951.90
  291.56        2968.25           1466       25813.00    112879.40
  291.59        2968.50           1469       24663.00    107833.00
  291.62        2968.75           1472       23631.00    103305.70
  291.66        2969.00           1476       22022.00     96249.62
  291.69        2969.25           1479       20579.00     89924.05
  291.72        2969.50           1482       19526.00     85309.59
  291.75        2969.75           1486       17822.00     77845.05
  291.78        2970.00           1489       16563.00     72332.03
  291.81        2970.25           1492       15596.00     68098.88
  291.84        2970.50           1496       13838.00     60405.79
  291.87        2970.75           1499       12678.00     55331.53
  291.90        2971.00           1502       11595.00     50595.48
  291.94        2971.25           1506       10087.00     44003.13
  291.97        2971.50           1509        8763.00     38217.29
  292.00        2971.75           1513        7094.00     30926.68
  292.03        2972.00           1516        5820.00     25363.67
  292.06        2972.25           1519        4696.00     20457.19
  292.09        2972.50           1523        3027.00     13174.34
  292.12        2972.75           1526        1874.00      8144.97
  292.15        2973.00           1529         954.00      4133.03
  292.18        2973.25           1533         390.00      1674.02
  292.21        2973.50           1536         270.00      1150.87
  292.25        2973.75           1539         244.00      1037.52
  292.28        2974.00           1543         203.00       858.78
  292.31        2974.25           1546         146.00       610.30
  292.34        2974.50           1549         108.00       444.64
  292.37        2974.75           1553          86.00       348.74
  292.40        2975.00           1556          68.00       270.27
  292.43        2975.25           1559          48.00       183.09
  292.46        2975.50           1563          51.00       196.17
  292.49        2975.75           1566          58.00       226.68
  292.52        2976.00           1569          54.00       209.24
  292.56        2976.25           1573          49.00       187.45
  292.59        2976.50           1576          56.00       217.96
  292.62        2976.75           1579          63.00       248.48
  292.65        2977.00           1583          47.00       178.73
  292.68        2977.25           1586          49.00       187.45
  292.71        2977.50           1590          57.00       222.32
  292.74        2977.75           1593          65.00       257.19
  292.77        2978.00           1596          54.00       209.24
  292.80        2978.25           1600          44.00       165.65
  292.83        2978.50           1603          52.00       200.52
  292.86        2978.75           1606          65.00       257.19
  292.89        2979.00           1610          53.00       204.88
  292.92        2979.25           1613          45.00       170.01
  292.96        2979.50           1616          53.00       204.88
  292.99        2979.75           1620          41.00       152.57
  293.02        2980.00           1623          53.00       204.88
  293.05        2980.25           1626          53.00       204.88
  293.08        2980.50           1630          49.00       187.45
  293.11        2980.75           1633          55.00       213.60
  293.14        2981.00           1637          51.00       196.17
  293.17        2981.25           1640          54.00       209.24
  293.20        2981.50           1643          44.00       165.65
  293.23        2981.75           1647          48.00       183.09
  293.26        2982.00           1650          76.00       305.15
  293.29        2982.25           1653          43.00       161.29
  293.33        2982.50           1657          57.00       222.32
  293.36        2982.75           1660          52.00       200.52
  293.39        2983.00           1663          51.00       196.17
  293.42        2983.25           1667          49.00       187.45
  293.45        2983.50           1670          53.00       204.88
  293.48        2983.75           1673          52.00       200.52
  293.51        2984.00           1677          53.00       204.88
HS scan finished at 04:53:44
end
************************************************************
  HS Scan of (1) Internal mercury lamp
************************************************************
Integration time is 0.2294 seconds per sample
dh120219Manchester 53.47 2.23 2.804185pr1000
************************************************************
Dead Time -------------------------  3E-08 
Number of Cycles Used -------------  4 
Starting Wavelength (Angstroms) ---  2950 
Final Wavelength (Angstoms) -------  2984 
Wavelength Increment (Angstroms) --  .25 
Filter Wheel #1 Position ---------- (1) Ground quartz diffuser (ND=2.32)
Filter Wheel #2 Position ---------- (1) Neutral Density 0.494



************************************************************
HS scan start time = 18:12:07
Dark Count =  7 


Time (GMT)  Wavelength (Ang)  Step Number  Raw Counts  Counts/Second

 1092.49        2950.00           1222          53.00       200.52
 1092.55        2950.25           1226          59.00       226.68
 1092.58        2950.50           1229          58.00       222.32
 1092.61        2950.75           1232          50.00       187.45
 1092.65        2951.00           1236          52.00       196.17
 1092.68        2951.25           1239          54.00       204.88
 1092.71        2951.50           1242          51.00       191.81
 1092.74        2951.75           1246          50.00       187.45
 1092.77        2952.00           1249          52.00       196.17
 1092.80        2952.25           1252          53.00       200.52
 1092.83        2952.50           1256          58.00       222.32
 1092.86        2952.75           1259          52.00       196.17
 1092.89        2953.00           1262          59.00       226.68
 1092.92        2953.25           1266          54.00       204.88
 1092.95        2953.50           1269          60.00       231.04
 1092.98        2953.75           1272          53.00       200.52
 1093.01        2954.00           1276          77.00       305.15
 1093.05        2954.25           1279          61.00       235.40
 1093.08        2954.50           1282          51.00       191.81
 1093.11        2954.75           1286          54.00       204.88
 1093.14        2955.00           1289          53.00       200.52
 1093.17        2955.25           1292          58.00       222.32
 1093.20        2955.50           1296          57.00       217.96
 1093.23        2955.75           1299          54.00       204.88
 1093.26        2956.00           1302          57.00       217.96
 1093.29        2956.25           1306          51.00       191.81
 1093.32        2956.50           1309          60.00       231.04
 1093.35        2956.75           1312          49.00       183.09
 1093.39        2957.00           1316          54.00       204.88
 1093.42        2957.25           1319          54.00       204.88
 1093.45        2957.50           1322          59.00       226.68
 1093.48        2957.75           1326          56.00       213.60
 1093.51        2958.00           1329          56.00       213.60
 1093.54        2958.25           1332          55.00       209.24
 1093.57        2958.50           1336          49.00       183.09
 1093.60        2958.75           1339          53.00       200.52
 1093.63        2959.00           1342          52.00       196.17
 1093.66        2959.25           1346          57.00       217.96
 1093.69        2959.50           1349          69.00       270.27
 1093.73        2959.75           1352          93.00       374.90
 1093.76        2960.00           1356         106.00       431.57
 1093.79        2960.25           1359         130.00       536.19
 1093.82        2960.50           1362         161.00       671.33
 1093.85        2960.75           1366         210.00       884.94
 1093.88        2961.00           1369         239.00      1011.36
 1093.91        2961.25           1372         263.00      1115.99
 1093.94        2961.50           1376         346.00      1477.83
 1093.97        2961.75           1379         405.00      1735.05
 1094.00        2962.00           1382         859.00      3714.45
 1094.03        2962.25           1386        2157.00      9374.91
 1094.06        2962.50           1389        3305.00     14382.84
 1094.10        2962.75           1392        4408.00     19195.88
 1094.13        2963.00           1396        6123.00     26682.20
 1094.16        2963.25           1399        7283.00     31747.75
 1094.19        2963.50           1402        8582.00     37422.11
 1094.22        2963.75           1406       10282.00     44851.07
 1094.25        2964.00           1409       11542.00     50359.37
 1094.28        2964.25           1412       12710.00     55467.11
 1094.31        2964.50           1416       14458.00     63114.16
 1094.34        2964.75           1419       15743.00     68737.94
 1094.37        2965.00           1422       16957.00     74052.75
 1094.40        2965.25           1426       18519.00     80893.55
 1094.44        2965.50           1429       19903.00     86957.15
 1094.47        2965.75           1432       21056.00     92010.38
 1094.50        2966.00           1436       22487.00     98284.14
 1094.53        2966.25           1439       23619.00    103248.70
 1094.56        2966.50           1442       24888.00    108815.90
 1094.59        2966.75           1446       26147.00    114341.00
 1094.62        2967.00           1449       26286.00    114951.10
 1094.65        2967.25           1452       26614.00    116390.90
 1094.68        2967.50           1456       26455.00    115692.90
 1094.71        2967.75           1459       26454.00    115688.50
 1094.75        2968.00           1462       26340.00    115188.10
 1094.78        2968.25           1466       25510.00    111545.30
 1094.81        2968.50           1469       24498.00    107104.70
 1094.84        2968.75           1472       23291.00    101810.10
 1094.87        2969.00           1476       21557.00     94206.59
 1094.90        2969.25           1479       20600.00     90011.71
 1094.93        2969.50           1482       19483.00     85116.81
 1094.96        2969.75           1486       17811.00     77792.50
 1094.99        2970.00           1489       16730.00     73058.82
 1095.02        2970.25           1492       15366.00     67087.81
 1095.05        2970.50           1496       13717.00     59872.05
 1095.09        2970.75           1499       12345.00     53870.78
 1095.12        2971.00           1502       11171.00     48737.30
 1095.15        2971.25           1506        9570.00     41739.25
 1095.18        2971.50           1509        8327.00     36308.06
 1095.21        2971.75           1513        6993.00     30481.22
 1095.24        2972.00           1516        5714.00     24896.53
 1095.27        2972.25           1519        4472.00     19475.20
 1095.30        2972.50           1523        2932.00     12755.54
 1095.33        2972.75           1526        1721.00      7473.34
 1095.36        2973.00           1529         801.00      3461.56
 1095.40        2973.25           1533         342.00      1460.40
 1095.43        2973.50           1536         259.00      1098.55
 1095.46        2973.75           1539         232.00       980.85
 1095.49        2974.00           1543         189.00       793.39
 1095.52        2974.25           1546         136.00       562.35
 1095.55        2974.50           1549         115.00       470.80
 1095.58        2974.75           1553          74.00       292.07
 1095.61        2975.00           1556          59.00       226.68
 1095.64        2975.25           1559          54.00       204.88
 1095.67        2975.50           1563          53.00       200.52
 1095.70        2975.75           1566          55.00       209.24
 1095.73        2976.00           1569          50.00       187.45
 1095.77        2976.25           1573          46.00       170.01
 1095.80        2976.50           1576          54.00       204.88
 1095.83        2976.75           1579          46.00       170.01
 1095.86        2977.00           1583          52.00       196.17
 1095.89        2977.25           1586          60.00       231.04
 1095.92        2977.50           1590          51.00       191.81
 1095.95        2977.75           1593          52.00       196.17
 1095.98        2978.00           1596          52.00       196.17
 1096.01        2978.25           1600          53.00       200.52
 1096.04        2978.50           1603          44.00       161.29
 1096.07        2978.75           1606          59.00       226.68
 1096.10        2979.00           1610          49.00       183.09
 1096.13        2979.25           1613          53.00       200.52
 1096.17        2979.50           1616          48.00       178.73
 1096.20        2979.75           1620          55.00       209.24
 1096.23        2980.00           1623          54.00       204.88
 1096.26        2980.25           1626          50.00       187.45
 1096.29        2980.50           1630          52.00       196.17
 1096.32        2980.75           1633          57.00       217.96
 1096.35        2981.00           1637          50.00       187.45
 1096.38        2981.25           1640          51.00       191.81
 1096.41        2981.50           1643          52.00       196.17
 1096.44        2981.75           1647          48.00       178.73
 1096.48        2982.00           1650          48.00       178.73
 1096.51        2982.25           1653          47.00       174.37
 1096.54        2982.50           1657          48.00       178.73
 1096.57        2982.75           1660          43.00       156.93
 1096.60        2983.00           1663          42.00       152.57
 1096.63        2983.25           1667          47.00       174.37
 1096.66        2983.50           1670          50.00       187.45
 1096.69        2983.75           1673          51.00       191.81
 1096.72        2984.00           1677          46.00       170.01
HS scan finished at 18:16:56
end
