************************************************************
  HS Scan of (1) Internal mercury lamp
************************************************************
Integration time is 0.2294 seconds per sample
dh120217Manchester 53.47 2.23 2.696889pr1000
************************************************************
Dead Time -------------------------  3E-08 
Number of Cycles Used -------------  4 
Starting Wavelength (Angstroms) ---  2950 
Final Wavelength (Angstoms) -------  2984 
Wavelength Increment (Angstroms) --  .25 
Filter Wheel #1 Position ---------- (1) Ground quartz diffuser (ND=2.32)
Filter Wheel #2 Position ---------- (1) Neutral Density 0.494



************************************************************
HS scan start time = 04:46:37
Dark Count =  6.9 


Time (GMT)  Wavelength (Ang)  Step Number  Raw Counts  Counts/Second

  286.99        2950.00           1222          48.00       179.16
  287.06        2950.25           1226          45.00       166.09
  287.09        2950.50           1229          48.00       179.16
  287.12        2950.75           1232          45.00       166.09
  287.15        2951.00           1236          40.00       144.29
  287.18        2951.25           1239          44.00       161.73
  287.21        2951.50           1242          40.00       144.29
  287.24        2951.75           1246          40.00       144.29
  287.27        2952.00           1249          44.00       161.73
  287.31        2952.25           1252          51.00       192.24
  287.34        2952.50           1256          42.00       153.01
  287.37        2952.75           1259          39.00       139.93
  287.40        2953.00           1262          38.00       135.57
  287.43        2953.25           1266          48.00       179.16
  287.46        2953.50           1269          43.00       157.37
  287.49        2953.75           1272          59.00       227.12
  287.52        2954.00           1276          45.00       166.09
  287.55        2954.25           1279          43.00       157.37
  287.58        2954.50           1282          42.00       153.01
  287.62        2954.75           1286          44.00       161.73
  287.65        2955.00           1289          49.00       183.52
  287.68        2955.25           1292          46.00       170.45
  287.71        2955.50           1296          39.00       139.93
  287.74        2955.75           1299          52.00       196.60
  287.77        2956.00           1302          44.00       161.73
  287.80        2956.25           1306          42.00       153.01
  287.83        2956.50           1309          45.00       166.09
  287.86        2956.75           1312          43.00       157.37
  287.89        2957.00           1316          46.00       170.45
  287.92        2957.25           1319          43.00       157.37
  287.95        2957.50           1322          45.00       166.09
  287.98        2957.75           1326          42.00       153.01
  288.01        2958.00           1329          46.00       170.45
  288.04        2958.25           1332          43.00       157.37
  288.08        2958.50           1336          46.00       170.45
  288.11        2958.75           1339          45.00       166.09
  288.14        2959.00           1342          50.00       187.88
  288.17        2959.25           1346          51.00       192.24
  288.20        2959.50           1349          54.00       205.32
  288.23        2959.75           1352          64.00       248.91
  288.26        2960.00           1356          96.00       388.41
  288.29        2960.25           1359         118.00       484.31
  288.32        2960.50           1362         156.00       649.97
  288.35        2960.75           1366         223.00       942.05
  288.38        2961.00           1369         266.00      1129.51
  288.42        2961.25           1372         309.00      1316.97
  288.45        2961.50           1376         496.00      2132.22
  288.48        2961.75           1379         919.00      3976.50
  288.51        2962.00           1382        1979.00      8598.99
  288.54        2962.25           1386        3872.00     16857.26
  288.57        2962.50           1389        5436.00     23683.34
  288.60        2962.75           1392        7062.00     30782.99
  288.63        2963.00           1396        9171.00     39996.09
  288.66        2963.25           1399       10758.00     46932.21
  288.69        2963.50           1402       12408.00     54146.74
  288.72        2963.75           1406       14591.00     63696.58
  288.75        2964.00           1409       16421.00     71706.40
  288.78        2964.25           1412       17932.00     78322.88
  288.82        2964.50           1416       20171.00     88132.01
  288.85        2964.75           1419       21751.00     95057.52
  288.88        2965.00           1422       23609.00    103205.30
  288.91        2965.25           1426       25878.00    113160.80
  288.94        2965.50           1429       27448.00    120052.80
  288.97        2965.75           1432       29133.00    127452.80
  289.00        2966.00           1436       31179.00    136442.70
  289.03        2966.25           1439       32622.00    142786.00
  289.06        2966.50           1442       33896.00    148388.40
  289.10        2966.75           1446       35043.00    153433.90
  289.13        2967.00           1449       35042.00    153429.60
  289.16        2967.25           1452       35178.00    154027.90
  289.19        2967.50           1456       35190.00    154080.70
  289.22        2967.75           1459       35031.00    153381.20
  289.25        2968.00           1462       34632.00    151625.80
  289.28        2968.25           1466       33032.00    144588.80
  289.31        2968.50           1469       31621.00    138385.40
  289.34        2968.75           1472       30216.00    132210.80
  289.38        2969.00           1476       28213.00    123412.10
  289.41        2969.25           1479       26556.00    116136.70
  289.44        2969.50           1482       24950.00    109088.30
  289.47        2969.75           1486       22985.00    100468.40
  289.50        2970.00           1489       21432.00     93659.04
  289.53        2970.25           1492       19778.00     86409.85
  289.56        2970.50           1496       17629.00     76995.86
  289.59        2970.75           1499       15885.00     69359.96
  289.62        2971.00           1502       14288.00     62370.74
  289.66        2971.25           1506       11951.00     52148.22
  289.69        2971.50           1509       10277.00     44829.65
  289.72        2971.75           1513        8254.00     35989.58
  289.75        2972.00           1516        6600.00     28765.44
  289.78        2972.25           1519        5148.00     22426.16
  289.81        2972.50           1523        3054.00     13288.21
  289.84        2972.75           1526        1714.00      7443.25
  289.87        2973.00           1529         854.00      3693.09
  289.90        2973.25           1533         435.00      1866.28
  289.93        2973.50           1536         328.00      1399.80
  289.96        2973.75           1539         293.00      1247.21
  290.00        2974.00           1543         231.00       976.92
  290.03        2974.25           1546         175.00       732.80
  290.06        2974.50           1549         141.00       584.58
  290.09        2974.75           1553          97.00       392.77
  290.12        2975.00           1556          76.00       301.22
  290.15        2975.25           1559          61.00       235.83
  290.18        2975.50           1563          47.00       174.80
  290.21        2975.75           1566          46.00       170.45
  290.24        2976.00           1569          52.00       196.60
  290.27        2976.25           1573          43.00       157.37
  290.30        2976.50           1576          54.00       205.32
  290.33        2976.75           1579          40.00       144.29
  290.36        2977.00           1583          45.00       166.09
  290.39        2977.25           1586          44.00       161.73
  290.42        2977.50           1590          35.00       122.49
  290.45        2977.75           1593          44.00       161.73
  290.48        2978.00           1596          50.00       187.88
  290.52        2978.25           1600          41.00       148.65
  290.55        2978.50           1603          49.00       183.52
  290.58        2978.75           1606          43.00       157.37
  290.61        2979.00           1610          53.00       200.96
  290.64        2979.25           1613          44.00       161.73
  290.67        2979.50           1616          46.00       170.45
  290.70        2979.75           1620          50.00       187.88
  290.73        2980.00           1623          45.00       166.09
  290.76        2980.25           1626          51.00       192.24
  290.79        2980.50           1630          43.00       157.37
  290.82        2980.75           1633          47.00       174.80
  290.85        2981.00           1637          42.00       153.01
  290.88        2981.25           1640          53.00       200.96
  290.92        2981.50           1643          39.00       139.93
  290.95        2981.75           1647          45.00       166.09
  290.98        2982.00           1650          44.00       161.73
  291.01        2982.25           1653          51.00       192.24
  291.04        2982.50           1657          43.00       157.37
  291.07        2982.75           1660          41.00       148.65
  291.10        2983.00           1663          44.00       161.73
  291.13        2983.25           1667          43.00       157.37
  291.16        2983.50           1670          41.00       148.65
  291.19        2983.75           1673          38.00       135.57
  291.22        2984.00           1677          39.00       139.93
HS scan finished at 04:51:26
end
************************************************************
  HS Scan of (1) Internal mercury lamp
************************************************************
Integration time is 0.2294 seconds per sample
dh120217Manchester 53.47 2.23 2.750537pr1000
************************************************************
Dead Time -------------------------  3E-08 
Number of Cycles Used -------------  4 
Starting Wavelength (Angstroms) ---  2950 
Final Wavelength (Angstoms) -------  2984 
Wavelength Increment (Angstroms) --  .25 
Filter Wheel #1 Position ---------- (1) Ground quartz diffuser (ND=2.32)
Filter Wheel #2 Position ---------- (1) Neutral Density 0.494



************************************************************
HS scan start time = 18:12:00
Dark Count =  7.6 


Time (GMT)  Wavelength (Ang)  Step Number  Raw Counts  Counts/Second

 1092.37        2950.00           1222          48.00       176.11
 1092.44        2950.25           1226          48.00       176.11
 1092.47        2950.50           1229          50.00       184.83
 1092.50        2950.75           1232          47.00       171.75
 1092.53        2951.00           1236          42.00       149.96
 1092.56        2951.25           1239          44.00       158.68
 1092.59        2951.50           1242          43.00       154.32
 1092.62        2951.75           1246          42.00       149.96
 1092.65        2952.00           1249          46.00       167.39
 1092.68        2952.25           1252          41.00       145.60
 1092.71        2952.50           1256          45.00       163.03
 1092.74        2952.75           1259          45.00       163.03
 1092.77        2953.00           1262          47.00       171.75
 1092.81        2953.25           1266          47.00       171.75
 1092.84        2953.50           1269          42.00       149.96
 1092.87        2953.75           1272          42.00       149.96
 1092.90        2954.00           1276          37.00       128.16
 1092.93        2954.25           1279          48.00       176.11
 1092.96        2954.50           1282          44.00       158.68
 1092.99        2954.75           1286          46.00       167.39
 1093.02        2955.00           1289          44.00       158.68
 1093.05        2955.25           1292          67.00       258.94
 1093.08        2955.50           1296          50.00       184.83
 1093.11        2955.75           1299          69.00       267.66
 1093.14        2956.00           1302          46.00       167.39
 1093.17        2956.25           1306          44.00       158.68
 1093.20        2956.50           1309          41.00       145.60
 1093.24        2956.75           1312          45.00       163.03
 1093.27        2957.00           1316          45.00       163.03
 1093.30        2957.25           1319          45.00       163.03
 1093.33        2957.50           1322          42.00       149.96
 1093.36        2957.75           1326          47.00       171.75
 1093.39        2958.00           1329          40.00       141.24
 1093.42        2958.25           1332          41.00       145.60
 1093.45        2958.50           1336          53.00       197.91
 1093.48        2958.75           1339          51.00       189.19
 1093.51        2959.00           1342          45.00       163.03
 1093.54        2959.25           1346          41.00       145.60
 1093.57        2959.50           1349          55.00       206.63
 1093.60        2959.75           1352          67.00       258.94
 1093.63        2960.00           1356          90.00       359.20
 1093.66        2960.25           1359         122.00       498.70
 1093.70        2960.50           1362         151.00       625.12
 1093.73        2960.75           1366         207.00       869.25
 1093.76        2961.00           1369         261.00      1104.66
 1093.79        2961.25           1372         303.00      1287.76
 1093.82        2961.50           1376         429.00      1837.07
 1093.85        2961.75           1379         684.00      2948.82
 1093.88        2962.00           1382        1469.00      6371.75
 1093.91        2962.25           1386        3337.00     14519.84
 1093.94        2962.50           1389        4886.00     21279.49
 1093.98        2962.75           1392        6529.00     28452.35
 1094.01        2963.00           1396        8555.00     37301.53
 1094.04        2963.25           1399       10052.00     43843.16
 1094.07        2963.50           1402       11695.00     51025.74
 1094.10        2963.75           1406       13863.00     60508.17
 1094.13        2964.00           1409       15422.00     67330.28
 1094.16        2964.25           1412       17124.00     74781.36
 1094.19        2964.50           1416       19297.00     84299.22
 1094.22        2964.75           1419       20887.00     91266.99
 1094.26        2965.00           1422       22714.00     99276.93
 1094.29        2965.25           1426       24822.00    108523.60
 1094.32        2965.50           1429       26548.00    116098.50
 1094.35        2965.75           1432       28060.00    122737.10
 1094.38        2966.00           1436       30354.00    132814.10
 1094.41        2966.25           1439       31547.00    138057.10
 1094.44        2966.50           1442       33253.00    145557.50
 1094.47        2966.75           1446       34705.00    151943.90
 1094.50        2967.00           1449       34986.00    153180.10
 1094.53        2967.25           1452       35106.00    153708.00
 1094.57        2967.50           1456       35000.00    153241.70
 1094.60        2967.75           1459       35015.00    153307.70
 1094.63        2968.00           1462       34859.00    152621.30
 1094.66        2968.25           1466       33665.00    147369.40
 1094.69        2968.50           1469       32024.00    140153.90
 1094.72        2968.75           1472       30575.00    133785.20
 1094.75        2969.00           1476       28506.00    124695.80
 1094.78        2969.25           1479       27097.00    118508.70
 1094.81        2969.50           1482       25624.00    112042.90
 1094.84        2969.75           1486       23437.00    102447.80
 1094.88        2970.00           1489       21842.00     95453.42
 1094.91        2970.25           1492       20253.00     88488.30
 1094.94        2970.50           1496       17929.00     78306.68
 1094.97        2970.75           1499       16362.00     71445.04
 1095.00        2971.00           1502       14523.00     63395.96
 1095.03        2971.25           1506       12704.00     55438.25
 1095.06        2971.50           1509       10867.00     47405.65
 1095.09        2971.75           1513        8701.00     37939.41
 1095.13        2972.00           1516        7192.00     31347.69
 1095.16        2972.25           1519        5587.00     24339.47
 1095.19        2972.50           1523        3447.00     14999.78
 1095.22        2972.75           1526        2047.00      8892.52
 1095.25        2973.00           1529         949.00      4104.25
 1095.28        2973.25           1533         462.00      1980.94
 1095.31        2973.50           1536         330.00      1405.46
 1095.34        2973.75           1539         281.00      1191.85
 1095.37        2974.00           1543         237.00      1000.03
 1095.40        2974.25           1546         179.00       747.18
 1095.43        2974.50           1549         143.00       590.25
 1095.46        2974.75           1553         104.00       420.23
 1095.49        2975.00           1556          77.00       302.53
 1095.53        2975.25           1559          51.00       189.19
 1095.56        2975.50           1563          50.00       184.83
 1095.59        2975.75           1566          49.00       180.47
 1095.62        2976.00           1569          52.00       193.55
 1095.65        2976.25           1573          49.00       180.47
 1095.68        2976.50           1576          42.00       149.96
 1095.71        2976.75           1579          43.00       154.32
 1095.74        2977.00           1583          41.00       145.60
 1095.77        2977.25           1586          48.00       176.11
 1095.80        2977.50           1590          41.00       145.60
 1095.83        2977.75           1593          44.00       158.68
 1095.86        2978.00           1596          44.00       158.68
 1095.89        2978.25           1600          47.00       171.75
 1095.93        2978.50           1603          43.00       154.32
 1095.96        2978.75           1606          46.00       167.39
 1095.99        2979.00           1610          44.00       158.68
 1096.02        2979.25           1613          44.00       158.68
 1096.05        2979.50           1616          43.00       154.32
 1096.08        2979.75           1620          41.00       145.60
 1096.11        2980.00           1623          46.00       167.39
 1096.14        2980.25           1626          43.00       154.32
 1096.17        2980.50           1630          41.00       145.60
 1096.20        2980.75           1633          44.00       158.68
 1096.23        2981.00           1637          52.00       193.55
 1096.26        2981.25           1640          43.00       154.32
 1096.29        2981.50           1643          50.00       184.83
 1096.33        2981.75           1647          43.00       154.32
 1096.36        2982.00           1650          41.00       145.60
 1096.39        2982.25           1653          41.00       145.60
 1096.42        2982.50           1657          48.00       176.11
 1096.45        2982.75           1660          37.00       128.16
 1096.48        2983.00           1663          40.00       141.24
 1096.51        2983.25           1667          38.00       132.52
 1096.54        2983.50           1670          48.00       176.11
 1096.57        2983.75           1673          47.00       171.75
 1096.60        2984.00           1677          51.00       189.19
HS scan finished at 18:16:49
end
