************************************************************
  HS Scan of (1) Internal mercury lamp
************************************************************
Integration time is 0.2294 seconds per sample
dh180217Manchester 53.47 2.23 2.804185pr1000
************************************************************
Dead Time -------------------------  3E-08 
Number of Cycles Used -------------  4 
Starting Wavelength (Angstroms) ---  2950 
Final Wavelength (Angstoms) -------  2984 
Wavelength Increment (Angstroms) --  .25 
Filter Wheel #1 Position ---------- (1) Ground quartz diffuser (ND=2.32)
Filter Wheel #2 Position ---------- (1) Neutral Density 0.494



************************************************************
HS scan start time = 04:34:08
Dark Count =  7.9 


Time (GMT)  Wavelength (Ang)  Step Number  Raw Counts  Counts/Second

  274.50        2950.00           1222          46.00       166.09
  274.56        2950.25           1226          46.00       166.09
  274.59        2950.50           1229          42.00       148.65
  274.63        2950.75           1232          47.00       170.45
  274.66        2951.00           1236          48.00       174.80
  274.69        2951.25           1239          46.00       166.09
  274.72        2951.50           1242          40.00       139.93
  274.75        2951.75           1246          43.00       153.01
  274.78        2952.00           1249          47.00       170.45
  274.81        2952.25           1252          44.00       157.37
  274.84        2952.50           1256          46.00       166.09
  274.87        2952.75           1259          40.00       139.93
  274.90        2953.00           1262          45.00       161.73
  274.93        2953.25           1266          45.00       161.73
  274.96        2953.50           1269          51.00       187.88
  275.00        2953.75           1272          48.00       174.80
  275.03        2954.00           1276          44.00       157.37
  275.06        2954.25           1279          49.00       179.16
  275.09        2954.50           1282          44.00       157.37
  275.12        2954.75           1286          52.00       192.24
  275.15        2955.00           1289          41.00       144.29
  275.18        2955.25           1292          45.00       161.73
  275.21        2955.50           1296          43.00       153.01
  275.24        2955.75           1299          45.00       161.73
  275.28        2956.00           1302          39.00       135.57
  275.31        2956.25           1306          47.00       170.45
  275.34        2956.50           1309          45.00       161.73
  275.37        2956.75           1312          47.00       170.45
  275.40        2957.00           1316          46.00       166.09
  275.43        2957.25           1319          45.00       161.73
  275.46        2957.50           1322          48.00       174.80
  275.49        2957.75           1326          45.00       161.73
  275.52        2958.00           1329          47.00       170.45
  275.55        2958.25           1332          41.00       144.29
  275.58        2958.50           1336          42.00       148.65
  275.61        2958.75           1339          42.00       148.65
  275.64        2959.00           1342          45.00       161.73
  275.68        2959.25           1346          45.00       161.73
  275.71        2959.50           1349          57.00       214.04
  275.74        2959.75           1352          65.00       248.91
  275.77        2960.00           1356         105.00       423.28
  275.80        2960.25           1359         127.00       519.19
  275.83        2960.50           1362         168.00       697.92
  275.86        2960.75           1366         218.00       915.89
  275.89        2961.00           1369         276.00      1168.74
  275.93        2961.25           1372         324.00      1378.00
  275.96        2961.50           1376         376.00      1604.70
  275.99        2961.75           1379         495.00      2123.50
  276.02        2962.00           1382         917.00      3963.42
  276.05        2962.25           1386        2329.00     10121.21
  276.08        2962.50           1389        3810.00     16582.35
  276.11        2962.75           1392        5505.00     23980.19
  276.14        2963.00           1396        7735.00     33718.05
  276.17        2963.25           1399        9347.00     40760.80
  276.20        2963.50           1402       10860.00     47373.73
  276.23        2963.75           1406       13123.00     57269.63
  276.26        2964.00           1409       15001.00     65486.42
  276.29        2964.25           1412       16587.00     72428.78
  276.32        2964.50           1416       18870.00     82427.20
  276.36        2964.75           1419       20652.00     90235.66
  276.39        2965.00           1422       22283.00     97385.68
  276.42        2965.25           1426       24427.00    106789.30
  276.45        2965.50           1429       26082.00    114051.70
  276.48        2965.75           1432       27861.00    121861.90
  276.51        2966.00           1436       30007.00    131288.10
  276.54        2966.25           1439       31584.00    138218.40
  276.57        2966.50           1442       33011.00    144492.10
  276.60        2966.75           1446       34812.00    152413.30
  276.64        2967.00           1449       35775.00    156650.30
  276.67        2967.25           1452       35912.00    157253.20
  276.70        2967.50           1456       35848.00    156971.60
  276.73        2967.75           1459       35974.00    157526.10
  276.76        2968.00           1462       35644.00    156073.90
  276.79        2968.25           1466       34895.00    152778.40
  276.82        2968.50           1469       33542.00    146827.10
  276.85        2968.75           1472       31979.00    139954.80
  276.88        2969.00           1476       30035.00    131411.10
  276.91        2969.25           1479       28338.00    123956.60
  276.94        2969.50           1482       26785.00    117137.60
  276.98        2969.75           1486       24737.00    108149.40
  277.01        2970.00           1489       23002.00    100538.60
  277.04        2970.25           1492       21395.00     93492.46
  277.07        2970.50           1496       19083.00     83360.35
  277.10        2970.75           1499       17210.00     75156.63
  277.13        2971.00           1502       15757.00     68795.28
  277.16        2971.25           1506       13571.00     59229.39
  277.19        2971.50           1509       11817.00     51557.89
  277.22        2971.75           1513        9770.00     42609.36
  277.26        2972.00           1516        8160.00     35574.56
  277.29        2972.25           1519        6393.00     27857.19
  277.32        2972.50           1523        4243.00     18471.88
  277.35        2972.75           1526        2752.00     11966.37
  277.38        2973.00           1529        1388.00      6017.22
  277.41        2973.25           1533         515.00      2210.70
  277.44        2973.50           1536         344.00      1465.19
  277.47        2973.75           1539         264.00      1116.43
  277.50        2974.00           1543         238.00      1003.08
  277.53        2974.25           1546         187.00       780.75
  277.57        2974.50           1549         129.00       527.91
  277.60        2974.75           1553          86.00       340.46
  277.63        2975.00           1556          74.00       288.15
  277.66        2975.25           1559          57.00       214.04
  277.69        2975.50           1563          51.00       187.88
  277.72        2975.75           1566          41.00       144.29
  277.75        2976.00           1569          43.00       153.01
  277.78        2976.25           1573          50.00       183.52
  277.81        2976.50           1576          46.00       166.09
  277.84        2976.75           1579          44.00       157.37
  277.87        2977.00           1583          42.00       148.65
  277.90        2977.25           1586          44.00       157.37
  277.93        2977.50           1590          51.00       187.88
  277.97        2977.75           1593          45.00       161.73
  278.00        2978.00           1596          42.00       148.65
  278.03        2978.25           1600          41.00       144.29
  278.06        2978.50           1603          45.00       161.73
  278.09        2978.75           1606          46.00       166.09
  278.12        2979.00           1610          45.00       161.73
  278.15        2979.25           1613          41.00       144.29
  278.18        2979.50           1616          41.00       144.29
  278.21        2979.75           1620          44.00       157.37
  278.24        2980.00           1623          45.00       161.73
  278.27        2980.25           1626          43.00       153.01
  278.30        2980.50           1630          45.00       161.73
  278.34        2980.75           1633          49.00       179.16
  278.37        2981.00           1637          48.00       174.80
  278.40        2981.25           1640          45.00       161.73
  278.43        2981.50           1643          45.00       161.73
  278.46        2981.75           1647          40.00       139.93
  278.49        2982.00           1650          48.00       174.80
  278.52        2982.25           1653          50.00       183.52
  278.55        2982.50           1657          48.00       174.80
  278.58        2982.75           1660          40.00       139.93
  278.61        2983.00           1663          45.00       161.73
  278.64        2983.25           1667          38.00       131.21
  278.67        2983.50           1670          41.00       144.29
  278.71        2983.75           1673          41.00       144.29
  278.74        2984.00           1677          39.00       135.57
HS scan finished at 04:38:57
end
************************************************************
  HS Scan of (1) Internal mercury lamp
************************************************************
Integration time is 0.2294 seconds per sample
dh180217Manchester 53.47 2.23 2.804185pr1000
************************************************************
Dead Time -------------------------  3E-08 
Number of Cycles Used -------------  4 
Starting Wavelength (Angstroms) ---  2950 
Final Wavelength (Angstoms) -------  2984 
Wavelength Increment (Angstroms) --  .25 
Filter Wheel #1 Position ---------- (1) Ground quartz diffuser (ND=2.32)
Filter Wheel #2 Position ---------- (1) Neutral Density 0.494



************************************************************
HS scan start time = 18:12:00
Dark Count =  9.7 


Time (GMT)  Wavelength (Ang)  Step Number  Raw Counts  Counts/Second

 1092.37        2950.00           1222          45.00       153.88
 1092.43        2950.25           1226          46.00       158.24
 1092.46        2950.50           1229          41.00       136.44
 1092.49        2950.75           1232          43.00       145.16
 1092.53        2951.00           1236          46.00       158.24
 1092.56        2951.25           1239          51.00       180.04
 1092.59        2951.50           1242          43.00       145.16
 1092.62        2951.75           1246          41.00       136.44
 1092.65        2952.00           1249          43.00       145.16
 1092.68        2952.25           1252          48.00       166.96
 1092.71        2952.50           1256          40.00       132.08
 1092.74        2952.75           1259          53.00       188.75
 1092.77        2953.00           1262          44.00       149.52
 1092.80        2953.25           1266          41.00       136.44
 1092.83        2953.50           1269          50.00       175.68
 1092.86        2953.75           1272          50.00       175.68
 1092.89        2954.00           1276          45.00       153.88
 1092.93        2954.25           1279          44.00       149.52
 1092.96        2954.50           1282          41.00       136.44
 1092.99        2954.75           1286          35.00       110.29
 1093.02        2955.00           1289          45.00       153.88
 1093.05        2955.25           1292          40.00       132.08
 1093.08        2955.50           1296          68.00       254.14
 1093.11        2955.75           1299          54.00       193.11
 1093.14        2956.00           1302          46.00       158.24
 1093.17        2956.25           1306          47.00       162.60
 1093.20        2956.50           1309          39.00       127.72
 1093.23        2956.75           1312          44.00       149.52
 1093.26        2957.00           1316          43.00       145.16
 1093.30        2957.25           1319          45.00       153.88
 1093.33        2957.50           1322          41.00       136.44
 1093.36        2957.75           1326          47.00       162.60
 1093.39        2958.00           1329          48.00       166.96
 1093.42        2958.25           1332          45.00       153.88
 1093.45        2958.50           1336          45.00       153.88
 1093.48        2958.75           1339          49.00       171.32
 1093.51        2959.00           1342          48.00       166.96
 1093.54        2959.25           1346          49.00       171.32
 1093.57        2959.50           1349          61.00       223.63
 1093.60        2959.75           1352          69.00       258.50
 1093.64        2960.00           1356          96.00       376.20
 1093.67        2960.25           1359         119.00       476.47
 1093.70        2960.50           1362         183.00       755.47
 1093.73        2960.75           1366         238.00       995.23
 1093.76        2961.00           1369         265.00      1112.94
 1093.79        2961.25           1372         309.00      1304.76
 1093.82        2961.50           1376         431.00      1836.63
 1093.85        2961.75           1379         641.00      2752.19
 1093.88        2962.00           1382        1178.00      5093.63
 1093.91        2962.25           1386        2890.00     12560.53
 1093.94        2962.50           1389        4336.00     18869.88
 1093.97        2962.75           1392        5876.00     25592.01
 1094.01        2963.00           1396        8031.00     35003.17
 1094.04        2963.25           1399        9728.00     42417.94
 1094.07        2963.50           1402       11510.00     50207.66
 1094.10        2963.75           1406       13565.00     59195.26
 1094.13        2964.00           1409       15499.00     67658.11
 1094.16        2964.25           1412       17308.00     75577.88
 1094.19        2964.50           1416       19584.00     85547.52
 1094.22        2964.75           1419       21164.00     92471.97
 1094.25        2965.00           1422       22897.00    100070.20
 1094.28        2965.25           1426       25115.00    109800.10
 1094.31        2965.50           1429       26774.00    117081.40
 1094.35        2965.75           1432       28464.00    124502.10
 1094.38        2966.00           1436       30657.00    134136.40
 1094.41        2966.25           1439       32195.00    140896.40
 1094.44        2966.50           1442       33672.00    147390.90
 1094.47        2966.75           1446       35376.00    154886.70
 1094.50        2967.00           1449       35576.00    155766.80
 1094.53        2967.25           1452       35611.00    155920.80
 1094.56        2967.50           1456       35613.00    155929.60
 1094.59        2967.75           1459       35642.00    156057.20
 1094.62        2968.00           1462       35356.00    154798.80
 1094.65        2968.25           1466       34370.00    150461.00
 1094.69        2968.50           1469       33030.00    144567.70
 1094.72        2968.75           1472       31683.00    138645.70
 1094.75        2969.00           1476       29352.00    128402.60
 1094.78        2969.25           1479       27740.00    121322.60
 1094.81        2969.50           1482       26039.00    113855.10
 1094.84        2969.75           1486       23858.00    104285.20
 1094.87        2970.00           1489       22166.00     96864.78
 1094.90        2970.25           1492       20682.00     90359.27
 1094.93        2970.50           1496       18573.00     81118.27
 1094.96        2970.75           1499       16868.00     73651.22
 1095.00        2971.00           1502       15316.00     66857.16
 1095.03        2971.25           1506       12947.00     56491.91
 1095.06        2971.50           1509       11383.00     49652.37
 1095.09        2971.75           1513        9184.00     40040.66
 1095.12        2972.00           1516        7705.00     33579.15
 1095.15        2972.25           1519        6159.00     26827.60
 1095.18        2972.50           1523        4102.00     17848.70
 1095.21        2972.75           1526        2574.00     11182.04
 1095.24        2973.00           1529        1206.00      5215.73
 1095.27        2973.25           1533         462.00      1971.78
 1095.30        2973.50           1536         314.00      1326.56
 1095.33        2973.75           1539         277.00      1165.25
 1095.36        2974.00           1543         227.00       947.28
 1095.40        2974.25           1546         163.00       668.28
 1095.43        2974.50           1549         133.00       537.50
 1095.46        2974.75           1553          85.00       328.25
 1095.49        2975.00           1556          65.00       241.07
 1095.52        2975.25           1559          43.00       145.16
 1095.55        2975.50           1563          51.00       180.04
 1095.58        2975.75           1566          41.00       136.44
 1095.61        2976.00           1569          40.00       132.08
 1095.64        2976.25           1573          45.00       153.88
 1095.67        2976.50           1576          46.00       158.24
 1095.70        2976.75           1579          46.00       158.24
 1095.73        2977.00           1583          51.00       180.04
 1095.76        2977.25           1586          45.00       153.88
 1095.80        2977.50           1590          46.00       158.24
 1095.83        2977.75           1593          47.00       162.60
 1095.86        2978.00           1596          46.00       158.24
 1095.89        2978.25           1600          52.00       184.40
 1095.92        2978.50           1603          47.00       162.60
 1095.95        2978.75           1606          39.00       127.72
 1095.98        2979.00           1610          47.00       162.60
 1096.01        2979.25           1613          47.00       162.60
 1096.04        2979.50           1616          43.00       145.16
 1096.07        2979.75           1620          43.00       145.16
 1096.10        2980.00           1623          37.00       119.01
 1096.13        2980.25           1626          46.00       158.24
 1096.16        2980.50           1630          42.00       140.80
 1096.19        2980.75           1633          51.00       180.04
 1096.22        2981.00           1637          49.00       171.32
 1096.25        2981.25           1640          43.00       145.16
 1096.28        2981.50           1643          44.00       149.52
 1096.32        2981.75           1647          40.00       132.08
 1096.35        2982.00           1650          40.00       132.08
 1096.38        2982.25           1653          45.00       153.88
 1096.41        2982.50           1657          50.00       175.68
 1096.44        2982.75           1660          51.00       180.04
 1096.47        2983.00           1663          45.00       153.88
 1096.50        2983.25           1667          37.00       119.01
 1096.53        2983.50           1670          43.00       145.16
 1096.56        2983.75           1673          44.00       149.52
 1096.59        2984.00           1677          48.00       166.96
HS scan finished at 18:16:49
end
