************************************************************
  HS Scan of (1) Internal mercury lamp
************************************************************
Integration time is 0.2294 seconds per sample
dh110217Manchester 53.47 2.23 2.750537pr1000
************************************************************
Dead Time -------------------------  3E-08 
Number of Cycles Used -------------  4 
Starting Wavelength (Angstroms) ---  2950 
Final Wavelength (Angstoms) -------  2984 
Wavelength Increment (Angstroms) --  .25 
Filter Wheel #1 Position ---------- (1) Ground quartz diffuser (ND=2.32)
Filter Wheel #2 Position ---------- (1) Neutral Density 0.494



************************************************************
HS scan start time = 04:48:33
Dark Count =  4.7 


Time (GMT)  Wavelength (Ang)  Step Number  Raw Counts  Counts/Second

  288.92        2950.00           1222          44.00       171.32
  288.99        2950.25           1226          41.00       158.24
  289.02        2950.50           1229          47.00       184.40
  289.05        2950.75           1232          48.00       188.75
  289.08        2951.00           1236          48.00       188.75
  289.11        2951.25           1239          46.00       180.04
  289.15        2951.50           1242          46.00       180.04
  289.18        2951.75           1246          47.00       184.40
  289.21        2952.00           1249          47.00       184.40
  289.24        2952.25           1252          51.00       201.83
  289.27        2952.50           1256          49.00       193.11
  289.30        2952.75           1259          47.00       184.40
  289.33        2953.00           1262          44.00       171.32
  289.36        2953.25           1266          52.00       206.19
  289.39        2953.50           1269          45.00       175.68
  289.42        2953.75           1272          46.00       180.04
  289.45        2954.00           1276          53.00       210.55
  289.48        2954.25           1279          42.00       162.60
  289.51        2954.50           1282          39.00       149.52
  289.54        2954.75           1286          47.00       184.40
  289.58        2955.00           1289          45.00       175.68
  289.61        2955.25           1292          54.00       214.91
  289.64        2955.50           1296          43.00       166.96
  289.67        2955.75           1299          46.00       180.04
  289.70        2956.00           1302          46.00       180.04
  289.73        2956.25           1306          49.00       193.11
  289.76        2956.50           1309          52.00       206.19
  289.79        2956.75           1312          47.00       184.40
  289.82        2957.00           1316          41.00       158.24
  289.85        2957.25           1319          42.00       162.60
  289.88        2957.50           1322          44.00       171.32
  289.91        2957.75           1326          47.00       184.40
  289.95        2958.00           1329          47.00       184.40
  289.98        2958.25           1332          47.00       184.40
  290.01        2958.50           1336          46.00       180.04
  290.04        2958.75           1339          46.00       180.04
  290.07        2959.00           1342          45.00       175.68
  290.10        2959.25           1346          48.00       188.75
  290.13        2959.50           1349          51.00       201.83
  290.16        2959.75           1352          65.00       262.86
  290.19        2960.00           1356          98.00       406.72
  290.22        2960.25           1359         123.00       515.70
  290.25        2960.50           1362         162.00       685.72
  290.29        2960.75           1366         219.00       934.20
  290.32        2961.00           1369         266.00      1139.10
  290.35        2961.25           1372         305.00      1309.12
  290.38        2961.50           1376         375.00      1614.29
  290.41        2961.75           1379         569.00      2460.08
  290.44        2962.00           1382        1071.00      4648.86
  290.47        2962.25           1386        2650.00     11535.38
  290.50        2962.50           1389        4203.00     18311.28
  290.53        2962.75           1392        5792.00     25247.10
  290.56        2963.00           1396        7957.00     34701.76
  290.60        2963.25           1399        9494.00     41417.17
  290.63        2963.50           1402       11117.00     48511.26
  290.66        2963.75           1406       13372.00     58372.84
  290.69        2964.00           1409       15057.00     65745.50
  290.72        2964.25           1412       16697.00     72924.41
  290.75        2964.50           1416       18853.00     82366.75
  290.78        2964.75           1419       20583.00     89947.28
  290.81        2965.00           1422       22279.00     97382.18
  290.84        2965.25           1426       24399.00    106680.50
  290.88        2965.50           1429       25963.00    113543.50
  290.91        2965.75           1432       27821.00    121700.30
  290.94        2966.00           1436       29946.00    131034.20
  290.97        2966.25           1439       31543.00    138052.30
  291.00        2966.50           1442       33059.00    144717.20
  291.03        2966.75           1446       34826.00    152488.90
  291.06        2967.00           1449       35407.00    155045.10
  291.09        2967.25           1452       35424.00    155119.90
  291.12        2967.50           1456       35603.00    155907.60
  291.16        2967.75           1459       35589.00    155846.00
  291.19        2968.00           1462       35334.00    154723.90
  291.22        2968.25           1466       34555.00    151296.80
  291.25        2968.50           1469       33219.00    145420.80
  291.28        2968.75           1472       31800.00    139182.00
  291.31        2969.00           1476       29568.00    129373.40
  291.34        2969.25           1479       28039.00    122657.60
  291.37        2969.50           1482       26299.00    115018.30
  291.40        2969.75           1486       24428.00    106807.70
  291.44        2970.00           1489       22659.00     99048.46
  291.47        2970.25           1492       20922.00     91433.11
  291.50        2970.50           1496       18863.00     82410.56
  291.53        2970.75           1499       17369.00     75866.90
  291.56        2971.00           1502       15655.00     68362.82
  291.59        2971.25           1506       13571.00     59243.39
  291.62        2971.50           1509       11888.00     51882.35
  291.65        2971.75           1513        9575.00     41771.15
  291.68        2972.00           1516        8011.00     34937.65
  291.71        2972.25           1519        6468.00     28198.65
  291.74        2972.50           1523        4262.00     18568.75
  291.78        2972.75           1526        2706.00     11779.66
  291.81        2973.00           1529        1359.00      5904.71
  291.84        2973.25           1533         525.00      2268.24
  291.87        2973.50           1536         351.00      1509.66
  291.90        2973.75           1539         269.00      1152.18
  291.93        2974.00           1543         236.00      1008.31
  291.96        2974.25           1546         166.00       703.15
  291.99        2974.50           1549         127.00       533.14
  292.02        2974.75           1553          90.00       371.84
  292.05        2975.00           1556          67.00       271.58
  292.09        2975.25           1559          52.00       206.19
  292.12        2975.50           1563          47.00       184.40
  292.15        2975.75           1566          41.00       158.24
  292.18        2976.00           1569          59.00       236.71
  292.21        2976.25           1573          44.00       171.32
  292.24        2976.50           1576          52.00       206.19
  292.27        2976.75           1579          50.00       197.47
  292.30        2977.00           1583          42.00       162.60
  292.33        2977.25           1586          55.00       219.27
  292.36        2977.50           1590          48.00       188.75
  292.39        2977.75           1593          46.00       180.04
  292.42        2978.00           1596          47.00       184.40
  292.45        2978.25           1600          42.00       162.60
  292.48        2978.50           1603          52.00       206.19
  292.52        2978.75           1606          44.00       171.32
  292.55        2979.00           1610          47.00       184.40
  292.58        2979.25           1613          43.00       166.96
  292.61        2979.50           1616          51.00       201.83
  292.64        2979.75           1620          42.00       162.60
  292.67        2980.00           1623          42.00       162.60
  292.70        2980.25           1626          47.00       184.40
  292.73        2980.50           1630          46.00       180.04
  292.76        2980.75           1633          37.00       140.80
  292.79        2981.00           1637          40.00       153.88
  292.82        2981.25           1640          44.00       171.32
  292.85        2981.50           1643          44.00       171.32
  292.89        2981.75           1647          40.00       153.88
  292.92        2982.00           1650          44.00       171.32
  292.95        2982.25           1653          42.00       162.60
  292.98        2982.50           1657          42.00       162.60
  293.01        2982.75           1660          37.00       140.80
  293.04        2983.00           1663          39.00       149.52
  293.07        2983.25           1667          43.00       166.96
  293.10        2983.50           1670          38.00       145.16
  293.13        2983.75           1673          44.00       171.32
  293.16        2984.00           1677          45.00       175.68
HS scan finished at 04:53:23
end
************************************************************
  HS Scan of (1) Internal mercury lamp
************************************************************
Integration time is 0.2294 seconds per sample
dh110217Manchester 53.47 2.23 2.750537pr1000
************************************************************
Dead Time -------------------------  3E-08 
Number of Cycles Used -------------  4 
Starting Wavelength (Angstroms) ---  2950 
Final Wavelength (Angstoms) -------  2984 
Wavelength Increment (Angstroms) --  .25 
Filter Wheel #1 Position ---------- (1) Ground quartz diffuser (ND=2.32)
Filter Wheel #2 Position ---------- (1) Neutral Density 0.494



************************************************************
HS scan start time = 18:12:04
Dark Count =  8.2 


Time (GMT)  Wavelength (Ang)  Step Number  Raw Counts  Counts/Second

 1092.43        2950.00           1222          45.00       160.42
 1092.50        2950.25           1226          47.00       169.14
 1092.53        2950.50           1229          45.00       160.42
 1092.56        2950.75           1232          42.00       147.34
 1092.59        2951.00           1236          44.00       156.06
 1092.62        2951.25           1239          45.00       160.42
 1092.65        2951.50           1242          39.00       134.26
 1092.68        2951.75           1246          50.00       182.22
 1092.71        2952.00           1249          42.00       147.34
 1092.74        2952.25           1252          47.00       169.14
 1092.77        2952.50           1256          40.00       138.62
 1092.80        2952.75           1259          51.00       186.57
 1092.84        2953.00           1262          46.00       164.78
 1092.87        2953.25           1266          53.00       195.29
 1092.90        2953.50           1269          42.00       147.34
 1092.93        2953.75           1272          46.00       164.78
 1092.96        2954.00           1276          47.00       169.14
 1092.99        2954.25           1279          48.00       173.50
 1093.02        2954.50           1282          43.00       151.70
 1093.05        2954.75           1286          48.00       173.50
 1093.08        2955.00           1289          50.00       182.22
 1093.11        2955.25           1292          49.00       177.86
 1093.14        2955.50           1296          40.00       138.62
 1093.17        2955.75           1299          38.00       129.90
 1093.21        2956.00           1302          47.00       169.14
 1093.24        2956.25           1306          48.00       173.50
 1093.27        2956.50           1309          43.00       151.70
 1093.30        2956.75           1312          36.00       121.19
 1093.33        2957.00           1316          44.00       156.06
 1093.36        2957.25           1319          48.00       173.50
 1093.39        2957.50           1322          48.00       173.50
 1093.42        2957.75           1326          42.00       147.34
 1093.45        2958.00           1329          49.00       177.86
 1093.48        2958.25           1332          37.00       125.55
 1093.51        2958.50           1336          44.00       156.06
 1093.55        2958.75           1339          53.00       195.29
 1093.58        2959.00           1342          47.00       169.14
 1093.61        2959.25           1346          51.00       186.57
 1093.64        2959.50           1349          48.00       173.50
 1093.67        2959.75           1352          57.00       212.73
 1093.70        2960.00           1356          85.00       334.79
 1093.73        2960.25           1359         118.00       478.65
 1093.76        2960.50           1362         152.00       626.86
 1093.79        2960.75           1366         195.00       814.32
 1093.82        2961.00           1369         241.00      1014.85
 1093.85        2961.25           1372         299.00      1267.70
 1093.89        2961.50           1376         412.00      1760.34
 1093.92        2961.75           1379         668.00      2876.45
 1093.95        2962.00           1382        1363.00      5906.89
 1093.98        2962.25           1386        3276.00     14251.08
 1094.01        2962.50           1389        4866.00     21189.58
 1094.04        2962.75           1392        6451.00     28109.13
 1094.07        2963.00           1396        8503.00     37071.72
 1094.10        2963.25           1399       10271.00     44797.74
 1094.13        2963.50           1402       11850.00     51700.88
 1094.16        2963.75           1406       14042.00     61288.70
 1094.20        2964.00           1409       15778.00     68885.90
 1094.23        2964.25           1412       17333.00     75693.93
 1094.26        2964.50           1416       19598.00     85615.44
 1094.29        2964.75           1419       21032.00     91899.93
 1094.32        2965.00           1422       22845.00     99848.78
 1094.35        2965.25           1426       25097.00    109727.70
 1094.38        2965.50           1429       26793.00    117171.40
 1094.41        2965.75           1432       28366.00    124078.30
 1094.44        2966.00           1436       30625.00    134002.30
 1094.47        2966.25           1439       32151.00    140709.60
 1094.51        2966.50           1442       33423.00    146302.50
 1094.54        2966.75           1446       34846.00    152561.50
 1094.57        2967.00           1449       35158.00    153934.20
 1094.60        2967.25           1452       35087.00    153621.80
 1094.63        2967.50           1456       35167.00    153973.80
 1094.66        2967.75           1459       35067.00    153533.80
 1094.69        2968.00           1462       34898.00    152790.30
 1094.72        2968.25           1466       33364.00    146043.00
 1094.75        2968.50           1469       32052.00    140274.40
 1094.78        2968.75           1472       30639.00    134063.80
 1094.81        2969.00           1476       28194.00    123322.90
 1094.84        2969.25           1479       26486.00    115823.70
 1094.88        2969.50           1482       25165.00    110026.10
 1094.91        2969.75           1486       22974.00    100414.50
 1094.94        2970.00           1489       21474.00     93837.47
 1094.97        2970.25           1492       19915.00     87004.49
 1095.00        2970.50           1496       17743.00     77489.44
 1095.03        2970.75           1499       15976.00     69752.61
 1095.06        2971.00           1502       14485.00     63227.06
 1095.09        2971.25           1506       12214.00     53292.64
 1095.13        2971.50           1509       10496.00     45781.23
 1095.16        2971.75           1513        8335.00     36337.76
 1095.19        2972.00           1516        6800.00     29633.13
 1095.22        2972.25           1519        5222.00     22743.50
 1095.25        2972.50           1523        3237.00     14080.93
 1095.28        2972.75           1526        1900.00      8248.77
 1095.31        2973.00           1529         895.00      3866.19
 1095.34        2973.25           1533         441.00      1886.77
 1095.37        2973.50           1536         357.00      1520.56
 1095.40        2973.75           1539         288.00      1219.75
 1095.44        2974.00           1543         243.00      1023.57
 1095.47        2974.25           1546         181.00       753.29
 1095.50        2974.50           1549         138.00       565.83
 1095.53        2974.75           1553          91.00       360.95
 1095.56        2975.00           1556          75.00       291.20
 1095.59        2975.25           1559          57.00       212.73
 1095.62        2975.50           1563          52.00       190.93
 1095.65        2975.75           1566          45.00       160.42
 1095.68        2976.00           1569          45.00       160.42
 1095.71        2976.25           1573          58.00       217.09
 1095.74        2976.50           1576          49.00       177.86
 1095.77        2976.75           1579          47.00       169.14
 1095.80        2977.00           1583          60.00       225.81
 1095.84        2977.25           1586          49.00       177.86
 1095.87        2977.50           1590          40.00       138.62
 1095.90        2977.75           1593          51.00       186.57
 1095.93        2978.00           1596          48.00       173.50
 1095.96        2978.25           1600          52.00       190.93
 1095.99        2978.50           1603          52.00       190.93
 1096.02        2978.75           1606          41.00       142.98
 1096.05        2979.00           1610          51.00       186.57
 1096.08        2979.25           1613          49.00       177.86
 1096.11        2979.50           1616          45.00       160.42
 1096.14        2979.75           1620          50.00       182.22
 1096.17        2980.00           1623          42.00       147.34
 1096.20        2980.25           1626          52.00       190.93
 1096.23        2980.50           1630          45.00       160.42
 1096.27        2980.75           1633          42.00       147.34
 1096.30        2981.00           1637          40.00       138.62
 1096.33        2981.25           1640          49.00       177.86
 1096.36        2981.50           1643          47.00       169.14
 1096.39        2981.75           1647          41.00       142.98
 1096.42        2982.00           1650          48.00       173.50
 1096.45        2982.25           1653          45.00       160.42
 1096.48        2982.50           1657          38.00       129.90
 1096.51        2982.75           1660          48.00       173.50
 1096.54        2983.00           1663          50.00       182.22
 1096.58        2983.25           1667          40.00       138.62
 1096.61        2983.50           1670          38.00       129.90
 1096.64        2983.75           1673          41.00       142.98
 1096.67        2984.00           1677          47.00       169.14
HS scan finished at 18:16:53
end
