************************************************************
  HS Scan of (1) Internal mercury lamp
************************************************************
Integration time is 0.2294 seconds per sample
dh110219Manchester 53.47 2.23 2.804185pr1000
************************************************************
Dead Time -------------------------  3E-08 
Number of Cycles Used -------------  4 
Starting Wavelength (Angstroms) ---  2950 
Final Wavelength (Angstoms) -------  2984 
Wavelength Increment (Angstroms) --  .25 
Filter Wheel #1 Position ---------- (1) Ground quartz diffuser (ND=2.32)
Filter Wheel #2 Position ---------- (1) Neutral Density 0.494



************************************************************
HS scan start time = 18:13:17
Dark Count =  6.8 


Time (GMT)  Wavelength (Ang)  Step Number  Raw Counts  Counts/Second

 1093.65        2950.00           1222          52.00       197.04
 1093.72        2950.25           1226          53.00       201.40
 1093.75        2950.50           1229          52.00       197.04
 1093.78        2950.75           1232          60.00       231.91
 1093.81        2951.00           1236          52.00       197.04
 1093.84        2951.25           1239          63.00       244.99
 1093.87        2951.50           1242          59.00       227.55
 1093.90        2951.75           1246          63.00       244.99
 1093.93        2952.00           1249          58.00       223.19
 1093.96        2952.25           1252          56.00       214.47
 1094.00        2952.50           1256          58.00       223.19
 1094.03        2952.75           1259          56.00       214.47
 1094.06        2953.00           1262          59.00       227.55
 1094.09        2953.25           1266          47.00       175.24
 1094.12        2953.50           1269          52.00       197.04
 1094.15        2953.75           1272          52.00       197.04
 1094.18        2954.00           1276          56.00       214.47
 1094.21        2954.25           1279          58.00       223.19
 1094.24        2954.50           1282          65.00       253.71
 1094.27        2954.75           1286          56.00       214.47
 1094.30        2955.00           1289          56.00       214.47
 1094.33        2955.25           1292          56.00       214.47
 1094.36        2955.50           1296          55.00       210.11
 1094.39        2955.75           1299          55.00       210.11
 1094.42        2956.00           1302          63.00       244.99
 1094.45        2956.25           1306          52.00       197.04
 1094.49        2956.50           1309          52.00       197.04
 1094.52        2956.75           1312          53.00       201.40
 1094.55        2957.00           1316          53.00       201.40
 1094.58        2957.25           1319          49.00       183.96
 1094.61        2957.50           1322          54.00       205.76
 1094.64        2957.75           1326          55.00       210.11
 1094.67        2958.00           1329          57.00       218.83
 1094.70        2958.25           1332          53.00       201.40
 1094.73        2958.50           1336          56.00       214.47
 1094.76        2958.75           1339          59.00       227.55
 1094.80        2959.00           1342          50.00       188.32
 1094.83        2959.25           1346          61.00       236.27
 1094.86        2959.50           1349          56.00       214.47
 1094.89        2959.75           1352          75.00       297.30
 1094.92        2960.00           1356          86.00       345.25
 1094.95        2960.25           1359         102.00       415.00
 1094.98        2960.50           1362         140.00       580.66
 1095.01        2960.75           1366         182.00       763.75
 1095.04        2961.00           1369         215.00       907.61
 1095.07        2961.25           1372         240.00      1016.60
 1095.10        2961.50           1376         291.00      1238.93
 1095.14        2961.75           1379         348.00      1487.42
 1095.17        2962.00           1382         570.00      2455.28
 1095.20        2962.25           1386        1731.00      7517.82
 1095.23        2962.50           1389        2808.00     12215.46
 1095.26        2962.75           1392        3978.00     17320.24
 1095.29        2963.00           1396        5479.00     23871.50
 1095.32        2963.25           1399        6735.00     29355.40
 1095.35        2963.50           1402        7864.00     34286.34
 1095.38        2963.75           1406        9554.00     41670.20
 1095.42        2964.00           1409       10874.00     47439.74
 1095.45        2964.25           1412       11935.00     52078.69
 1095.48        2964.50           1416       13453.00     58717.99
 1095.51        2964.75           1419       14808.00     64646.62
 1095.54        2965.00           1422       15957.00     69675.57
 1095.57        2965.25           1426       17622.00     76965.65
 1095.60        2965.50           1429       18954.00     82800.02
 1095.63        2965.75           1432       20251.00     88483.04
 1095.66        2966.00           1436       21766.00     95123.72
 1095.69        2966.25           1439       22831.00     99793.52
 1095.73        2966.50           1442       23743.00    103793.50
 1095.76        2966.75           1446       24980.00    109220.40
 1095.79        2967.00           1449       25777.00    112717.90
 1095.82        2967.25           1452       25616.00    112011.30
 1095.85        2967.50           1456       25916.00    113328.00
 1095.88        2967.75           1459       25815.00    112884.70
 1095.91        2968.00           1462       25822.00    112915.40
 1095.94        2968.25           1466       25199.00    110181.40
 1095.97        2968.50           1469       24256.00    106043.90
 1096.00        2968.75           1472       23192.00    101376.70
 1096.03        2969.00           1476       21461.00     93786.60
 1096.06        2969.25           1479       20429.00     89263.13
 1096.09        2969.50           1482       19200.00     83877.75
 1096.13        2969.75           1486       17588.00     76816.75
 1096.16        2970.00           1489       16417.00     71689.32
 1096.19        2970.25           1492       15429.00     67364.43
 1096.22        2970.50           1496       13873.00     60555.42
 1096.25        2970.75           1499       12728.00     55546.72
 1096.28        2971.00           1502       11387.00     49682.54
 1096.31        2971.25           1506        9847.00     42950.69
 1096.34        2971.50           1509        8408.00     36662.80
 1096.37        2971.75           1513        6929.00     30202.60
 1096.41        2972.00           1516        5712.00     24888.68
 1096.44        2972.25           1519        4529.00     19724.83
 1096.47        2972.50           1523        3104.00     13506.78
 1096.50        2972.75           1526        2057.00      8939.63
 1096.53        2973.00           1529        1002.00      4338.84
 1096.56        2973.25           1533         389.00      1666.17
 1096.59        2973.50           1536         276.00      1173.54
 1096.62        2973.75           1539         229.00       968.64
 1096.65        2974.00           1543         187.00       785.55
 1096.68        2974.25           1546         146.00       606.81
 1096.71        2974.50           1549         106.00       432.44
 1096.75        2974.75           1553          80.00       319.10
 1096.78        2975.00           1556          67.00       262.43
 1096.81        2975.25           1559          62.00       240.63
 1096.84        2975.50           1563          52.00       197.04
 1096.87        2975.75           1566          51.00       192.68
 1096.90        2976.00           1569          46.00       170.88
 1096.93        2976.25           1573          48.00       179.60
 1096.96        2976.50           1576          54.00       205.76
 1096.99        2976.75           1579          61.00       236.27
 1097.02        2977.00           1583          50.00       188.32
 1097.05        2977.25           1586          53.00       201.40
 1097.08        2977.50           1590          53.00       201.40
 1097.11        2977.75           1593          52.00       197.04
 1097.14        2978.00           1596          51.00       192.68
 1097.18        2978.25           1600          48.00       179.60
 1097.21        2978.50           1603          48.00       179.60
 1097.24        2978.75           1606          49.00       183.96
 1097.27        2979.00           1610          49.00       183.96
 1097.30        2979.25           1613          53.00       201.40
 1097.33        2979.50           1616          49.00       183.96
 1097.36        2979.75           1620          58.00       223.19
 1097.39        2980.00           1623          46.00       170.88
 1097.42        2980.25           1626          49.00       183.96
 1097.45        2980.50           1630          56.00       214.47
 1097.48        2980.75           1633          52.00       197.04
 1097.51        2981.00           1637          53.00       201.40
 1097.54        2981.25           1640          48.00       179.60
 1097.58        2981.50           1643          52.00       197.04
 1097.61        2981.75           1647          49.00       183.96
 1097.64        2982.00           1650          54.00       205.76
 1097.67        2982.25           1653          53.00       201.40
 1097.70        2982.50           1657          49.00       183.96
 1097.73        2982.75           1660          43.00       157.80
 1097.76        2983.00           1663          57.00       218.83
 1097.79        2983.25           1667          49.00       183.96
 1097.82        2983.50           1670          46.00       170.88
 1097.85        2983.75           1673          53.00       201.40
 1097.88        2984.00           1677          52.00       197.04
HS scan finished at 18:18:06
end
