************************************************************
  HS Scan of (1) Internal mercury lamp
************************************************************
Integration time is 0.2294 seconds per sample
dh150219Manchester 53.47 2.23 2.804185pr1000
************************************************************
Dead Time -------------------------  3E-08 
Number of Cycles Used -------------  4 
Starting Wavelength (Angstroms) ---  2950 
Final Wavelength (Angstoms) -------  2984 
Wavelength Increment (Angstroms) --  .25 
Filter Wheel #1 Position ---------- (1) Ground quartz diffuser (ND=2.32)
Filter Wheel #2 Position ---------- (1) Neutral Density 0.494



************************************************************
HS scan start time = 04:41:41
Dark Count =  9.5 


Time (GMT)  Wavelength (Ang)  Step Number  Raw Counts  Counts/Second

  282.05        2950.00           1222          50.00       176.55
  282.11        2950.25           1226          52.00       185.27
  282.14        2950.50           1229          55.00       198.34
  282.17        2950.75           1232          50.00       176.55
  282.20        2951.00           1236          62.00       228.86
  282.24        2951.25           1239          51.00       180.91
  282.27        2951.50           1242          62.00       228.86
  282.30        2951.75           1246          55.00       198.34
  282.33        2952.00           1249          51.00       180.91
  282.36        2952.25           1252          54.00       193.99
  282.39        2952.50           1256          47.00       163.47
  282.42        2952.75           1259          53.00       189.63
  282.45        2953.00           1262          51.00       180.91
  282.48        2953.25           1266          55.00       198.34
  282.51        2953.50           1269          51.00       180.91
  282.54        2953.75           1272          59.00       215.78
  282.57        2954.00           1276          61.00       224.50
  282.60        2954.25           1279          59.00       215.78
  282.63        2954.50           1282          59.00       215.78
  282.67        2954.75           1286          55.00       198.34
  282.70        2955.00           1289          54.00       193.99
  282.73        2955.25           1292          52.00       185.27
  282.76        2955.50           1296          58.00       211.42
  282.79        2955.75           1299          52.00       185.27
  282.82        2956.00           1302          65.00       241.94
  282.85        2956.25           1306          57.00       207.06
  282.88        2956.50           1309          56.00       202.70
  282.91        2956.75           1312          54.00       193.99
  282.94        2957.00           1316          56.00       202.70
  282.97        2957.25           1319          54.00       193.99
  283.00        2957.50           1322          50.00       176.55
  283.04        2957.75           1326          57.00       207.06
  283.07        2958.00           1329          49.00       172.19
  283.10        2958.25           1332          55.00       198.34
  283.13        2958.50           1336          59.00       215.78
  283.16        2958.75           1339          56.00       202.70
  283.19        2959.00           1342          53.00       189.63
  283.22        2959.25           1346          60.00       220.14
  283.25        2959.50           1349          53.00       189.63
  283.28        2959.75           1352          64.00       237.58
  283.31        2960.00           1356          82.00       316.04
  283.34        2960.25           1359          93.00       364.00
  283.37        2960.50           1362         114.00       455.54
  283.40        2960.75           1366         154.00       629.92
  283.44        2961.00           1369         192.00       795.57
  283.47        2961.25           1372         215.00       895.84
  283.50        2961.50           1376         256.00      1074.58
  283.53        2961.75           1379         331.00      1401.54
  283.56        2962.00           1382         569.00      2439.15
  283.59        2962.25           1386        1595.00      6912.94
  283.62        2962.50           1389        2726.00     11845.97
  283.65        2962.75           1392        3791.00     16492.46
  283.68        2963.00           1396        5463.00     23789.86
  283.71        2963.25           1399        6718.00     29269.37
  283.74        2963.50           1402        7847.00     34200.29
  283.77        2963.75           1406        9414.00     41046.59
  283.81        2964.00           1409       10713.00     46724.13
  283.84        2964.25           1412       11837.00     51638.35
  283.87        2964.50           1416       13608.00     59384.26
  283.90        2964.75           1419       14785.00     64534.15
  283.93        2965.00           1422       15843.00     69164.73
  283.96        2965.25           1426       17566.00     76708.59
  283.99        2965.50           1429       18780.00     82025.93
  284.02        2965.75           1432       20135.00     87962.86
  284.05        2966.00           1436       21783.00     95186.43
  284.08        2966.25           1439       22884.00    100014.10
  284.11        2966.50           1442       24030.00    105040.60
  284.15        2966.75           1446       25192.00    110138.80
  284.18        2967.00           1449       25763.00    112644.60
  284.21        2967.25           1452       25874.00    113131.80
  284.24        2967.50           1456       25904.00    113263.50
  284.27        2967.75           1459       26009.00    113724.30
  284.30        2968.00           1462       25774.00    112692.90
  284.33        2968.25           1466       25414.00    111113.00
  284.36        2968.50           1469       24608.00    107576.40
  284.39        2968.75           1472       23464.00    102557.90
  284.42        2969.00           1476       21701.00     94826.93
  284.45        2969.25           1479       20697.00     90425.88
  284.49        2969.50           1482       19506.00     85206.62
  284.52        2969.75           1486       17823.00     77834.10
  284.55        2970.00           1489       16717.00     72990.96
  284.58        2970.25           1492       15561.00     67930.37
  284.61        2970.50           1496       13988.00     61046.75
  284.64        2970.75           1499       12907.00     56317.83
  284.67        2971.00           1502       11830.00     51607.74
  284.70        2971.25           1506       10230.00     44612.86
  284.74        2971.50           1509        8978.00     39141.40
  284.77        2971.75           1513        7290.00     31767.40
  284.80        2972.00           1516        6076.00     26466.08
  284.83        2972.25           1519        4827.00     21013.68
  284.86        2972.50           1523        3361.00     14616.26
  284.89        2972.75           1526        2232.00      9691.13
  284.92        2973.00           1529        1198.00      5181.71
  284.95        2973.25           1533         465.00      1985.73
  284.98        2973.50           1536         305.00      1288.19
  285.01        2973.75           1539         262.00      1100.73
  285.04        2974.00           1543         222.00       926.36
  285.07        2974.25           1546         175.00       721.46
  285.10        2974.50           1549         134.00       542.73
  285.14        2974.75           1553         110.00       438.11
  285.17        2975.00           1556          74.00       281.17
  285.20        2975.25           1559          68.00       255.02
  285.23        2975.50           1563          49.00       172.19
  285.26        2975.75           1566          57.00       207.06
  285.29        2976.00           1569          50.00       176.55
  285.32        2976.25           1573          53.00       189.63
  285.35        2976.50           1576          48.00       167.83
  285.38        2976.75           1579          54.00       193.99
  285.41        2977.00           1583          57.00       207.06
  285.44        2977.25           1586          51.00       180.91
  285.47        2977.50           1590          61.00       224.50
  285.51        2977.75           1593          55.00       198.34
  285.54        2978.00           1596          54.00       193.99
  285.57        2978.25           1600          49.00       172.19
  285.60        2978.50           1603          51.00       180.91
  285.63        2978.75           1606          50.00       176.55
  285.66        2979.00           1610          58.00       211.42
  285.69        2979.25           1613          53.00       189.63
  285.72        2979.50           1616          49.00       172.19
  285.75        2979.75           1620          55.00       198.34
  285.78        2980.00           1623          55.00       198.34
  285.81        2980.25           1626          44.00       150.39
  285.84        2980.50           1630          46.00       159.11
  285.87        2980.75           1633          57.00       207.06
  285.91        2981.00           1637          56.00       202.70
  285.94        2981.25           1640          50.00       176.55
  285.97        2981.50           1643          53.00       189.63
  286.00        2981.75           1647          49.00       172.19
  286.03        2982.00           1650          52.00       185.27
  286.06        2982.25           1653          52.00       185.27
  286.09        2982.50           1657          53.00       189.63
  286.12        2982.75           1660          45.00       154.75
  286.15        2983.00           1663          47.00       163.47
  286.19        2983.25           1667          53.00       189.63
  286.22        2983.50           1670          48.00       167.83
  286.25        2983.75           1673          44.00       150.39
  286.28        2984.00           1677          45.00       154.75
HS scan finished at 04:46:30
end
************************************************************
  HS Scan of (1) Internal mercury lamp
************************************************************
Integration time is 0.2294 seconds per sample
dh150219Manchester 53.47 2.23 2.804185pr1000
************************************************************
Dead Time -------------------------  3E-08 
Number of Cycles Used -------------  4 
Starting Wavelength (Angstroms) ---  2950 
Final Wavelength (Angstoms) -------  2984 
Wavelength Increment (Angstroms) --  .25 
Filter Wheel #1 Position ---------- (1) Ground quartz diffuser (ND=2.32)
Filter Wheel #2 Position ---------- (1) Neutral Density 0.494



************************************************************
HS scan start time = 18:12:07
Dark Count =  5.7 


Time (GMT)  Wavelength (Ang)  Step Number  Raw Counts  Counts/Second

 1092.48        2950.00           1222          61.00       241.07
 1092.55        2950.25           1226          52.00       201.83
 1092.58        2950.50           1229          60.00       236.71
 1092.61        2950.75           1232          53.00       206.19
 1092.64        2951.00           1236          49.00       188.75
 1092.67        2951.25           1239          59.00       232.35
 1092.70        2951.50           1242          57.00       223.63
 1092.73        2951.75           1246          52.00       201.83
 1092.76        2952.00           1249          54.00       210.55
 1092.79        2952.25           1252          49.00       188.75
 1092.82        2952.50           1256          62.00       245.42
 1092.85        2952.75           1259          57.00       223.63
 1092.89        2953.00           1262          53.00       206.19
 1092.92        2953.25           1266          50.00       193.11
 1092.95        2953.50           1269          55.00       214.91
 1092.98        2953.75           1272          50.00       193.11
 1093.01        2954.00           1276          57.00       223.63
 1093.04        2954.25           1279          62.00       245.42
 1093.07        2954.50           1282          60.00       236.71
 1093.10        2954.75           1286          55.00       214.91
 1093.13        2955.00           1289          51.00       197.47
 1093.16        2955.25           1292          53.00       206.19
 1093.19        2955.50           1296          56.00       219.27
 1093.22        2955.75           1299          60.00       236.71
 1093.25        2956.00           1302          56.00       219.27
 1093.29        2956.25           1306          54.00       210.55
 1093.32        2956.50           1309          55.00       214.91
 1093.35        2956.75           1312          58.00       227.99
 1093.38        2957.00           1316          55.00       214.91
 1093.41        2957.25           1319          64.00       254.14
 1093.44        2957.50           1322          56.00       219.27
 1093.47        2957.75           1326          56.00       219.27
 1093.50        2958.00           1329          54.00       210.55
 1093.53        2958.25           1332          54.00       210.55
 1093.56        2958.50           1336          55.00       214.91
 1093.59        2958.75           1339          49.00       188.75
 1093.62        2959.00           1342          48.00       184.40
 1093.65        2959.25           1346          57.00       223.63
 1093.68        2959.50           1349          61.00       241.07
 1093.71        2959.75           1352          69.00       275.94
 1093.74        2960.00           1356         104.00       428.51
 1093.77        2960.25           1359         117.00       485.19
 1093.81        2960.50           1362         135.00       563.65
 1093.84        2960.75           1366         198.00       838.29
 1093.87        2961.00           1369         206.00       873.17
 1093.90        2961.25           1372         257.00      1095.50
 1093.93        2961.50           1376         301.00      1287.32
 1093.96        2961.75           1379         479.00      2063.34
 1093.99        2962.00           1382        1136.00      4927.93
 1094.02        2962.25           1386        2580.00     11225.66
 1094.05        2962.50           1389        3720.00     16199.24
 1094.08        2962.75           1392        4762.00     20746.56
 1094.12        2963.00           1396        6175.00     26914.92
 1094.15        2963.25           1399        7347.00     32032.95
 1094.18        2963.50           1402        8580.00     37419.05
 1094.21        2963.75           1406       10136.00     44218.60
 1094.24        2964.00           1409       11421.00     49836.01
 1094.27        2964.25           1412       12692.00     55394.07
 1094.30        2964.50           1416       14189.00     61942.82
 1094.33        2964.75           1419       15284.00     66734.60
 1094.36        2965.00           1422       16595.00     72473.45
 1094.39        2965.25           1426       18291.00     79900.55
 1094.42        2965.50           1429       19658.00     85889.30
 1094.46        2965.75           1432       20815.00     90959.74
 1094.49        2966.00           1436       22329.00     97597.02
 1094.52        2966.25           1439       23250.00    101635.90
 1094.55        2966.50           1442       24380.00    106592.70
 1094.58        2966.75           1446       25698.00    112376.00
 1094.61        2967.00           1449       25859.00    113082.60
 1094.64        2967.25           1452       25829.00    112951.00
 1094.67        2967.50           1456       25922.00    113359.10
 1094.70        2967.75           1459       25873.00    113144.10
 1094.74        2968.00           1462       25851.00    113047.50
 1094.77        2968.25           1466       24902.00    108883.00
 1094.80        2968.50           1469       23745.00    103807.10
 1094.83        2968.75           1472       22931.00    100236.90
 1094.86        2969.00           1476       21259.00     92905.93
 1094.89        2969.25           1479       20037.00     87550.06
 1094.92        2969.50           1482       19023.00     83107.13
 1094.95        2969.75           1486       17478.00     76339.86
 1094.98        2970.00           1489       16344.00     71374.55
 1095.02        2970.25           1492       15197.00     66353.84
 1095.05        2970.50           1496       13640.00     59540.87
 1095.08        2970.75           1499       12445.00     54313.80
 1095.11        2971.00           1502       11157.00     48681.77
 1095.14        2971.25           1506        9560.00     41701.22
 1095.17        2971.50           1509        8303.00     36208.88
 1095.20        2971.75           1513        6776.00     29539.24
 1095.23        2972.00           1516        5474.00     23854.47
 1095.26        2972.25           1519        4304.00     18747.68
 1095.30        2972.50           1523        2778.00     12089.39
 1095.33        2972.75           1526        1735.00      7540.07
 1095.36        2973.00           1529         777.00      3362.59
 1095.39        2973.25           1533         335.00      1435.55
 1095.42        2973.50           1536         259.00      1104.22
 1095.45        2973.75           1539         224.00       951.64
 1095.48        2974.00           1543         183.00       772.90
 1095.51        2974.25           1546         132.00       550.58
 1095.54        2974.50           1549         111.00       459.03
 1095.57        2974.75           1553          79.00       319.53
 1095.60        2975.00           1556          64.00       254.14
 1095.63        2975.25           1559          59.00       232.35
 1095.67        2975.50           1563          48.00       184.40
 1095.70        2975.75           1566          66.00       262.86
 1095.73        2976.00           1569          49.00       188.75
 1095.76        2976.25           1573          48.00       184.40
 1095.79        2976.50           1576          52.00       201.83
 1095.82        2976.75           1579          48.00       184.40
 1095.85        2977.00           1583          53.00       206.19
 1095.88        2977.25           1586          51.00       197.47
 1095.91        2977.50           1590          57.00       223.63
 1095.94        2977.75           1593          56.00       219.27
 1095.97        2978.00           1596          54.00       210.55
 1096.00        2978.25           1600          51.00       197.47
 1096.03        2978.50           1603          48.00       184.40
 1096.06        2978.75           1606          62.00       245.42
 1096.09        2979.00           1610          48.00       184.40
 1096.12        2979.25           1613          54.00       210.55
 1096.15        2979.50           1616          53.00       206.19
 1096.19        2979.75           1620          52.00       201.83
 1096.22        2980.00           1623          53.00       206.19
 1096.25        2980.25           1626          56.00       219.27
 1096.28        2980.50           1630          62.00       245.42
 1096.31        2980.75           1633          51.00       197.47
 1096.34        2981.00           1637          51.00       197.47
 1096.37        2981.25           1640          46.00       175.68
 1096.40        2981.50           1643          49.00       188.75
 1096.43        2981.75           1647          46.00       175.68
 1096.46        2982.00           1650          50.00       193.11
 1096.49        2982.25           1653          47.00       180.04
 1096.53        2982.50           1657          53.00       206.19
 1096.56        2982.75           1660          51.00       197.47
 1096.59        2983.00           1663          52.00       201.83
 1096.62        2983.25           1667          51.00       197.47
 1096.65        2983.50           1670          50.00       193.11
 1096.68        2983.75           1673          46.00       175.68
 1096.71        2984.00           1677          53.00       206.19
HS scan finished at 18:16:56
end
