************************************************************
  HS Scan of (1) Internal mercury lamp
************************************************************
Integration time is 0.2294 seconds per sample
dh140217Manchester 53.47 2.23 2.750537pr1000
************************************************************
Dead Time -------------------------  3E-08 
Number of Cycles Used -------------  4 
Starting Wavelength (Angstroms) ---  2950 
Final Wavelength (Angstoms) -------  2984 
Wavelength Increment (Angstroms) --  .25 
Filter Wheel #1 Position ---------- (1) Ground quartz diffuser (ND=2.32)
Filter Wheel #2 Position ---------- (1) Neutral Density 0.494



************************************************************
HS scan start time = 04:42:42
Dark Count =  6.6 


Time (GMT)  Wavelength (Ang)  Step Number  Raw Counts  Counts/Second

  283.06        2950.00           1222          49.00       184.83
  283.13        2950.25           1226          46.00       171.75
  283.16        2950.50           1229          62.00       241.50
  283.19        2950.75           1232          43.00       158.68
  283.22        2951.00           1236          48.00       180.47
  283.26        2951.25           1239          46.00       171.75
  283.29        2951.50           1242          41.00       149.96
  283.32        2951.75           1246          46.00       171.75
  283.35        2952.00           1249          43.00       158.68
  283.38        2952.25           1252          44.00       163.03
  283.41        2952.50           1256          51.00       193.55
  283.44        2952.75           1259          43.00       158.68
  283.47        2953.00           1262          39.00       141.24
  283.50        2953.25           1266          47.00       176.11
  283.53        2953.50           1269          43.00       158.68
  283.56        2953.75           1272          47.00       176.11
  283.59        2954.00           1276          47.00       176.11
  283.62        2954.25           1279          39.00       141.24
  283.65        2954.50           1282          46.00       171.75
  283.68        2954.75           1286          39.00       141.24
  283.71        2955.00           1289          43.00       158.68
  283.75        2955.25           1292          52.00       197.91
  283.78        2955.50           1296          47.00       176.11
  283.81        2955.75           1299          42.00       154.32
  283.84        2956.00           1302          49.00       184.83
  283.87        2956.25           1306          44.00       163.03
  283.90        2956.50           1309          48.00       180.47
  283.93        2956.75           1312          41.00       149.96
  283.96        2957.00           1316          40.00       145.60
  283.99        2957.25           1319          47.00       176.11
  284.02        2957.50           1322          50.00       189.19
  284.05        2957.75           1326          50.00       189.19
  284.08        2958.00           1329          50.00       189.19
  284.11        2958.25           1332          54.00       206.63
  284.15        2958.50           1336          46.00       171.75
  284.18        2958.75           1339          43.00       158.68
  284.21        2959.00           1342          50.00       189.19
  284.24        2959.25           1346          47.00       176.11
  284.27        2959.50           1349          55.00       210.99
  284.30        2959.75           1352          65.00       254.58
  284.33        2960.00           1356          88.00       354.84
  284.36        2960.25           1359         126.00       520.50
  284.39        2960.50           1362         180.00       755.90
  284.42        2960.75           1366         211.00       891.04
  284.46        2961.00           1369         266.00      1130.81
  284.49        2961.25           1372         303.00      1292.12
  284.52        2961.50           1376         404.00      1732.44
  284.55        2961.75           1379         580.00      2499.75
  284.58        2962.00           1382        1177.00      5102.79
  284.61        2962.25           1386        2887.00     12560.97
  284.64        2962.50           1389        4462.00     19433.30
  284.67        2962.75           1392        5875.00     25601.17
  284.70        2963.00           1396        8069.00     35182.72
  284.73        2963.25           1399        9731.00     42444.60
  284.76        2963.50           1402       11250.00     49084.44
  284.80        2963.75           1406       13604.00     59379.45
  284.83        2964.00           1409       15283.00     66726.29
  284.86        2964.25           1412       16843.00     73555.34
  284.89        2964.50           1416       19282.00     84237.90
  284.92        2964.75           1419       20972.00     91643.94
  284.95        2965.00           1422       22757.00     99469.89
  284.98        2965.25           1426       24858.00    108686.00
  285.01        2965.50           1429       26538.00    116059.00
  285.04        2965.75           1432       28291.00    123755.90
  285.07        2966.00           1436       30615.00    133965.40
  285.11        2966.25           1439       32130.00    140624.30
  285.14        2966.50           1442       33650.00    147307.80
  285.17        2966.75           1446       35150.00    153906.00
  285.20        2967.00           1449       35402.00    155014.80
  285.23        2967.25           1452       35534.00    155595.60
  285.26        2967.50           1456       35686.00    156264.40
  285.29        2967.75           1459       35706.00    156352.40
  285.32        2968.00           1462       35566.00    155736.40
  285.35        2968.25           1466       34254.00    149964.40
  285.39        2968.50           1469       33015.00    144515.30
  285.42        2968.75           1472       31625.00    138404.40
  285.45        2969.00           1476       29494.00    129040.00
  285.48        2969.25           1479       28021.00    122570.20
  285.51        2969.50           1482       26399.00    115448.90
  285.54        2969.75           1486       24103.00    105373.60
  285.57        2970.00           1489       22474.00     98228.89
  285.60        2970.25           1492       20894.00     91302.05
  285.63        2970.50           1496       18762.00     81959.78
  285.67        2970.75           1499       17037.00     74404.78
  285.70        2971.00           1502       15413.00     67295.28
  285.73        2971.25           1506       13016.00     56807.28
  285.76        2971.50           1509       11456.00     49985.11
  285.79        2971.75           1513        9209.00     40163.45
  285.82        2972.00           1516        7594.00     33107.85
  285.85        2972.25           1519        6120.00     26670.85
  285.88        2972.50           1523        4016.00     17486.94
  285.92        2972.75           1526        2575.00     11199.93
  285.95        2973.00           1529        1341.00      5817.93
  285.98        2973.25           1533         486.00      2089.93
  286.01        2973.50           1536         323.00      1379.31
  286.04        2973.75           1539         272.00      1156.97
  286.07        2974.00           1543         239.00      1013.11
  286.10        2974.25           1546         171.00       716.67
  286.13        2974.50           1549         138.00       572.81
  286.16        2974.75           1553          95.00       385.36
  286.19        2975.00           1556          64.00       250.22
  286.22        2975.25           1559          54.00       206.63
  286.25        2975.50           1563          48.00       180.47
  286.29        2975.75           1566          45.00       167.39
  286.32        2976.00           1569          53.00       202.27
  286.35        2976.25           1573          43.00       158.68
  286.38        2976.50           1576          51.00       193.55
  286.41        2976.75           1579          49.00       184.83
  286.44        2977.00           1583          48.00       180.47
  286.47        2977.25           1586          51.00       193.55
  286.50        2977.50           1590          45.00       167.39
  286.53        2977.75           1593          45.00       167.39
  286.57        2978.00           1596          48.00       180.47
  286.60        2978.25           1600          41.00       149.96
  286.63        2978.50           1603          49.00       184.83
  286.66        2978.75           1606          45.00       167.39
  286.69        2979.00           1610          50.00       189.19
  286.72        2979.25           1613          44.00       163.03
  286.75        2979.50           1616          49.00       184.83
  286.78        2979.75           1620          45.00       167.39
  286.81        2980.00           1623          48.00       180.47
  286.84        2980.25           1626          42.00       154.32
  286.87        2980.50           1630          50.00       189.19
  286.90        2980.75           1633          44.00       163.03
  286.93        2981.00           1637          48.00       180.47
  286.96        2981.25           1640          46.00       171.75
  287.00        2981.50           1643          45.00       167.39
  287.03        2981.75           1647          39.00       141.24
  287.06        2982.00           1650          46.00       171.75
  287.09        2982.25           1653          41.00       149.96
  287.12        2982.50           1657          45.00       167.39
  287.15        2982.75           1660          40.00       145.60
  287.18        2983.00           1663          37.00       132.52
  287.21        2983.25           1667          43.00       158.68
  287.24        2983.50           1670          42.00       154.32
  287.27        2983.75           1673          46.00       171.75
  287.30        2984.00           1677          38.00       136.88
HS scan finished at 04:47:31
end
************************************************************
  HS Scan of (1) Internal mercury lamp
************************************************************
Integration time is 0.2294 seconds per sample
dh140217Manchester 53.47 2.23 2.804185pr1000
************************************************************
Dead Time -------------------------  3E-08 
Number of Cycles Used -------------  4 
Starting Wavelength (Angstroms) ---  2950 
Final Wavelength (Angstoms) -------  2984 
Wavelength Increment (Angstroms) --  .25 
Filter Wheel #1 Position ---------- (1) Ground quartz diffuser (ND=2.32)
Filter Wheel #2 Position ---------- (1) Neutral Density 0.494



************************************************************
HS scan start time = 18:12:00
Dark Count =  2.9 


Time (GMT)  Wavelength (Ang)  Step Number  Raw Counts  Counts/Second

 1092.37        2950.00           1222          43.00       174.80
 1092.44        2950.25           1226          45.00       183.52
 1092.47        2950.50           1229          41.00       166.09
 1092.50        2950.75           1232          43.00       174.80
 1092.53        2951.00           1236          44.00       179.16
 1092.56        2951.25           1239          45.00       183.52
 1092.59        2951.50           1242          47.00       192.24
 1092.62        2951.75           1246          41.00       166.09
 1092.65        2952.00           1249          50.00       205.32
 1092.68        2952.25           1252          41.00       166.09
 1092.71        2952.50           1256          51.00       209.68
 1092.74        2952.75           1259          47.00       192.24
 1092.77        2953.00           1262          43.00       174.80
 1092.80        2953.25           1266          44.00       179.16
 1092.83        2953.50           1269          45.00       183.52
 1092.87        2953.75           1272          52.00       214.04
 1092.90        2954.00           1276          39.00       157.37
 1092.93        2954.25           1279          39.00       157.37
 1092.96        2954.50           1282          50.00       205.32
 1092.99        2954.75           1286          49.00       200.96
 1093.02        2955.00           1289          40.00       161.73
 1093.05        2955.25           1292          49.00       200.96
 1093.08        2955.50           1296          43.00       174.80
 1093.11        2955.75           1299          43.00       174.80
 1093.14        2956.00           1302          41.00       166.09
 1093.17        2956.25           1306          44.00       179.16
 1093.20        2956.50           1309          39.00       157.37
 1093.24        2956.75           1312          46.00       187.88
 1093.27        2957.00           1316          44.00       179.16
 1093.30        2957.25           1319          45.00       183.52
 1093.33        2957.50           1322          42.00       170.45
 1093.36        2957.75           1326          36.00       144.29
 1093.39        2958.00           1329          38.00       153.01
 1093.42        2958.25           1332          49.00       200.96
 1093.45        2958.50           1336          52.00       214.04
 1093.48        2958.75           1339          51.00       209.68
 1093.51        2959.00           1342          44.00       179.16
 1093.54        2959.25           1346          47.00       192.24
 1093.57        2959.50           1349          50.00       205.32
 1093.60        2959.75           1352          64.00       266.35
 1093.64        2960.00           1356         100.00       423.28
 1093.67        2960.25           1359         129.00       549.70
 1093.70        2960.50           1362         172.00       737.16
 1093.73        2960.75           1366         225.00       968.21
 1093.76        2961.00           1369         287.00      1238.49
 1093.79        2961.25           1372         303.00      1308.25
 1093.82        2961.50           1376         388.00      1678.81
 1093.85        2961.75           1379         595.00      2581.28
 1093.88        2962.00           1382        1192.00      5184.33
 1093.91        2962.25           1386        2849.00     12411.33
 1093.95        2962.50           1389        4479.00     19523.64
 1093.98        2962.75           1392        6016.00     26232.93
 1094.01        2963.00           1396        8072.00     35211.98
 1094.05        2963.25           1399        9675.00     42216.03
 1094.09        2963.50           1402       11260.00     49144.33
 1094.12        2963.75           1406       13307.00     58096.37
 1094.15        2964.00           1409       14956.00     65311.37
 1094.18        2964.25           1412       16693.00     72914.78
 1094.21        2964.50           1416       18871.00     82453.49
 1094.24        2964.75           1419       20340.00     88890.18
 1094.27        2965.00           1422       22293.00     97451.44
 1094.30        2965.25           1426       24526.00    107245.60
 1094.33        2965.50           1429       26220.00    114679.40
 1094.37        2965.75           1432       27941.00    122235.10
 1094.40        2966.00           1436       29907.00    130870.70
 1094.43        2966.25           1439       31561.00    138139.30
 1094.46        2966.50           1442       33156.00    145151.60
 1094.49        2966.75           1446       34933.00    152967.60
 1094.52        2967.00           1449       35349.00    154797.90
 1094.55        2967.25           1452       35315.00    154648.30
 1094.58        2967.50           1456       35375.00    154912.30
 1094.61        2967.75           1459       35391.00    154982.70
 1094.65        2968.00           1462       35069.00    153565.90
 1094.68        2968.25           1466       34582.00    151423.50
 1094.71        2968.50           1469       33004.00    144483.30
 1094.74        2968.75           1472       31846.00    139392.10
 1094.77        2969.00           1476       29633.00    129666.90
 1094.80        2969.25           1479       28160.00    123196.90
 1094.83        2969.50           1482       26424.00    115574.80
 1094.86        2969.75           1486       24321.00    106346.20
 1094.89        2970.00           1489       22609.00     98837.09
 1094.92        2970.25           1492       21082.00     92142.32
 1094.95        2970.50           1496       18731.00     81840.18
 1094.99        2970.75           1499       17150.00     74915.78
 1095.02        2971.00           1502       15628.00     68252.52
 1095.05        2971.25           1506       13373.00     58385.09
 1095.08        2971.50           1509       11750.00     51286.79
 1095.11        2971.75           1513        9532.00     41591.09
 1095.14        2972.00           1516        7827.00     34141.75
 1095.17        2972.25           1519        6227.00     27154.19
 1095.20        2972.50           1523        4148.00     18079.12
 1095.23        2972.75           1526        2768.00     12057.98
 1095.26        2973.00           1529        1487.00      6470.74
 1095.29        2973.25           1533         553.00      2398.17
 1095.33        2973.50           1536         347.00      1500.07
 1095.36        2973.75           1539         284.00      1225.42
 1095.39        2974.00           1543         232.00       998.72
 1095.42        2974.25           1546         171.00       732.80
 1095.45        2974.50           1549         145.00       619.45
 1095.48        2974.75           1553          85.00       357.89
 1095.51        2975.00           1556          67.00       279.43
 1095.54        2975.25           1559          52.00       214.04
 1095.57        2975.50           1563          45.00       183.52
 1095.60        2975.75           1566          48.00       196.60
 1095.63        2976.00           1569          46.00       187.88
 1095.67        2976.25           1573          47.00       192.24
 1095.70        2976.50           1576          45.00       183.52
 1095.73        2976.75           1579          46.00       187.88
 1095.76        2977.00           1583          48.00       196.60
 1095.79        2977.25           1586          45.00       183.52
 1095.82        2977.50           1590          42.00       170.45
 1095.85        2977.75           1593          64.00       266.35
 1095.88        2978.00           1596          44.00       179.16
 1095.91        2978.25           1600          38.00       153.01
 1095.94        2978.50           1603          40.00       161.73
 1095.97        2978.75           1606          50.00       205.32
 1096.00        2979.00           1610          41.00       166.09
 1096.03        2979.25           1613          41.00       166.09
 1096.06        2979.50           1616          50.00       205.32
 1096.10        2979.75           1620          41.00       166.09
 1096.13        2980.00           1623          49.00       200.96
 1096.16        2980.25           1626          53.00       218.40
 1096.19        2980.50           1630          45.00       183.52
 1096.22        2980.75           1633          44.00       179.16
 1096.25        2981.00           1637          54.00       222.76
 1096.28        2981.25           1640          45.00       183.52
 1096.31        2981.50           1643          33.00       131.21
 1096.34        2981.75           1647          36.00       144.29
 1096.37        2982.00           1650          45.00       183.52
 1096.40        2982.25           1653          48.00       196.60
 1096.43        2982.50           1657          43.00       174.80
 1096.47        2982.75           1660          45.00       183.52
 1096.50        2983.00           1663          34.00       135.57
 1096.53        2983.25           1667          40.00       161.73
 1096.56        2983.50           1670          38.00       153.01
 1096.59        2983.75           1673          40.00       161.73
 1096.62        2984.00           1677          51.00       209.68
HS scan finished at 18:16:50
end
