************************************************************
  HS Scan of (1) Internal mercury lamp
************************************************************
Integration time is 0.2294 seconds per sample
dh140219Manchester 53.47 2.23 2.804185pr1000
************************************************************
Dead Time -------------------------  3E-08 
Number of Cycles Used -------------  4 
Starting Wavelength (Angstroms) ---  2950 
Final Wavelength (Angstoms) -------  2984 
Wavelength Increment (Angstroms) --  .25 
Filter Wheel #1 Position ---------- (1) Ground quartz diffuser (ND=2.32)
Filter Wheel #2 Position ---------- (1) Neutral Density 0.494



************************************************************
HS scan start time = 04:43:41
Dark Count =  6.7 


Time (GMT)  Wavelength (Ang)  Step Number  Raw Counts  Counts/Second

  284.05        2950.00           1222          54.00       206.19
  284.12        2950.25           1226          53.00       201.83
  284.15        2950.50           1229          55.00       210.55
  284.18        2950.75           1232          49.00       184.40
  284.21        2951.00           1236          55.00       210.55
  284.24        2951.25           1239          50.00       188.75
  284.27        2951.50           1242          51.00       193.11
  284.30        2951.75           1246          59.00       227.99
  284.33        2952.00           1249          56.00       214.91
  284.36        2952.25           1252          59.00       227.99
  284.40        2952.50           1256          57.00       219.27
  284.43        2952.75           1259          54.00       206.19
  284.46        2953.00           1262          56.00       214.91
  284.49        2953.25           1266          46.00       171.32
  284.52        2953.50           1269          52.00       197.47
  284.55        2953.75           1272          51.00       193.11
  284.58        2954.00           1276          65.00       254.14
  284.61        2954.25           1279          52.00       197.47
  284.64        2954.50           1282          51.00       193.11
  284.67        2954.75           1286          50.00       188.75
  284.70        2955.00           1289          54.00       206.19
  284.73        2955.25           1292          56.00       214.91
  284.76        2955.50           1296          56.00       214.91
  284.80        2955.75           1299          50.00       188.75
  284.83        2956.00           1302          56.00       214.91
  284.86        2956.25           1306          55.00       210.55
  284.89        2956.50           1309          49.00       184.40
  284.92        2956.75           1312          61.00       236.71
  284.95        2957.00           1316          56.00       214.91
  284.98        2957.25           1319          53.00       201.83
  285.01        2957.50           1322          51.00       193.11
  285.04        2957.75           1326          60.00       232.35
  285.07        2958.00           1329          56.00       214.91
  285.10        2958.25           1332          53.00       201.83
  285.14        2958.50           1336          57.00       219.27
  285.17        2958.75           1339          67.00       262.86
  285.20        2959.00           1342          54.00       206.19
  285.23        2959.25           1346          59.00       227.99
  285.26        2959.50           1349          57.00       219.27
  285.29        2959.75           1352          62.00       241.07
  285.32        2960.00           1356          97.00       393.64
  285.35        2960.25           1359         104.00       424.16
  285.38        2960.50           1362         130.00       537.50
  285.41        2960.75           1366         177.00       742.39
  285.44        2961.00           1369         214.00       903.69
  285.47        2961.25           1372         238.00      1008.31
  285.50        2961.50           1376         294.00      1252.44
  285.54        2961.75           1379         338.00      1444.26
  285.57        2962.00           1382         515.00      2215.93
  285.60        2962.25           1386        1483.00      6436.73
  285.63        2962.50           1389        2583.00     11234.39
  285.66        2962.75           1392        3643.00     15858.90
  285.69        2963.00           1396        5233.00     22798.06
  285.72        2963.25           1399        6489.00     28281.61
  285.75        2963.50           1402        7645.00     33330.17
  285.78        2963.75           1406        9288.00     40508.22
  285.81        2964.00           1409       10590.00     46198.69
  285.84        2964.25           1412       11743.00     51239.57
  285.87        2964.50           1416       13539.00     59094.65
  285.91        2964.75           1419       14717.00     64248.83
  285.94        2965.00           1422       15989.00     69816.08
  285.97        2965.25           1426       17841.00     77925.21
  286.00        2965.50           1429       19115.00     83505.80
  286.03        2965.75           1432       20184.00     88189.87
  286.06        2966.00           1436       21996.00     96132.56
  286.09        2966.25           1439       22963.00    100372.90
  286.12        2966.50           1442       24187.00    105741.60
  286.15        2966.75           1446       25795.00    112797.40
  286.19        2967.00           1449       26330.00    115145.60
  286.22        2967.25           1452       26603.00    116343.90
  286.25        2967.50           1456       26533.00    116036.60
  286.28        2967.75           1459       26506.00    115918.10
  286.31        2968.00           1462       26510.00    115935.70
  286.34        2968.25           1466       26290.00    114970.00
  286.37        2968.50           1469       25611.00    111989.90
  286.40        2968.75           1472       24702.00    108001.10
  286.43        2969.00           1476       23012.00    100587.70
  286.46        2969.25           1479       21808.00     95308.31
  286.50        2969.50           1482       20641.00     90192.71
  286.53        2969.75           1486       18895.00     82541.99
  286.56        2970.00           1489       17820.00     77833.23
  286.59        2970.25           1492       16557.00     72302.70
  286.62        2970.50           1496       15072.00     65802.40
  286.65        2970.75           1499       13878.00     60577.74
  286.68        2971.00           1502       12713.00     55481.55
  286.71        2971.25           1506       10982.00     47912.32
  286.74        2971.50           1509        9677.00     42208.17
  286.77        2971.75           1513        8123.00     35418.17
  286.81        2972.00           1516        6935.00     30229.23
  286.84        2972.25           1519        5785.00     25207.81
  286.87        2972.50           1523        4236.00     18446.56
  286.90        2972.75           1526        3032.00     13193.10
  286.93        2973.00           1529        1820.00      7906.41
  286.96        2973.25           1533         617.00      2660.63
  286.99        2973.50           1536         325.00      1387.59
  287.02        2973.75           1539         257.00      1091.14
  287.05        2974.00           1543         202.00       851.37
  287.08        2974.25           1546         154.00       642.12
  287.12        2974.50           1549         112.00       459.03
  287.15        2974.75           1553          84.00       336.97
  287.18        2975.00           1556          69.00       271.58
  287.21        2975.25           1559          62.00       241.07
  287.24        2975.50           1563          59.00       227.99
  287.27        2975.75           1566          47.00       175.68
  287.30        2976.00           1569          55.00       210.55
  287.33        2976.25           1573          53.00       201.83
  287.36        2976.50           1576          56.00       214.91
  287.39        2976.75           1579          52.00       197.47
  287.43        2977.00           1583          46.00       171.32
  287.46        2977.25           1586          51.00       193.11
  287.49        2977.50           1590          52.00       197.47
  287.52        2977.75           1593          49.00       184.40
  287.55        2978.00           1596          53.00       201.83
  287.58        2978.25           1600          50.00       188.75
  287.61        2978.50           1603          52.00       197.47
  287.64        2978.75           1606          53.00       201.83
  287.67        2979.00           1610          50.00       188.75
  287.70        2979.25           1613          46.00       171.32
  287.73        2979.50           1616          48.00       180.04
  287.76        2979.75           1620          52.00       197.47
  287.79        2980.00           1623          50.00       188.75
  287.82        2980.25           1626          53.00       201.83
  287.86        2980.50           1630          64.00       249.78
  287.89        2980.75           1633          54.00       206.19
  287.92        2981.00           1637          50.00       188.75
  287.95        2981.25           1640          54.00       206.19
  287.98        2981.50           1643          45.00       166.96
  288.01        2981.75           1647          52.00       197.47
  288.04        2982.00           1650          52.00       197.47
  288.07        2982.25           1653          42.00       153.88
  288.10        2982.50           1657          60.00       232.35
  288.13        2982.75           1660          49.00       184.40
  288.17        2983.00           1663          53.00       201.83
  288.20        2983.25           1667          47.00       175.68
  288.23        2983.50           1670          52.00       197.47
  288.26        2983.75           1673          51.00       193.11
  288.29        2984.00           1677          41.00       149.52
HS scan finished at 04:48:30
end
************************************************************
  HS Scan of (1) Internal mercury lamp
************************************************************
Integration time is 0.2294 seconds per sample
dh140219Manchester 53.47 2.23 2.804185pr1000
************************************************************
Dead Time -------------------------  3E-08 
Number of Cycles Used -------------  4 
Starting Wavelength (Angstroms) ---  2950 
Final Wavelength (Angstoms) -------  2984 
Wavelength Increment (Angstroms) --  .25 
Filter Wheel #1 Position ---------- (1) Ground quartz diffuser (ND=2.32)
Filter Wheel #2 Position ---------- (1) Neutral Density 0.494



************************************************************
HS scan start time = 18:12:07
Dark Count =  5 


Time (GMT)  Wavelength (Ang)  Step Number  Raw Counts  Counts/Second

 1092.49        2950.00           1222          50.00       196.17
 1092.56        2950.25           1226          58.00       231.04
 1092.59        2950.50           1229          58.00       231.04
 1092.62        2950.75           1232          54.00       213.60
 1092.65        2951.00           1236          54.00       213.60
 1092.68        2951.25           1239          56.00       222.32
 1092.71        2951.50           1242          57.00       226.68
 1092.74        2951.75           1246          48.00       187.45
 1092.77        2952.00           1249          54.00       213.60
 1092.80        2952.25           1252          57.00       226.68
 1092.84        2952.50           1256          52.00       204.88
 1092.87        2952.75           1259          56.00       222.32
 1092.90        2953.00           1262          55.00       217.96
 1092.93        2953.25           1266          59.00       235.40
 1092.96        2953.50           1269          63.00       252.84
 1092.99        2953.75           1272          58.00       231.04
 1093.02        2954.00           1276          66.00       265.91
 1093.05        2954.25           1279          58.00       231.04
 1093.08        2954.50           1282          56.00       222.32
 1093.11        2954.75           1286          62.00       248.48
 1093.14        2955.00           1289          51.00       200.52
 1093.18        2955.25           1292          61.00       244.12
 1093.21        2955.50           1296          65.00       261.55
 1093.24        2955.75           1299          51.00       200.52
 1093.27        2956.00           1302          62.00       248.48
 1093.30        2956.25           1306          55.00       217.96
 1093.33        2956.50           1309          49.00       191.81
 1093.36        2956.75           1312          61.00       244.12
 1093.39        2957.00           1316          59.00       235.40
 1093.42        2957.25           1319          62.00       248.48
 1093.45        2957.50           1322          57.00       226.68
 1093.48        2957.75           1326          62.00       248.48
 1093.52        2958.00           1329          54.00       213.60
 1093.55        2958.25           1332          59.00       235.40
 1093.58        2958.50           1336          57.00       226.68
 1093.61        2958.75           1339          56.00       222.32
 1093.64        2959.00           1342          51.00       200.52
 1093.67        2959.25           1346          56.00       222.32
 1093.70        2959.50           1349          67.00       270.27
 1093.73        2959.75           1352          73.00       296.43
 1093.76        2960.00           1356         101.00       418.49
 1093.79        2960.25           1359         126.00       527.47
 1093.82        2960.50           1362         153.00       645.17
 1093.85        2960.75           1366         203.00       863.14
 1093.88        2961.00           1369         234.00       998.29
 1093.91        2961.25           1372         257.00      1098.55
 1093.95        2961.50           1376         349.00      1499.63
 1093.98        2961.75           1379         570.00      2463.13
 1094.01        2962.00           1382        1353.00      5877.24
 1094.04        2962.25           1386        2900.00     12624.66
 1094.07        2962.50           1389        4154.00     18096.13
 1094.10        2962.75           1392        5412.00     23586.87
 1094.13        2963.00           1396        6947.00     30289.06
 1094.16        2963.25           1399        8173.00     35644.02
 1094.19        2963.50           1402        9319.00     40651.11
 1094.22        2963.75           1406       10915.00     47626.85
 1094.25        2964.00           1409       12162.00     53079.23
 1094.28        2964.25           1412       13484.00     58861.48
 1094.31        2964.50           1416       15146.00     66133.71
 1094.35        2964.75           1419       16319.00     71268.16
 1094.38        2965.00           1422       17631.00     77012.95
 1094.41        2965.25           1426       19245.00     84082.80
 1094.44        2965.50           1429       20569.00     89884.60
 1094.47        2965.75           1432       21890.00     95675.27
 1094.50        2966.00           1436       23367.00    102152.20
 1094.53        2966.25           1439       24509.00    107161.80
 1094.56        2966.50           1442       25599.00    111944.60
 1094.59        2966.75           1446       26503.00    115912.40
 1094.62        2967.00           1449       26620.00    116426.00
 1094.65        2967.25           1452       26511.00    115947.50
 1094.69        2967.50           1456       26558.00    116153.80
 1094.72        2967.75           1459       26463.00    115736.80
 1094.75        2968.00           1462       26243.00    114771.10
 1094.78        2968.25           1466       25214.00    110255.10
 1094.81        2968.50           1469       24080.00    105279.70
 1094.84        2968.75           1472       22905.00    100125.90
 1094.87        2969.00           1476       21255.00     92891.47
 1094.90        2969.25           1479       19924.00     87057.94
 1094.93        2969.50           1482       18909.00     82610.76
 1094.96        2969.75           1486       17415.00     76067.03
 1095.00        2970.00           1489       16089.00     70261.28
 1095.03        2970.25           1492       14819.00     64702.64
 1095.06        2970.50           1496       13213.00     57676.00
 1095.09        2970.75           1499       11999.00     52366.43
 1095.12        2971.00           1502       10761.00     46953.63
 1095.15        2971.25           1506        9158.00     39947.58
 1095.18        2971.50           1509        7890.00     34407.77
 1095.21        2971.75           1513        6198.00     27018.41
 1095.24        2972.00           1516        4948.00     21561.46
 1095.27        2972.25           1519        3717.00     16189.20
 1095.30        2972.50           1523        2238.00      9736.93
 1095.34        2972.75           1526        1238.00      5375.76
 1095.37        2973.00           1529         528.00      2280.02
 1095.40        2973.25           1533         311.00      1333.97
 1095.43        2973.50           1536         271.00      1159.59
 1095.46        2973.75           1539         221.00       941.61
 1095.49        2974.00           1543         203.00       863.14
 1095.52        2974.25           1546         149.00       627.74
 1095.55        2974.50           1549         109.00       453.36
 1095.58        2974.75           1553          87.00       357.46
 1095.61        2975.00           1556          65.00       261.55
 1095.64        2975.25           1559          56.00       222.32
 1095.67        2975.50           1563          52.00       204.88
 1095.70        2975.75           1566          49.00       191.81
 1095.73        2976.00           1569          53.00       209.24
 1095.77        2976.25           1573          60.00       239.76
 1095.80        2976.50           1576          57.00       226.68
 1095.83        2976.75           1579          55.00       217.96
 1095.86        2977.00           1583          55.00       217.96
 1095.89        2977.25           1586          56.00       222.32
 1095.92        2977.50           1590          47.00       183.09
 1095.95        2977.75           1593          46.00       178.73
 1095.98        2978.00           1596          48.00       187.45
 1096.01        2978.25           1600          59.00       235.40
 1096.04        2978.50           1603          52.00       204.88
 1096.07        2978.75           1606          57.00       226.68
 1096.10        2979.00           1610          50.00       196.17
 1096.13        2979.25           1613          49.00       191.81
 1096.16        2979.50           1616          46.00       178.73
 1096.19        2979.75           1620          51.00       200.52
 1096.22        2980.00           1623          44.00       170.01
 1096.26        2980.25           1626          58.00       231.04
 1096.29        2980.50           1630          52.00       204.88
 1096.32        2980.75           1633          53.00       209.24
 1096.35        2981.00           1637          49.00       191.81
 1096.38        2981.25           1640          50.00       196.17
 1096.41        2981.50           1643          54.00       213.60
 1096.44        2981.75           1647          57.00       226.68
 1096.47        2982.00           1650          47.00       183.09
 1096.50        2982.25           1653          46.00       178.73
 1096.53        2982.50           1657          47.00       183.09
 1096.56        2982.75           1660          55.00       217.96
 1096.60        2983.00           1663          50.00       196.17
 1096.63        2983.25           1667          51.00       200.52
 1096.66        2983.50           1670          42.00       161.29
 1096.69        2983.75           1673          44.00       170.01
 1096.72        2984.00           1677          50.00       196.17
HS scan finished at 18:16:56
end
