************************************************************
  HS Scan of (1) Internal mercury lamp
************************************************************
Integration time is 0.2294 seconds per sample
dh160219Manchester 53.47 2.23 2.804185pr1000
************************************************************
Dead Time -------------------------  3E-08 
Number of Cycles Used -------------  4 
Starting Wavelength (Angstroms) ---  2950 
Final Wavelength (Angstoms) -------  2984 
Wavelength Increment (Angstroms) --  .25 
Filter Wheel #1 Position ---------- (1) Ground quartz diffuser (ND=2.32)
Filter Wheel #2 Position ---------- (1) Neutral Density 0.494



************************************************************
HS scan start time = 04:39:38
Dark Count =  6.8 


Time (GMT)  Wavelength (Ang)  Step Number  Raw Counts  Counts/Second

  280.01        2950.00           1222          58.00       223.19
  280.08        2950.25           1226          59.00       227.55
  280.11        2950.50           1229          57.00       218.83
  280.14        2950.75           1232          58.00       223.19
  280.17        2951.00           1236          59.00       227.55
  280.20        2951.25           1239          61.00       236.27
  280.23        2951.50           1242          60.00       231.91
  280.26        2951.75           1246          51.00       192.68
  280.29        2952.00           1249          54.00       205.76
  280.32        2952.25           1252          52.00       197.04
  280.35        2952.50           1256          49.00       183.96
  280.39        2952.75           1259          55.00       210.11
  280.42        2953.00           1262          63.00       244.99
  280.45        2953.25           1266          59.00       227.55
  280.48        2953.50           1269          56.00       214.47
  280.51        2953.75           1272          54.00       205.76
  280.54        2954.00           1276          60.00       231.91
  280.57        2954.25           1279          56.00       214.47
  280.60        2954.50           1282          56.00       214.47
  280.63        2954.75           1286          51.00       192.68
  280.66        2955.00           1289          54.00       205.76
  280.69        2955.25           1292          56.00       214.47
  280.72        2955.50           1296          48.00       179.60
  280.75        2955.75           1299          59.00       227.55
  280.78        2956.00           1302          56.00       214.47
  280.81        2956.25           1306          57.00       218.83
  280.85        2956.50           1309          50.00       188.32
  280.88        2956.75           1312          50.00       188.32
  280.91        2957.00           1316          58.00       223.19
  280.94        2957.25           1319          56.00       214.47
  280.97        2957.50           1322          59.00       227.55
  281.00        2957.75           1326          55.00       210.11
  281.03        2958.00           1329          57.00       218.83
  281.06        2958.25           1332          64.00       249.35
  281.09        2958.50           1336          49.00       183.96
  281.12        2958.75           1339          52.00       197.04
  281.15        2959.00           1342          56.00       214.47
  281.18        2959.25           1346          55.00       210.11
  281.22        2959.50           1349          61.00       236.27
  281.25        2959.75           1352          76.00       301.66
  281.28        2960.00           1356         107.00       436.80
  281.31        2960.25           1359         121.00       497.83
  281.34        2960.50           1362         160.00       667.84
  281.37        2960.75           1366         192.00       807.34
  281.40        2961.00           1369         226.00       955.56
  281.43        2961.25           1372         261.00      1108.15
  281.46        2961.50           1376         301.00      1282.53
  281.49        2961.75           1379         403.00      1727.20
  281.52        2962.00           1382         758.00      3274.95
  281.55        2962.25           1386        2063.00      8965.80
  281.58        2962.50           1389        3127.00     13607.12
  281.61        2962.75           1392        4310.00     18769.07
  281.64        2963.00           1396        5840.00     25447.50
  281.67        2963.25           1399        6969.00     30377.28
  281.71        2963.50           1402        8195.00     35732.27
  281.74        2963.75           1406        9788.00     42692.83
  281.77        2964.00           1409       11043.00     48178.57
  281.80        2964.25           1412       12346.00     53876.03
  281.83        2964.50           1416       14017.00     61185.45
  281.86        2964.75           1419       15164.00     66204.60
  281.89        2965.00           1422       16484.00     71982.66
  281.92        2965.25           1426       18080.00     78971.53
  281.95        2965.50           1429       19258.00     84131.86
  281.99        2965.75           1432       20388.00     89083.44
  282.02        2966.00           1436       22093.00     96557.41
  282.05        2966.25           1439       22977.00    100433.80
  282.08        2966.50           1442       24217.00    105872.80
  282.11        2966.75           1446       25363.00    110901.10
  282.14        2967.00           1449       25878.00    113161.20
  282.17        2967.25           1452       26116.00    114205.80
  282.20        2967.50           1456       26118.00    114214.60
  282.24        2967.75           1459       25797.00    112805.70
  282.27        2968.00           1462       25854.00    113055.90
  282.30        2968.25           1466       25181.00    110102.40
  282.33        2968.50           1469       24210.00    105842.10
  282.36        2968.75           1472       22955.00    100337.30
  282.39        2969.00           1476       21378.00     93422.76
  282.42        2969.25           1479       20279.00     88605.75
  282.45        2969.50           1482       19142.00     83623.65
  282.48        2969.75           1486       17503.00     76444.51
  282.51        2970.00           1489       16457.00     71864.46
  282.54        2970.25           1492       15239.00     66532.85
  282.58        2970.50           1496       13557.00     59172.96
  282.61        2970.75           1499       12338.00     53841.04
  282.64        2971.00           1502       11188.00     48812.49
  282.67        2971.25           1506        9576.00     41766.34
  282.70        2971.50           1509        8367.00     36483.68
  282.73        2971.75           1513        6873.00     29958.04
  282.76        2972.00           1516        5734.00     24984.72
  282.79        2972.25           1519        4593.00     20004.16
  282.82        2972.50           1523        3083.00     13415.16
  282.85        2972.75           1526        1916.00      8324.66
  282.89        2973.00           1529         885.00      3828.69
  282.92        2973.25           1533         363.00      1552.82
  282.95        2973.50           1536         256.00      1086.35
  282.98        2973.75           1539         233.00       986.08
  283.01        2974.00           1543         193.00       811.70
  283.04        2974.25           1546         157.00       654.76
  283.07        2974.50           1549         114.00       467.31
  283.10        2974.75           1553          82.00       327.81
  283.13        2975.00           1556          60.00       231.91
  283.16        2975.25           1559          61.00       236.27
  283.20        2975.50           1563          51.00       192.68
  283.23        2975.75           1566          53.00       201.40
  283.26        2976.00           1569          56.00       214.47
  283.29        2976.25           1573          45.00       166.52
  283.32        2976.50           1576          52.00       197.04
  283.35        2976.75           1579          58.00       223.19
  283.38        2977.00           1583          55.00       210.11
  283.41        2977.25           1586          60.00       231.91
  283.44        2977.50           1590          51.00       192.68
  283.47        2977.75           1593          50.00       188.32
  283.50        2978.00           1596          57.00       218.83
  283.53        2978.25           1600          43.00       157.80
  283.56        2978.50           1603          50.00       188.32
  283.59        2978.75           1606          46.00       170.88
  283.62        2979.00           1610          54.00       205.76
  283.65        2979.25           1613          55.00       210.11
  283.69        2979.50           1616          51.00       192.68
  283.72        2979.75           1620          51.00       192.68
  283.75        2980.00           1623          54.00       205.76
  283.78        2980.25           1626          55.00       210.11
  283.81        2980.50           1630          51.00       192.68
  283.84        2980.75           1633          52.00       197.04
  283.87        2981.00           1637          45.00       166.52
  283.90        2981.25           1640          52.00       197.04
  283.93        2981.50           1643          48.00       179.60
  283.96        2981.75           1647          50.00       188.32
  283.99        2982.00           1650          52.00       197.04
  284.02        2982.25           1653          45.00       166.52
  284.05        2982.50           1657          51.00       192.68
  284.08        2982.75           1660          48.00       179.60
  284.11        2983.00           1663          50.00       188.32
  284.14        2983.25           1667          50.00       188.32
  284.17        2983.50           1670          49.00       183.96
  284.21        2983.75           1673          53.00       201.40
  284.24        2984.00           1677          50.00       188.32
HS scan finished at 04:44:27
end
************************************************************
  HS Scan of (1) Internal mercury lamp
************************************************************
Integration time is 0.2294 seconds per sample
dh160219Manchester 53.47 2.23 2.804185pr1000
************************************************************
Dead Time -------------------------  3E-08 
Number of Cycles Used -------------  4 
Starting Wavelength (Angstroms) ---  2950 
Final Wavelength (Angstoms) -------  2984 
Wavelength Increment (Angstroms) --  .25 
Filter Wheel #1 Position ---------- (1) Ground quartz diffuser (ND=2.32)
Filter Wheel #2 Position ---------- (1) Neutral Density 0.494



************************************************************
HS scan start time = 18:12:05
Dark Count =  6.7 


Time (GMT)  Wavelength (Ang)  Step Number  Raw Counts  Counts/Second

 1092.45        2950.00           1222          52.00       197.47
 1092.52        2950.25           1226          53.00       201.83
 1092.55        2950.50           1229          57.00       219.27
 1092.58        2950.75           1232          58.00       223.63
 1092.61        2951.00           1236          59.00       227.99
 1092.64        2951.25           1239          49.00       184.40
 1092.68        2951.50           1242          45.00       166.96
 1092.71        2951.75           1246          58.00       223.63
 1092.74        2952.00           1249          58.00       223.63
 1092.77        2952.25           1252          45.00       166.96
 1092.80        2952.50           1256          56.00       214.91
 1092.83        2952.75           1259          53.00       201.83
 1092.86        2953.00           1262          59.00       227.99
 1092.89        2953.25           1266          47.00       175.68
 1092.92        2953.50           1269          53.00       201.83
 1092.95        2953.75           1272          58.00       223.63
 1092.98        2954.00           1276          57.00       219.27
 1093.01        2954.25           1279          65.00       254.14
 1093.04        2954.50           1282          58.00       223.63
 1093.08        2954.75           1286          56.00       214.91
 1093.11        2955.00           1289          66.00       258.50
 1093.14        2955.25           1292          58.00       223.63
 1093.17        2955.50           1296          52.00       197.47
 1093.20        2955.75           1299          50.00       188.75
 1093.23        2956.00           1302          54.00       206.19
 1093.26        2956.25           1306          49.00       184.40
 1093.29        2956.50           1309          48.00       180.04
 1093.33        2956.75           1312          49.00       184.40
 1093.36        2957.00           1316          53.00       201.83
 1093.39        2957.25           1319          57.00       219.27
 1093.42        2957.50           1322          55.00       210.55
 1093.45        2957.75           1326          53.00       201.83
 1093.48        2958.00           1329          52.00       197.47
 1093.51        2958.25           1332          55.00       210.55
 1093.54        2958.50           1336          55.00       210.55
 1093.57        2958.75           1339          47.00       175.68
 1093.60        2959.00           1342          53.00       201.83
 1093.63        2959.25           1346          63.00       245.42
 1093.67        2959.50           1349          64.00       249.78
 1093.70        2959.75           1352          65.00       254.14
 1093.73        2960.00           1356          95.00       384.92
 1093.76        2960.25           1359         133.00       550.58
 1093.79        2960.50           1362         155.00       646.48
 1093.82        2960.75           1366         203.00       855.73
 1093.85        2961.00           1369         223.00       942.92
 1093.88        2961.25           1372         254.00      1078.06
 1093.91        2961.50           1376         311.00      1326.56
 1093.95        2961.75           1379         414.00      1775.60
 1093.98        2962.00           1382         916.00      3964.29
 1094.01        2962.25           1386        2139.00      9297.71
 1094.04        2962.50           1389        3223.00     14026.39
 1094.07        2962.75           1392        4450.00     19380.49
 1094.10        2963.00           1396        6026.00     26260.00
 1094.13        2963.25           1399        7220.00     31473.91
 1094.16        2963.50           1402        8401.00     36632.65
 1094.19        2963.75           1406        9986.00     43558.63
 1094.23        2964.00           1409       11229.00     48992.18
 1094.26        2964.25           1412       12522.00     54646.18
 1094.29        2964.50           1416       14217.00     62060.96
 1094.32        2964.75           1419       15350.00     67019.10
 1094.35        2965.00           1422       16433.00     71759.81
 1094.38        2965.25           1426       18062.00     78893.15
 1094.41        2965.50           1429       19309.00     84355.77
 1094.44        2965.75           1432       20491.00     89535.31
 1094.47        2966.00           1436       22237.00     97189.24
 1094.50        2966.25           1439       23374.00    102175.40
 1094.53        2966.50           1442       24293.00    106206.70
 1094.56        2966.75           1446       25490.00    111458.80
 1094.60        2967.00           1449       25930.00    113389.90
 1094.63        2967.25           1452       25920.00    113346.00
 1094.66        2967.50           1456       25910.00    113302.10
 1094.69        2967.75           1459       25798.00    112810.50
 1094.72        2968.00           1462       25785.00    112753.50
 1094.75        2968.25           1466       25281.00    110541.70
 1094.78        2968.50           1469       24185.00    105732.90
 1094.81        2968.75           1472       23033.00    100679.80
 1094.84        2969.00           1476       21673.00     94716.44
 1094.87        2969.25           1479       20276.00     88593.05
 1094.90        2969.50           1482       18910.00     82607.71
 1094.93        2969.75           1486       17377.00     75893.18
 1094.97        2970.00           1489       16190.00     70695.99
 1095.00        2970.25           1492       15216.00     66432.62
 1095.03        2970.50           1496       13736.00     59956.49
 1095.06        2970.75           1499       12343.00     53863.34
 1095.09        2971.00           1502       11271.00     49175.81
 1095.12        2971.25           1506        9813.00     42802.53
 1095.15        2971.50           1509        8556.00     37309.83
 1095.18        2971.75           1513        6885.00     30010.88
 1095.21        2972.00           1516        5624.00     24504.93
 1095.24        2972.25           1519        4367.00     19018.26
 1095.28        2972.50           1523        2947.00     12822.28
 1095.31        2972.75           1526        1791.00      7779.93
 1095.34        2973.00           1529         863.00      3733.20
 1095.37        2973.25           1533         368.00      1575.05
 1095.40        2973.50           1536         254.00      1078.06
 1095.43        2973.75           1539         225.00       951.64
 1095.46        2974.00           1543         189.00       794.70
 1095.49        2974.25           1546         150.00       624.68
 1095.52        2974.50           1549         106.00       432.87
 1095.56        2974.75           1553          79.00       315.17
 1095.59        2975.00           1556          62.00       241.07
 1095.62        2975.25           1559          50.00       188.75
 1095.65        2975.50           1563          55.00       210.55
 1095.68        2975.75           1566          55.00       210.55
 1095.71        2976.00           1569          56.00       214.91
 1095.74        2976.25           1573          48.00       180.04
 1095.77        2976.50           1576          71.00       280.30
 1095.80        2976.75           1579          58.00       223.63
 1095.83        2977.00           1583          52.00       197.47
 1095.86        2977.25           1586          51.00       193.11
 1095.89        2977.50           1590          50.00       188.75
 1095.93        2977.75           1593          53.00       201.83
 1095.96        2978.00           1596          49.00       184.40
 1095.99        2978.25           1600          52.00       197.47
 1096.02        2978.50           1603          52.00       197.47
 1096.05        2978.75           1606          53.00       201.83
 1096.08        2979.00           1610          54.00       206.19
 1096.11        2979.25           1613          55.00       210.55
 1096.14        2979.50           1616          53.00       201.83
 1096.18        2979.75           1620          44.00       162.60
 1096.21        2980.00           1623          49.00       184.40
 1096.24        2980.25           1626          49.00       184.40
 1096.27        2980.50           1630          46.00       171.32
 1096.30        2980.75           1633          49.00       184.40
 1096.33        2981.00           1637          52.00       197.47
 1096.36        2981.25           1640          51.00       193.11
 1096.39        2981.50           1643          59.00       227.99
 1096.42        2981.75           1647          47.00       175.68
 1096.45        2982.00           1650          47.00       175.68
 1096.48        2982.25           1653          56.00       214.91
 1096.51        2982.50           1657          42.00       153.88
 1096.55        2982.75           1660          46.00       171.32
 1096.58        2983.00           1663          47.00       175.68
 1096.61        2983.25           1667          53.00       201.83
 1096.64        2983.50           1670          43.00       158.24
 1096.67        2983.75           1673          42.00       153.88
 1096.70        2984.00           1677          47.00       175.68
HS scan finished at 18:16:55
end
