************************************************************
  HS Scan of (1) Internal mercury lamp
************************************************************
Integration time is 0.2294 seconds per sample
dh170217Manchester 53.47 2.23 2.804185pr1000
************************************************************
Dead Time -------------------------  3E-08 
Number of Cycles Used -------------  4 
Starting Wavelength (Angstroms) ---  2950 
Final Wavelength (Angstoms) -------  2984 
Wavelength Increment (Angstroms) --  .25 
Filter Wheel #1 Position ---------- (1) Ground quartz diffuser (ND=2.32)
Filter Wheel #2 Position ---------- (1) Neutral Density 0.494



************************************************************
HS scan start time = 04:36:22
Dark Count =  5.6 


Time (GMT)  Wavelength (Ang)  Step Number  Raw Counts  Counts/Second

  276.73        2950.00           1222          47.00       180.47
  276.79        2950.25           1226          51.00       197.91
  276.82        2950.50           1229          47.00       180.47
  276.86        2950.75           1232          43.00       163.03
  276.89        2951.00           1236          49.00       189.19
  276.92        2951.25           1239          44.00       167.39
  276.95        2951.50           1242          42.00       158.68
  276.98        2951.75           1246          38.00       141.24
  277.01        2952.00           1249          42.00       158.68
  277.04        2952.25           1252          46.00       176.11
  277.07        2952.50           1256          42.00       158.68
  277.11        2952.75           1259          47.00       180.47
  277.14        2953.00           1262          42.00       158.68
  277.17        2953.25           1266          69.00       276.38
  277.20        2953.50           1269          47.00       180.47
  277.23        2953.75           1272          47.00       180.47
  277.26        2954.00           1276          49.00       189.19
  277.29        2954.25           1279          45.00       171.75
  277.32        2954.50           1282          61.00       241.50
  277.35        2954.75           1286          38.00       141.24
  277.38        2955.00           1289          42.00       158.68
  277.41        2955.25           1292          41.00       154.32
  277.44        2955.50           1296          41.00       154.32
  277.47        2955.75           1299          43.00       163.03
  277.50        2956.00           1302          40.00       149.96
  277.54        2956.25           1306          42.00       158.68
  277.57        2956.50           1309          36.00       132.52
  277.60        2956.75           1312          50.00       193.55
  277.63        2957.00           1316          53.00       206.63
  277.66        2957.25           1319          43.00       163.03
  277.69        2957.50           1322          49.00       189.19
  277.72        2957.75           1326          40.00       149.96
  277.75        2958.00           1329          42.00       158.68
  277.78        2958.25           1332          44.00       167.39
  277.81        2958.50           1336          49.00       189.19
  277.84        2958.75           1339          47.00       180.47
  277.87        2959.00           1342          44.00       167.39
  277.90        2959.25           1346          49.00       189.19
  277.93        2959.50           1349          51.00       197.91
  277.97        2959.75           1352          56.00       219.71
  278.00        2960.00           1356          92.00       376.64
  278.03        2960.25           1359         126.00       524.86
  278.06        2960.50           1362         156.00       655.64
  278.09        2960.75           1366         203.00       860.53
  278.12        2961.00           1369         262.00      1117.74
  278.15        2961.25           1372         291.00      1244.16
  278.18        2961.50           1376         370.00      1588.57
  278.21        2961.75           1379         503.00      2168.41
  278.24        2962.00           1382         898.00      3890.60
  278.27        2962.25           1386        2426.00     10554.35
  278.30        2962.50           1389        3923.00     17085.48
  278.33        2962.75           1392        5550.00     24186.68
  278.37        2963.00           1396        7842.00     34195.48
  278.40        2963.25           1399        9548.00     41649.22
  278.43        2963.50           1402       11072.00     48310.60
  278.46        2963.75           1406       13302.00     58062.69
  278.49        2964.00           1409       14936.00     65212.03
  278.52        2964.25           1412       16595.00     72473.88
  278.55        2964.50           1416       18920.00     82656.33
  278.58        2964.75           1419       20729.00     90583.24
  278.61        2965.00           1422       22330.00     97601.84
  278.65        2965.25           1426       24540.00    107295.10
  278.68        2965.50           1429       26144.00    114334.00
  278.71        2965.75           1432       27869.00    121907.10
  278.74        2966.00           1436       29951.00    131052.20
  278.77        2966.25           1439       31450.00    137639.60
  278.80        2966.50           1442       33071.00    144766.00
  278.83        2966.75           1446       34850.00    152590.60
  278.86        2967.00           1449       35660.00    156154.40
  278.89        2967.25           1452       35810.00    156814.50
  278.93        2967.50           1456       35905.00    157232.50
  278.96        2967.75           1459       35964.00    157492.10
  278.99        2968.00           1462       35761.00    156598.80
  279.02        2968.25           1466       35156.00    153936.80
  279.05        2968.50           1469       33729.00    147659.60
  279.08        2968.75           1472       32154.00    140734.20
  279.11        2969.00           1476       30017.00    131342.20
  279.14        2969.25           1479       28704.00    125574.20
  279.17        2969.50           1482       26924.00    117757.90
  279.21        2969.75           1486       24742.00    108181.40
  279.24        2970.00           1489       23272.00    101732.90
  279.27        2970.25           1492       21722.00     94936.09
  279.30        2970.50           1496       19396.00     84741.75
  279.33        2970.75           1499       17659.00     77132.96
  279.36        2971.00           1502       15938.00     69597.65
  279.39        2971.25           1506       13658.00     59620.06
  279.42        2971.50           1509       11980.00     52280.72
  279.45        2971.75           1513        9883.00     43113.27
  279.49        2972.00           1516        8382.00     36554.45
  279.52        2972.25           1519        6708.00     29242.73
  279.55        2972.50           1523        4555.00     19843.54
  279.58        2972.75           1526        3035.00     13210.99
  279.61        2973.00           1529        1566.00      6803.48
  279.64        2973.25           1533         566.00      2443.07
  279.67        2973.50           1536         401.00      1723.72
  279.70        2973.75           1539         308.00      1318.27
  279.74        2974.00           1543         255.00      1087.22
  279.78        2974.25           1546         190.00       803.86
  279.81        2974.50           1549         164.00       690.51
  279.84        2974.75           1553         105.00       433.31
  279.87        2975.00           1556          75.00       302.53
  279.90        2975.25           1559          66.00       263.30
  279.93        2975.50           1563          54.00       210.99
  279.96        2975.75           1566          53.00       206.63
  279.99        2976.00           1569          56.00       219.71
  280.02        2976.25           1573          42.00       158.68
  280.05        2976.50           1576          43.00       163.03
  280.09        2976.75           1579          44.00       167.39
  280.12        2977.00           1583          43.00       163.03
  280.15        2977.25           1586          45.00       171.75
  280.18        2977.50           1590          46.00       176.11
  280.21        2977.75           1593          47.00       180.47
  280.24        2978.00           1596          47.00       180.47
  280.27        2978.25           1600          47.00       180.47
  280.30        2978.50           1603          44.00       167.39
  280.33        2978.75           1606          50.00       193.55
  280.36        2979.00           1610          46.00       176.11
  280.41        2979.25           1613          43.00       163.03
  280.44        2979.50           1616          43.00       163.03
  280.47        2979.75           1620          39.00       145.60
  280.50        2980.00           1623          42.00       158.68
  280.54        2980.25           1626          41.00       154.32
  280.57        2980.50           1630          46.00       176.11
  280.60        2980.75           1633          45.00       171.75
  280.64        2981.00           1637          44.00       167.39
  280.68        2981.25           1640          47.00       180.47
  280.71        2981.50           1643          45.00       171.75
  280.74        2981.75           1647          43.00       163.03
  280.77        2982.00           1650          46.00       176.11
  280.80        2982.25           1653          43.00       163.03
  280.83        2982.50           1657          46.00       176.11
  280.86        2982.75           1660          44.00       167.39
  280.89        2983.00           1663          49.00       189.19
  280.92        2983.25           1667          45.00       171.75
  280.95        2983.50           1670          49.00       189.19
  280.98        2983.75           1673          46.00       176.11
  281.01        2984.00           1677          48.00       184.83
HS scan finished at 04:41:14
end
************************************************************
  HS Scan of (1) Internal mercury lamp
************************************************************
Integration time is 0.2294 seconds per sample
dh170217Manchester 53.47 2.23 2.804185pr1000
************************************************************
Dead Time -------------------------  3E-08 
Number of Cycles Used -------------  4 
Starting Wavelength (Angstroms) ---  2950 
Final Wavelength (Angstoms) -------  2984 
Wavelength Increment (Angstroms) --  .25 
Filter Wheel #1 Position ---------- (1) Ground quartz diffuser (ND=2.32)
Filter Wheel #2 Position ---------- (1) Neutral Density 0.494



************************************************************
HS scan start time = 18:12:00
Dark Count =  6.2 


Time (GMT)  Wavelength (Ang)  Step Number  Raw Counts  Counts/Second

 1092.38        2950.00           1222          44.00       164.78
 1092.44        2950.25           1226          52.00       199.65
 1092.47        2950.50           1229          44.00       164.78
 1092.50        2950.75           1232          41.00       151.70
 1092.54        2951.00           1236          50.00       190.93
 1092.57        2951.25           1239          51.00       195.29
 1092.60        2951.50           1242          43.00       160.42
 1092.63        2951.75           1246          47.00       177.86
 1092.66        2952.00           1249          43.00       160.42
 1092.69        2952.25           1252          44.00       164.78
 1092.72        2952.50           1256          43.00       160.42
 1092.75        2952.75           1259          49.00       186.57
 1092.78        2953.00           1262          46.00       173.50
 1092.81        2953.25           1266          38.00       138.62
 1092.84        2953.50           1269          40.00       147.34
 1092.87        2953.75           1272          71.00       282.48
 1092.91        2954.00           1276          51.00       195.29
 1092.94        2954.25           1279          51.00       195.29
 1092.97        2954.50           1282          45.00       169.14
 1093.00        2954.75           1286          44.00       164.78
 1093.03        2955.00           1289          42.00       156.06
 1093.06        2955.25           1292          53.00       204.01
 1093.09        2955.50           1296          44.00       164.78
 1093.12        2955.75           1299          43.00       160.42
 1093.15        2956.00           1302          48.00       182.22
 1093.18        2956.25           1306          44.00       164.78
 1093.21        2956.50           1309          43.00       160.42
 1093.25        2956.75           1312          54.00       208.37
 1093.28        2957.00           1316          44.00       164.78
 1093.31        2957.25           1319          48.00       182.22
 1093.34        2957.50           1322          50.00       190.93
 1093.37        2957.75           1326          42.00       156.06
 1093.40        2958.00           1329          40.00       147.34
 1093.43        2958.25           1332          45.00       169.14
 1093.46        2958.50           1336          46.00       173.50
 1093.49        2958.75           1339          50.00       190.93
 1093.52        2959.00           1342          50.00       190.93
 1093.56        2959.25           1346          48.00       182.22
 1093.59        2959.50           1349          52.00       199.65
 1093.62        2959.75           1352          71.00       282.48
 1093.65        2960.00           1356         101.00       413.26
 1093.68        2960.25           1359         130.00       539.68
 1093.71        2960.50           1362         164.00       687.90
 1093.74        2960.75           1366         231.00       979.98
 1093.77        2961.00           1369         283.00      1206.67
 1093.80        2961.25           1372         302.00      1289.50
 1093.83        2961.50           1376         395.00      1694.94
 1093.86        2961.75           1379         562.00      2423.02
 1093.89        2962.00           1382        1100.00      4768.77
 1093.92        2962.25           1386        2776.00     12078.48
 1093.95        2962.50           1389        4255.00     18531.66
 1093.98        2962.75           1392        5787.00     25218.72
 1094.02        2963.00           1396        7844.00     34201.60
 1094.05        2963.25           1399        9357.00     40811.93
 1094.08        2963.50           1402       11090.00     48386.67
 1094.11        2963.75           1406       13348.00     58261.29
 1094.14        2964.00           1409       15005.00     65511.37
 1094.17        2964.25           1412       16933.00     73951.16
 1094.20        2964.50           1416       19293.00     84287.85
 1094.23        2964.75           1419       20877.00     91229.30
 1094.26        2965.00           1422       22595.00     98761.24
 1094.30        2965.25           1426       24862.00    108705.30
 1094.33        2965.50           1429       26504.00    115911.50
 1094.36        2965.75           1432       28153.00    123151.60
 1094.39        2966.00           1436       30443.00    133211.40
 1094.42        2966.25           1439       31906.00    139641.30
 1094.45        2966.50           1442       33131.00    145027.20
 1094.48        2966.75           1446       34941.00    152988.30
 1094.51        2967.00           1449       35404.00    155025.30
 1094.54        2967.25           1452       35527.00    155566.50
 1094.58        2967.50           1456       35464.00    155289.40
 1094.61        2967.75           1459       35441.00    155188.10
 1094.64        2968.00           1462       35288.00    154514.90
 1094.67        2968.25           1466       34584.00    151417.70
 1094.70        2968.50           1469       33263.00    145607.70
 1094.73        2968.75           1472       31953.00    139847.90
 1094.76        2969.00           1476       29521.00    129160.40
 1094.79        2969.25           1479       28075.00    122809.10
 1094.82        2969.50           1482       26313.00    115073.10
 1094.86        2969.75           1486       24379.00    106586.10
 1094.89        2970.00           1489       22551.00     98568.29
 1094.92        2970.25           1492       20989.00     91720.22
 1094.95        2970.50           1496       18915.00     82631.79
 1094.98        2970.75           1499       17231.00     75256.03
 1095.01        2971.00           1502       15460.00     67502.74
 1095.04        2971.25           1506       13256.00     57858.84
 1095.07        2971.50           1509       11619.00     50699.55
 1095.10        2971.75           1513        9600.00     41873.85
 1095.14        2972.00           1516        7949.00     34660.26
 1095.17        2972.25           1519        6502.00     28340.56
 1095.20        2972.50           1523        4424.00     19269.20
 1095.23        2972.75           1526        2879.00     12527.81
 1095.26        2973.00           1529        1557.00      6761.62
 1095.29        2973.25           1533         509.00      2191.95
 1095.32        2973.50           1536         340.00      1455.16
 1095.35        2973.75           1539         286.00      1219.75
 1095.38        2974.00           1543         232.00       984.34
 1095.41        2974.25           1546         175.00       735.85
 1095.44        2974.50           1549         132.00       548.40
 1095.47        2974.75           1553          83.00       334.79
 1095.51        2975.00           1556          61.00       238.89
 1095.54        2975.25           1559          61.00       238.89
 1095.57        2975.50           1563          43.00       160.42
 1095.60        2975.75           1566          53.00       204.01
 1095.63        2976.00           1569          40.00       147.34
 1095.66        2976.25           1573          44.00       164.78
 1095.69        2976.50           1576          51.00       195.29
 1095.72        2976.75           1579          55.00       212.73
 1095.75        2977.00           1583          43.00       160.42
 1095.78        2977.25           1586          44.00       164.78
 1095.81        2977.50           1590          41.00       151.70
 1095.84        2977.75           1593          46.00       173.50
 1095.87        2978.00           1596          51.00       195.29
 1095.90        2978.25           1600          47.00       177.86
 1095.93        2978.50           1603          39.00       142.98
 1095.97        2978.75           1606          41.00       151.70
 1096.00        2979.00           1610          52.00       199.65
 1096.03        2979.25           1613          39.00       142.98
 1096.06        2979.50           1616          48.00       182.22
 1096.09        2979.75           1620          46.00       173.50
 1096.12        2980.00           1623          46.00       173.50
 1096.15        2980.25           1626          46.00       173.50
 1096.18        2980.50           1630          45.00       169.14
 1096.21        2980.75           1633          42.00       156.06
 1096.24        2981.00           1637          47.00       177.86
 1096.27        2981.25           1640          46.00       173.50
 1096.30        2981.50           1643          50.00       190.93
 1096.33        2981.75           1647          38.00       138.62
 1096.36        2982.00           1650          43.00       160.42
 1096.39        2982.25           1653          40.00       147.34
 1096.43        2982.50           1657          41.00       151.70
 1096.46        2982.75           1660          49.00       186.57
 1096.49        2983.00           1663          43.00       160.42
 1096.52        2983.25           1667          40.00       147.34
 1096.55        2983.50           1670          41.00       151.70
 1096.58        2983.75           1673          49.00       186.57
 1096.61        2984.00           1677          41.00       151.70
HS scan finished at 18:16:50
end
