************************************************************
  HS Scan of (1) Internal mercury lamp
************************************************************
Integration time is 0.2294 seconds per sample
dh280217Manchester 53.47 2.23 2.750537pr1000
************************************************************
Dead Time -------------------------  3E-08 
Number of Cycles Used -------------  4 
Starting Wavelength (Angstroms) ---  2950 
Final Wavelength (Angstoms) -------  2984 
Wavelength Increment (Angstroms) --  .25 
Filter Wheel #1 Position ---------- (1) Ground quartz diffuser (ND=2.32)
Filter Wheel #2 Position ---------- (1) Neutral Density 0.494



************************************************************
HS scan start time = 04:09:32
Dark Count =  7.3 


Time (GMT)  Wavelength (Ang)  Step Number  Raw Counts  Counts/Second

  249.91        2950.00           1222          40.00       142.55
  249.98        2950.25           1226          42.00       151.26
  250.01        2950.50           1229          42.00       151.26
  250.04        2950.75           1232          47.00       173.06
  250.07        2951.00           1236          43.00       155.62
  250.10        2951.25           1239          42.00       151.26
  250.13        2951.50           1242          48.00       177.42
  250.16        2951.75           1246          41.00       146.91
  250.19        2952.00           1249          40.00       142.55
  250.23        2952.25           1252          48.00       177.42
  250.26        2952.50           1256          42.00       151.26
  250.29        2952.75           1259          49.00       181.78
  250.32        2953.00           1262          54.00       203.58
  250.35        2953.25           1266          49.00       181.78
  250.38        2953.50           1269          51.00       190.50
  250.41        2953.75           1272          46.00       168.70
  250.44        2954.00           1276          44.00       159.98
  250.47        2954.25           1279          46.00       168.70
  250.50        2954.50           1282          44.00       159.98
  250.54        2954.75           1286          47.00       173.06
  250.57        2955.00           1289          47.00       173.06
  250.60        2955.25           1292          54.00       203.58
  250.63        2955.50           1296          56.00       212.29
  250.66        2955.75           1299          46.00       168.70
  250.69        2956.00           1302          46.00       168.70
  250.72        2956.25           1306          37.00       129.47
  250.75        2956.50           1309          48.00       177.42
  250.78        2956.75           1312          48.00       177.42
  250.81        2957.00           1316          51.00       190.50
  250.84        2957.25           1319          57.00       216.65
  250.87        2957.50           1322          50.00       186.14
  250.90        2957.75           1326          42.00       151.26
  250.94        2958.00           1329          49.00       181.78
  250.97        2958.25           1332          43.00       155.62
  251.00        2958.50           1336          45.00       164.34
  251.03        2958.75           1339          45.00       164.34
  251.06        2959.00           1342          48.00       177.42
  251.09        2959.25           1346          50.00       186.14
  251.12        2959.50           1349          60.00       229.73
  251.15        2959.75           1352          59.00       225.37
  251.18        2960.00           1356          99.00       399.74
  251.21        2960.25           1359         134.00       552.32
  251.24        2960.50           1362         173.00       722.33
  251.27        2960.75           1366         231.00       975.18
  251.31        2961.00           1369         294.00      1249.83
  251.34        2961.25           1372         325.00      1384.97
  251.37        2961.50           1376         392.00      1677.07
  251.40        2961.75           1379         581.00      2501.06
  251.43        2962.00           1382        1115.00      4829.38
  251.46        2962.25           1386        2853.00     12409.59
  251.49        2962.50           1389        4397.00     19146.57
  251.52        2962.75           1392        5991.00     26104.57
  251.55        2963.00           1396        8200.00     35751.93
  251.58        2963.25           1399        9736.00     42463.39
  251.61        2963.50           1402       11330.00     49431.14
  251.64        2963.75           1406       13709.00     59835.74
  251.68        2964.00           1409       15339.00     66968.32
  251.71        2964.25           1412       17251.00     75338.79
  251.74        2964.50           1416       19386.00     84690.49
  251.77        2964.75           1419       21259.00     92898.91
  251.80        2965.00           1422       22785.00     99589.59
  251.83        2965.25           1426       24993.00    109275.30
  251.86        2965.50           1429       26849.00    117421.20
  251.89        2965.75           1432       28774.00    125874.20
  251.92        2966.00           1436       30539.00    133628.40
  251.95        2966.25           1439       32407.00    141839.00
  251.99        2966.50           1442       33694.00    147498.20
  252.02        2966.75           1446       35594.00    155856.50
  252.05        2967.00           1449       36101.00    158087.60
  252.08        2967.25           1452       36008.00    157678.30
  252.11        2967.50           1456       36165.00    158369.20
  252.14        2967.75           1459       36269.00    158826.90
  252.17        2968.00           1462       35984.00    157572.70
  252.20        2968.25           1466       35057.00    153493.80
  252.23        2968.50           1469       33702.00    147533.40
  252.26        2968.75           1472       32097.00    140476.10
  252.30        2969.00           1476       29886.00    130759.10
  252.33        2969.25           1479       28385.00    124165.70
  252.36        2969.50           1482       26699.00    116762.70
  252.39        2969.75           1486       24573.00    107432.50
  252.42        2970.00           1489       22877.00     99993.06
  252.45        2970.25           1492       21211.00     92688.50
  252.48        2970.50           1496       19089.00     83389.26
  252.51        2970.75           1499       17601.00     76871.50
  252.54        2971.00           1502       15689.00     68500.25
  252.58        2971.25           1506       13519.00     59004.53
  252.61        2971.50           1509       11733.00     51193.21
  252.64        2971.75           1513        9503.00     41445.13
  252.67        2972.00           1516        7884.00     34371.52
  252.70        2972.25           1519        6226.00     27130.62
  252.73        2972.50           1523        4006.00     17440.25
  252.76        2972.75           1526        2577.00     11205.60
  252.79        2973.00           1529        1279.00      5544.51
  252.82        2973.25           1533         500.00      2147.92
  252.85        2973.50           1536         332.00      1415.49
  252.89        2973.75           1539         276.00      1171.36
  252.92        2974.00           1543         234.00       988.26
  252.95        2974.25           1546         163.00       678.74
  252.98        2974.50           1549         121.00       495.65
  253.01        2974.75           1553          93.00       373.59
  253.04        2975.00           1556          71.00       277.68
  253.07        2975.25           1559          57.00       216.65
  253.10        2975.50           1563          55.00       207.94
  253.13        2975.75           1566          49.00       181.78
  253.16        2976.00           1569          47.00       173.06
  253.19        2976.25           1573          45.00       164.34
  253.22        2976.50           1576          47.00       173.06
  253.25        2976.75           1579          38.00       133.83
  253.28        2977.00           1583          44.00       159.98
  253.31        2977.25           1586          43.00       155.62
  253.34        2977.50           1590          53.00       199.22
  253.38        2977.75           1593          46.00       168.70
  253.41        2978.00           1596          44.00       159.98
  253.44        2978.25           1600          42.00       151.26
  253.47        2978.50           1603          45.00       164.34
  253.50        2978.75           1606          46.00       168.70
  253.53        2979.00           1610          47.00       173.06
  253.56        2979.25           1613          47.00       173.06
  253.59        2979.50           1616          43.00       155.62
  253.62        2979.75           1620          48.00       177.42
  253.65        2980.00           1623          46.00       168.70
  253.69        2980.25           1626          47.00       173.06
  253.72        2980.50           1630          42.00       151.26
  253.75        2980.75           1633          48.00       177.42
  253.78        2981.00           1637          49.00       181.78
  253.81        2981.25           1640          46.00       168.70
  253.84        2981.50           1643          48.00       177.42
  253.87        2981.75           1647          45.00       164.34
  253.90        2982.00           1650          47.00       173.06
  253.93        2982.25           1653          57.00       216.65
  253.96        2982.50           1657          42.00       151.26
  253.99        2982.75           1660          46.00       168.70
  254.02        2983.00           1663          45.00       164.34
  254.05        2983.25           1667          44.00       159.98
  254.08        2983.50           1670          47.00       173.06
  254.12        2983.75           1673          44.00       159.98
  254.15        2984.00           1677          52.00       194.86
HS scan finished at 04:14:22
end
************************************************************
  HS Scan of (1) Internal mercury lamp
************************************************************
Integration time is 0.2294 seconds per sample
dh280217Manchester 53.47 2.23 2.804185pr1000
************************************************************
Dead Time -------------------------  3E-08 
Number of Cycles Used -------------  4 
Starting Wavelength (Angstroms) ---  2950 
Final Wavelength (Angstoms) -------  2984 
Wavelength Increment (Angstroms) --  .25 
Filter Wheel #1 Position ---------- (1) Ground quartz diffuser (ND=2.32)
Filter Wheel #2 Position ---------- (1) Neutral Density 0.494



************************************************************
HS scan start time = 18:42:01
Dark Count =  7.5 


Time (GMT)  Wavelength (Ang)  Step Number  Raw Counts  Counts/Second

 1122.38        2950.00           1222          48.00       176.55
 1122.45        2950.25           1226          48.00       176.55
 1122.48        2950.50           1229          51.00       189.63
 1122.51        2950.75           1232          51.00       189.63
 1122.54        2951.00           1236          37.00       128.60
 1122.57        2951.25           1239          51.00       189.63
 1122.60        2951.50           1242          47.00       172.19
 1122.63        2951.75           1246          48.00       176.55
 1122.66        2952.00           1249          48.00       176.55
 1122.70        2952.25           1252          45.00       163.47
 1122.73        2952.50           1256          47.00       172.19
 1122.76        2952.75           1259          43.00       154.75
 1122.79        2953.00           1262          40.00       141.67
 1122.82        2953.25           1266          42.00       150.39
 1122.85        2953.50           1269          45.00       163.47
 1122.88        2953.75           1272          42.00       150.39
 1122.91        2954.00           1276          39.00       137.32
 1122.94        2954.25           1279          43.00       154.75
 1122.97        2954.50           1282          39.00       137.32
 1123.00        2954.75           1286          46.00       167.83
 1123.03        2955.00           1289          47.00       172.19
 1123.06        2955.25           1292          51.00       189.63
 1123.10        2955.50           1296          42.00       150.39
 1123.13        2955.75           1299          45.00       163.47
 1123.16        2956.00           1302          48.00       176.55
 1123.19        2956.25           1306          44.00       159.11
 1123.22        2956.50           1309          51.00       189.63
 1123.25        2956.75           1312          41.00       146.03
 1123.28        2957.00           1316          51.00       189.63
 1123.31        2957.25           1319          43.00       154.75
 1123.34        2957.50           1322          46.00       167.83
 1123.37        2957.75           1326          35.00       119.88
 1123.40        2958.00           1329          42.00       150.39
 1123.43        2958.25           1332          48.00       176.55
 1123.46        2958.50           1336          45.00       163.47
 1123.50        2958.75           1339          52.00       193.99
 1123.53        2959.00           1342          51.00       189.63
 1123.56        2959.25           1346          48.00       176.55
 1123.59        2959.50           1349          56.00       211.42
 1123.62        2959.75           1352          63.00       241.94
 1123.65        2960.00           1356          97.00       390.15
 1123.68        2960.25           1359         123.00       503.50
 1123.71        2960.50           1362         165.00       686.59
 1123.74        2960.75           1366         209.00       878.40
 1123.77        2961.00           1369         260.00      1100.73
 1123.80        2961.25           1372         306.00      1301.27
 1123.84        2961.50           1376         397.00      1697.99
 1123.87        2961.75           1379         568.00      2443.51
 1123.90        2962.00           1382        1117.00      4837.23
 1123.93        2962.25           1386        2800.00     12177.51
 1123.96        2962.50           1389        4465.00     19442.46
 1123.99        2962.75           1392        6035.00     26295.80
 1124.02        2963.00           1396        8128.00     35436.52
 1124.05        2963.25           1399        9913.00     43236.08
 1124.08        2963.50           1402       11567.00     50466.50
 1124.11        2963.75           1406       13669.00     59659.87
 1124.15        2964.00           1409       15613.00     68166.72
 1124.18        2964.25           1412       17272.00     75429.88
 1124.21        2964.50           1416       19460.00     85013.84
 1124.24        2964.75           1419       21172.00     92516.68
 1124.27        2965.00           1422       22780.00     99566.80
 1124.30        2965.25           1426       25164.00    110024.70
 1124.33        2965.50           1429       26735.00    116919.90
 1124.36        2965.75           1432       28240.00    123528.00
 1124.39        2966.00           1436       30686.00    134273.40
 1124.43        2966.25           1439       32271.00    141240.20
 1124.46        2966.50           1442       33827.00    148082.30
 1124.49        2966.75           1446       35362.00    154834.80
 1124.52        2967.00           1449       35715.00    156388.10
 1124.55        2967.25           1452       35787.00    156704.90
 1124.58        2967.50           1456       35965.00    157488.20
 1124.61        2967.75           1459       35726.00    156436.50
 1124.64        2968.00           1462       35703.00    156335.30
 1124.67        2968.25           1466       34689.00    151873.90
 1124.71        2968.50           1469       33112.00    144937.90
 1124.74        2968.75           1472       31612.00    138343.30
 1124.77        2969.00           1476       29317.00    128258.50
 1124.80        2969.25           1479       27822.00    121692.40
 1124.83        2969.50           1482       26159.00    114391.50
 1124.86        2969.75           1486       24118.00    105435.40
 1124.89        2970.00           1489       22363.00     97738.22
 1124.92        2970.25           1492       20839.00     91057.04
 1124.95        2970.50           1496       18740.00     81859.46
 1124.98        2970.75           1499       17248.00     75324.78
 1125.02        2971.00           1502       15480.00     67584.58
 1125.05        2971.25           1506       13273.00     57927.53
 1125.08        2971.50           1509       11467.00     50029.26
 1125.11        2971.75           1513        9278.00     40461.03
 1125.14        2972.00           1516        7791.00     33964.41
 1125.17        2972.25           1519        5999.00     26138.63
 1125.20        2972.50           1523        3825.00     16649.55
 1125.23        2972.75           1526        2277.00      9896.14
 1125.26        2973.00           1529        1050.00      4545.08
 1125.29        2973.25           1533         480.00      2059.85
 1125.33        2973.50           1536         342.00      1458.22
 1125.36        2973.75           1539         283.00      1201.00
 1125.39        2974.00           1543         227.00       956.87
 1125.42        2974.25           1546         163.00       677.87
 1125.45        2974.50           1549         127.00       520.93
 1125.48        2974.75           1553          83.00       329.12
 1125.51        2975.00           1556          64.00       246.30
 1125.54        2975.25           1559          46.00       167.83
 1125.57        2975.50           1563          40.00       141.67
 1125.61        2975.75           1566          47.00       172.19
 1125.64        2976.00           1569          46.00       167.83
 1125.67        2976.25           1573          44.00       159.11
 1125.70        2976.50           1576          50.00       185.27
 1125.73        2976.75           1579          45.00       163.47
 1125.76        2977.00           1583          41.00       146.03
 1125.79        2977.25           1586          44.00       159.11
 1125.82        2977.50           1590          46.00       167.83
 1125.85        2977.75           1593          45.00       163.47
 1125.88        2978.00           1596          48.00       176.55
 1125.91        2978.25           1600          47.00       172.19
 1125.94        2978.50           1603          44.00       159.11
 1125.97        2978.75           1606          45.00       163.47
 1126.00        2979.00           1610          46.00       167.83
 1126.04        2979.25           1613          46.00       167.83
 1126.07        2979.50           1616          40.00       141.67
 1126.10        2979.75           1620          41.00       146.03
 1126.13        2980.00           1623          46.00       167.83
 1126.16        2980.25           1626          42.00       150.39
 1126.19        2980.50           1630          45.00       163.47
 1126.22        2980.75           1633          44.00       159.11
 1126.25        2981.00           1637          48.00       176.55
 1126.28        2981.25           1640          43.00       154.75
 1126.31        2981.50           1643          42.00       150.39
 1126.34        2981.75           1647          43.00       154.75
 1126.37        2982.00           1650          47.00       172.19
 1126.41        2982.25           1653          45.00       163.47
 1126.44        2982.50           1657          39.00       137.32
 1126.47        2982.75           1660          50.00       185.27
 1126.50        2983.00           1663          45.00       163.47
 1126.53        2983.25           1667          37.00       128.60
 1126.56        2983.50           1670          40.00       141.67
 1126.59        2983.75           1673          45.00       163.47
 1126.62        2984.00           1677          47.00       172.19
HS scan finished at 18:46:50
end
