************************************************************
  HS Scan of (1) Internal mercury lamp
************************************************************
Integration time is 0.2294 seconds per sample
dh280219Manchester 53.47 2.23 2.804185pr1000
************************************************************
Dead Time -------------------------  3E-08 
Number of Cycles Used -------------  4 
Starting Wavelength (Angstroms) ---  2950 
Final Wavelength (Angstoms) -------  2984 
Wavelength Increment (Angstroms) --  .25 
Filter Wheel #1 Position ---------- (1) Ground quartz diffuser (ND=2.32)
Filter Wheel #2 Position ---------- (1) Neutral Density 0.494



************************************************************
HS scan start time = 04:10:54
Dark Count =  5.5 


Time (GMT)  Wavelength (Ang)  Step Number  Raw Counts  Counts/Second

  251.26        2950.00           1222          56.00       220.14
  251.33        2950.25           1226          55.00       215.78
  251.36        2950.50           1229          54.00       211.42
  251.39        2950.75           1232          60.00       237.58
  251.42        2951.00           1236          53.00       207.06
  251.45        2951.25           1239          57.00       224.50
  251.49        2951.50           1242          54.00       211.42
  251.52        2951.75           1246          57.00       224.50
  251.55        2952.00           1249          51.00       198.34
  251.58        2952.25           1252          48.00       185.27
  251.61        2952.50           1256          51.00       198.34
  251.64        2952.75           1259          60.00       237.58
  251.67        2953.00           1262          53.00       207.06
  251.70        2953.25           1266          61.00       241.94
  251.73        2953.50           1269          55.00       215.78
  251.76        2953.75           1272          60.00       237.58
  251.79        2954.00           1276          60.00       237.58
  251.82        2954.25           1279          52.00       202.70
  251.86        2954.50           1282          59.00       233.22
  251.89        2954.75           1286          57.00       224.50
  251.92        2955.00           1289          55.00       215.78
  251.95        2955.25           1292          55.00       215.78
  251.98        2955.50           1296          54.00       211.42
  252.01        2955.75           1299          62.00       246.30
  252.04        2956.00           1302          55.00       215.78
  252.07        2956.25           1306          45.00       172.19
  252.10        2956.50           1309          53.00       207.06
  252.13        2956.75           1312          59.00       233.22
  252.16        2957.00           1316          52.00       202.70
  252.20        2957.25           1319          55.00       215.78
  252.23        2957.50           1322          56.00       220.14
  252.26        2957.75           1326          54.00       211.42
  252.29        2958.00           1329          49.00       189.63
  252.32        2958.25           1332          51.00       198.34
  252.35        2958.50           1336          48.00       185.27
  252.38        2958.75           1339          55.00       215.78
  252.41        2959.00           1342          61.00       241.94
  252.44        2959.25           1346          52.00       202.70
  252.47        2959.50           1349          65.00       259.37
  252.50        2959.75           1352          73.00       294.25
  252.54        2960.00           1356         100.00       411.95
  252.57        2960.25           1359         116.00       481.70
  252.60        2960.50           1362         150.00       629.92
  252.63        2960.75           1366         186.00       786.85
  252.66        2961.00           1369         215.00       913.28
  252.69        2961.25           1372         262.00      1118.17
  252.72        2961.50           1376         324.00      1388.46
  252.75        2961.75           1379         466.00      2007.53
  252.78        2962.00           1382         942.00      4082.89
  252.81        2962.25           1386        2353.00     10236.36
  252.84        2962.50           1389        3498.00     15231.46
  252.87        2962.75           1392        4598.00     20031.65
  252.90        2963.00           1396        6129.00     26714.95
  252.94        2963.25           1399        7294.00     31802.34
  252.97        2963.50           1402        8566.00     37358.76
  253.00        2963.75           1406        9963.00     43463.35
  253.03        2964.00           1409       11383.00     49670.74
  253.06        2964.25           1412       12839.00     56037.90
  253.09        2964.50           1416       14531.00     63440.15
  253.12        2964.75           1419       15592.00     68083.56
  253.15        2965.00           1422       16973.00     74129.37
  253.18        2965.25           1426       18488.00     80764.33
  253.21        2965.50           1429       19761.00     86341.49
  253.25        2965.75           1432       21017.00     91846.02
  253.28        2966.00           1436       22557.00     98597.68
  253.31        2966.25           1439       23550.00    102952.60
  253.34        2966.50           1442       24694.00    107971.20
  253.37        2966.75           1446       25884.00    113193.20
  253.40        2967.00           1449       25948.00    113474.10
  253.43        2967.25           1452       26002.00    113711.10
  253.46        2967.50           1456       26076.00    114035.90
  253.49        2967.75           1459       26033.00    113847.20
  253.52        2968.00           1462       25847.00    113030.90
  253.56        2968.25           1466       25153.00    109985.20
  253.59        2968.50           1469       24136.00    105523.20
  253.62        2968.75           1472       23063.00    100816.70
  253.65        2969.00           1476       21503.00     93976.43
  253.68        2969.25           1479       20277.00     88602.68
  253.71        2969.50           1482       19126.00     83559.25
  253.74        2969.75           1486       17666.00     77164.03
  253.77        2970.00           1489       16356.00     71427.97
  253.80        2970.25           1492       15219.00     66451.00
  253.84        2970.50           1496       13636.00     59524.25
  253.87        2970.75           1499       12449.00     54332.17
  253.90        2971.00           1502       11216.00     48940.59
  253.93        2971.25           1506        9561.00     41706.47
  253.96        2971.50           1509        8401.00     36637.90
  253.99        2971.75           1513        6841.00     29823.97
  254.02        2972.00           1516        5701.00     24846.33
  254.05        2972.25           1519        4418.00     19246.07
  254.08        2972.50           1523        3029.00     13185.25
  254.11        2972.75           1526        1895.00      8238.74
  254.15        2973.00           1529         901.00      3904.12
  254.18        2973.25           1533         371.00      1593.36
  254.21        2973.50           1536         288.00      1231.52
  254.24        2973.75           1539         235.00      1000.47
  254.27        2974.00           1543         196.00       830.45
  254.30        2974.25           1546         146.00       612.48
  254.33        2974.50           1549         112.00       464.26
  254.36        2974.75           1553          80.00       324.76
  254.39        2975.00           1556          74.00       298.61
  254.42        2975.25           1559          60.00       237.58
  254.45        2975.50           1563          50.00       193.99
  254.49        2975.75           1566          52.00       202.70
  254.52        2976.00           1569          54.00       211.42
  254.55        2976.25           1573          56.00       220.14
  254.58        2976.50           1576          57.00       224.50
  254.61        2976.75           1579          50.00       193.99
  254.64        2977.00           1583          48.00       185.27
  254.67        2977.25           1586          55.00       215.78
  254.70        2977.50           1590          49.00       189.63
  254.73        2977.75           1593          52.00       202.70
  254.76        2978.00           1596          59.00       233.22
  254.79        2978.25           1600          61.00       241.94
  254.82        2978.50           1603          54.00       211.42
  254.86        2978.75           1606          52.00       202.70
  254.89        2979.00           1610          48.00       185.27
  254.92        2979.25           1613          51.00       198.34
  254.95        2979.50           1616          49.00       189.63
  254.98        2979.75           1620          54.00       211.42
  255.01        2980.00           1623          53.00       207.06
  255.04        2980.25           1626          47.00       180.91
  255.07        2980.50           1630          49.00       189.63
  255.10        2980.75           1633          54.00       211.42
  255.13        2981.00           1637          49.00       189.63
  255.17        2981.25           1640          66.00       263.73
  255.20        2981.50           1643          50.00       193.99
  255.23        2981.75           1647          50.00       193.99
  255.26        2982.00           1650          48.00       185.27
  255.29        2982.25           1653          53.00       207.06
  255.32        2982.50           1657          49.00       189.63
  255.35        2982.75           1660          43.00       163.47
  255.38        2983.00           1663          49.00       189.63
  255.41        2983.25           1667          48.00       185.27
  255.44        2983.50           1670          44.00       167.83
  255.47        2983.75           1673          56.00       220.14
  255.51        2984.00           1677          46.00       176.55
HS scan finished at 04:15:43
end
************************************************************
  HS Scan of (1) Internal mercury lamp
************************************************************
Integration time is 0.2294 seconds per sample
dh280219Manchester 53.47 2.23 2.804185pr1000
************************************************************
Dead Time -------------------------  3E-08 
Number of Cycles Used -------------  4 
Starting Wavelength (Angstroms) ---  2950 
Final Wavelength (Angstoms) -------  2984 
Wavelength Increment (Angstroms) --  .25 
Filter Wheel #1 Position ---------- (1) Ground quartz diffuser (ND=2.32)
Filter Wheel #2 Position ---------- (1) Neutral Density 0.494



************************************************************
HS scan start time = 18:42:08
Dark Count =  5.5 


Time (GMT)  Wavelength (Ang)  Step Number  Raw Counts  Counts/Second

 1122.51        2950.00           1222          56.00       220.14
 1122.57        2950.25           1226          54.00       211.42
 1122.61        2950.50           1229          53.00       207.06
 1122.64        2950.75           1232          56.00       220.14
 1122.67        2951.00           1236          47.00       180.91
 1122.70        2951.25           1239          53.00       207.06
 1122.73        2951.50           1242          57.00       224.50
 1122.76        2951.75           1246          55.00       215.78
 1122.79        2952.00           1249          56.00       220.14
 1122.82        2952.25           1252          56.00       220.14
 1122.85        2952.50           1256          52.00       202.70
 1122.88        2952.75           1259          56.00       220.14
 1122.91        2953.00           1262          51.00       198.34
 1122.94        2953.25           1266          52.00       202.70
 1122.98        2953.50           1269          56.00       220.14
 1123.01        2953.75           1272          52.00       202.70
 1123.04        2954.00           1276          48.00       185.27
 1123.07        2954.25           1279          49.00       189.63
 1123.10        2954.50           1282          51.00       198.34
 1123.13        2954.75           1286          49.00       189.63
 1123.16        2955.00           1289          56.00       220.14
 1123.19        2955.25           1292          52.00       202.70
 1123.22        2955.50           1296          57.00       224.50
 1123.25        2955.75           1299          46.00       176.55
 1123.28        2956.00           1302          50.00       193.99
 1123.32        2956.25           1306          53.00       207.06
 1123.35        2956.50           1309          55.00       215.78
 1123.38        2956.75           1312          63.00       250.66
 1123.41        2957.00           1316          49.00       189.63
 1123.44        2957.25           1319          56.00       220.14
 1123.47        2957.50           1322          56.00       220.14
 1123.50        2957.75           1326          51.00       198.34
 1123.53        2958.00           1329          54.00       211.42
 1123.56        2958.25           1332          48.00       185.27
 1123.59        2958.50           1336          58.00       228.86
 1123.62        2958.75           1339          58.00       228.86
 1123.65        2959.00           1342          51.00       198.34
 1123.68        2959.25           1346          56.00       220.14
 1123.72        2959.50           1349          56.00       220.14
 1123.75        2959.75           1352          60.00       237.58
 1123.78        2960.00           1356          93.00       381.43
 1123.81        2960.25           1359         114.00       472.98
 1123.84        2960.50           1362         143.00       599.40
 1123.87        2960.75           1366         201.00       852.24
 1123.90        2961.00           1369         228.00       969.95
 1123.93        2961.25           1372         245.00      1044.06
 1123.96        2961.50           1376         314.00      1344.87
 1123.99        2961.75           1379         481.00      2072.93
 1124.02        2962.00           1382        1040.00      4510.20
 1124.05        2962.25           1386        2457.00     10690.00
 1124.08        2962.50           1389        3641.00     15855.40
 1124.11        2962.75           1392        4832.00     21052.96
 1124.15        2963.00           1396        6255.00     27265.10
 1124.18        2963.25           1399        7488.00     32649.67
 1124.21        2963.50           1402        8596.00     37489.83
 1124.24        2963.75           1406       10268.00     44796.43
 1124.27        2964.00           1409       11403.00     49758.18
 1124.30        2964.25           1412       12596.00     54975.08
 1124.33        2964.50           1416       14168.00     61851.81
 1124.36        2964.75           1419       15430.00     67374.50
 1124.39        2965.00           1422       16758.00     73188.00
 1124.42        2965.25           1426       18398.00     80370.10
 1124.46        2965.50           1429       19625.00     85745.57
 1124.49        2965.75           1432       20630.00     90149.77
 1124.52        2966.00           1436       22425.00     98018.85
 1124.55        2966.25           1439       23563.00    103009.60
 1124.58        2966.50           1442       24495.00    107098.10
 1124.61        2966.75           1446       25626.00    112060.90
 1124.64        2967.00           1449       25907.00    113294.20
 1124.67        2967.25           1452       25771.00    112697.30
 1124.70        2967.50           1456       25973.00    113583.90
 1124.73        2967.75           1459       25946.00    113465.40
 1124.77        2968.00           1462       25769.00    112688.50
 1124.80        2968.25           1466       24962.00    109147.10
 1124.83        2968.50           1469       23750.00    103829.90
 1124.86        2968.75           1472       22622.00     98882.71
 1124.89        2969.00           1476       21127.00     92328.18
 1124.92        2969.25           1479       20052.00     87616.66
 1124.95        2969.50           1482       18930.00     82700.56
 1124.98        2969.75           1486       17353.00     75793.34
 1125.01        2970.00           1489       16159.00     70565.53
 1125.04        2970.25           1492       14977.00     65391.90
 1125.08        2970.50           1496       13359.00     58312.48
 1125.11        2970.75           1499       12124.00     52910.86
 1125.14        2971.00           1502       10845.00     47318.65
 1125.17        2971.25           1506        9355.00     40806.25
 1125.20        2971.50           1509        8070.00     35191.89
 1125.23        2971.75           1513        6420.00     27985.56
 1125.26        2972.00           1516        5245.00     22855.68
 1125.29        2972.25           1519        4079.00     17766.66
 1125.32        2972.50           1523        2605.00     11335.59
 1125.35        2972.75           1526        1493.00      6485.57
 1125.39        2973.00           1529         647.00      2796.66
 1125.42        2973.25           1533         315.00      1349.23
 1125.45        2973.50           1536         260.00      1109.45
 1125.48        2973.75           1539         232.00       987.39
 1125.51        2974.00           1543         188.00       795.57
 1125.54        2974.25           1546         144.00       603.76
 1125.57        2974.50           1549         107.00       442.46
 1125.60        2974.75           1553          81.00       329.12
 1125.63        2975.00           1556          67.00       268.09
 1125.66        2975.25           1559          56.00       220.14
 1125.70        2975.50           1563          66.00       263.73
 1125.73        2975.75           1566          50.00       193.99
 1125.76        2976.00           1569          55.00       215.78
 1125.79        2976.25           1573          52.00       202.70
 1125.82        2976.50           1576          53.00       207.06
 1125.85        2976.75           1579          57.00       224.50
 1125.88        2977.00           1583          53.00       207.06
 1125.91        2977.25           1586          53.00       207.06
 1125.94        2977.50           1590          51.00       198.34
 1125.97        2977.75           1593          52.00       202.70
 1126.01        2978.00           1596          52.00       202.70
 1126.04        2978.25           1600          52.00       202.70
 1126.07        2978.50           1603          53.00       207.06
 1126.10        2978.75           1606          53.00       207.06
 1126.13        2979.00           1610          52.00       202.70
 1126.16        2979.25           1613          48.00       185.27
 1126.19        2979.50           1616          52.00       202.70
 1126.22        2979.75           1620          49.00       189.63
 1126.25        2980.00           1623          48.00       185.27
 1126.28        2980.25           1626          54.00       211.42
 1126.32        2980.50           1630          42.00       159.11
 1126.35        2980.75           1633          52.00       202.70
 1126.38        2981.00           1637          59.00       233.22
 1126.41        2981.25           1640          49.00       189.63
 1126.44        2981.50           1643          53.00       207.06
 1126.47        2981.75           1647          47.00       180.91
 1126.50        2982.00           1650          47.00       180.91
 1126.53        2982.25           1653          58.00       228.86
 1126.56        2982.50           1657          49.00       189.63
 1126.59        2982.75           1660          49.00       189.63
 1126.62        2983.00           1663          52.00       202.70
 1126.65        2983.25           1667          47.00       180.91
 1126.68        2983.50           1670          56.00       220.14
 1126.71        2983.75           1673          51.00       198.34
 1126.74        2984.00           1677          51.00       198.34
HS scan finished at 18:46:58
end
