************************************************************
  HS Scan of (1) Internal mercury lamp
************************************************************
Integration time is 0.2294 seconds per sample
dh240217Manchester 53.47 2.23 2.750537pr1000
************************************************************
Dead Time -------------------------  3E-08 
Number of Cycles Used -------------  4 
Starting Wavelength (Angstroms) ---  2950 
Final Wavelength (Angstoms) -------  2984 
Wavelength Increment (Angstroms) --  .25 
Filter Wheel #1 Position ---------- (1) Ground quartz diffuser (ND=2.32)
Filter Wheel #2 Position ---------- (1) Neutral Density 0.494



************************************************************
HS scan start time = 04:19:58
Dark Count =  5.9 


Time (GMT)  Wavelength (Ang)  Step Number  Raw Counts  Counts/Second

  260.34        2950.00           1222          43.00       161.73
  260.41        2950.25           1226          39.00       144.29
  260.44        2950.50           1229          49.00       187.88
  260.47        2950.75           1232          48.00       183.52
  260.50        2951.00           1236          46.00       174.80
  260.53        2951.25           1239          43.00       161.73
  260.56        2951.50           1242          49.00       187.88
  260.59        2951.75           1246          47.00       179.16
  260.62        2952.00           1249          45.00       170.45
  260.65        2952.25           1252          49.00       187.88
  260.68        2952.50           1256          41.00       153.01
  260.71        2952.75           1259          45.00       170.45
  260.75        2953.00           1262          44.00       166.09
  260.78        2953.25           1266          44.00       166.09
  260.81        2953.50           1269          51.00       196.60
  260.84        2953.75           1272          44.00       166.09
  260.87        2954.00           1276          51.00       196.60
  260.90        2954.25           1279          49.00       187.88
  260.93        2954.50           1282          42.00       157.37
  260.96        2954.75           1286          43.00       161.73
  260.99        2955.00           1289          48.00       183.52
  261.02        2955.25           1292          48.00       183.52
  261.05        2955.50           1296          48.00       183.52
  261.09        2955.75           1299          39.00       144.29
  261.12        2956.00           1302          42.00       157.37
  261.15        2956.25           1306          43.00       161.73
  261.18        2956.50           1309          51.00       196.60
  261.21        2956.75           1312          49.00       187.88
  261.24        2957.00           1316          40.00       148.65
  261.27        2957.25           1319          44.00       166.09
  261.30        2957.50           1322          49.00       187.88
  261.33        2957.75           1326          43.00       161.73
  261.36        2958.00           1329          47.00       179.16
  261.39        2958.25           1332          51.00       196.60
  261.42        2958.50           1336          45.00       170.45
  261.45        2958.75           1339          49.00       187.88
  261.48        2959.00           1342          48.00       183.52
  261.52        2959.25           1346          49.00       187.88
  261.55        2959.50           1349          57.00       222.76
  261.58        2959.75           1352          54.00       209.68
  261.61        2960.00           1356         104.00       427.64
  261.64        2960.25           1359         113.00       466.88
  261.67        2960.50           1362         166.00       697.92
  261.70        2960.75           1366         212.00       898.45
  261.73        2961.00           1369         262.00      1116.43
  261.76        2961.25           1372         302.00      1290.81
  261.79        2961.50           1376         405.00      1739.85
  261.82        2961.75           1379         561.00      2419.97
  261.86        2962.00           1382        1157.00      5018.63
  261.89        2962.25           1386        2799.00     12180.13
  261.92        2962.50           1389        4414.00     19226.87
  261.95        2962.75           1392        5965.00     25997.17
  261.98        2963.00           1396        8014.00     34945.51
  262.01        2963.25           1399        9684.00     42242.25
  262.04        2963.50           1402       11413.00     49800.15
  262.07        2963.75           1406       13602.00     59373.75
  262.10        2964.00           1409       15382.00     67162.65
  262.14        2964.25           1412       17339.00     75730.28
  262.17        2964.50           1416       19473.00     85077.81
  262.20        2964.75           1419       21064.00     92050.28
  262.23        2965.00           1422       22783.00     99586.97
  262.26        2965.25           1426       25131.00    109887.00
  262.29        2965.50           1429       26729.00    116900.50
  262.32        2965.75           1432       28125.00    123030.00
  262.35        2966.00           1436       30259.00    132404.10
  262.38        2966.25           1439       31854.00    139414.00
  262.41        2966.50           1442       33485.00    146585.20
  262.44        2966.75           1446       34948.00    153020.40
  262.48        2967.00           1449       35685.00    156263.10
  262.51        2967.25           1452       35488.00    155396.30
  262.54        2967.50           1456       35490.00    155405.10
  262.57        2967.75           1459       35489.00    155400.70
  262.60        2968.00           1462       35317.00    154643.90
  262.63        2968.25           1466       34442.00    150794.40
  262.66        2968.50           1469       33239.00    145503.40
  262.69        2968.75           1472       31481.00    137774.50
  262.72        2969.00           1476       29550.00    129289.10
  262.75        2969.25           1479       27969.00    122344.90
  262.78        2969.50           1482       26279.00    114925.20
  262.81        2969.75           1486       24222.00    105898.70
  262.85        2970.00           1489       22435.00     98060.94
  262.88        2970.25           1492       20863.00     91169.24
  262.91        2970.50           1496       18765.00     81975.99
  262.94        2970.75           1499       17025.00     74355.30
  262.97        2971.00           1502       15495.00     67657.25
  263.00        2971.25           1506       13291.00     58013.26
  263.03        2971.50           1509       11602.00     50626.53
  263.06        2971.75           1513        9463.00     41276.45
  263.09        2972.00           1516        7950.00     34665.94
  263.13        2972.25           1519        6339.00     27630.13
  263.16        2972.50           1523        4293.00     18698.81
  263.19        2972.75           1526        2648.00     11521.42
  263.22        2973.00           1529        1319.00      5725.05
  263.25        2973.25           1533         519.00      2236.85
  263.28        2973.50           1536         356.00      1526.23
  263.31        2973.75           1539         297.00      1269.01
  263.34        2974.00           1543         247.00      1051.04
  263.37        2974.25           1546         191.00       806.91
  263.40        2974.50           1549         149.00       623.81
  263.43        2974.75           1553          92.00       375.33
  263.46        2975.00           1556          82.00       331.74
  263.49        2975.25           1559          51.00       196.60
  263.53        2975.50           1563          50.00       192.24
  263.56        2975.75           1566          47.00       179.16
  263.59        2976.00           1569          46.00       174.80
  263.62        2976.25           1573          44.00       166.09
  263.65        2976.50           1576          46.00       174.80
  263.68        2976.75           1579          41.00       153.01
  263.71        2977.00           1583          52.00       200.96
  263.74        2977.25           1586          45.00       170.45
  263.77        2977.50           1590          54.00       209.68
  263.81        2977.75           1593          47.00       179.16
  263.84        2978.00           1596          52.00       200.96
  263.87        2978.25           1600          44.00       166.09
  263.90        2978.50           1603          45.00       170.45
  263.93        2978.75           1606          50.00       192.24
  263.96        2979.00           1610          49.00       187.88
  263.99        2979.25           1613          43.00       161.73
  264.02        2979.50           1616          46.00       174.80
  264.05        2979.75           1620          42.00       157.37
  264.08        2980.00           1623          42.00       157.37
  264.11        2980.25           1626          45.00       170.45
  264.14        2980.50           1630          40.00       148.65
  264.18        2980.75           1633          49.00       187.88
  264.21        2981.00           1637          49.00       187.88
  264.24        2981.25           1640          44.00       166.09
  264.27        2981.50           1643          45.00       170.45
  264.30        2981.75           1647          37.00       135.57
  264.33        2982.00           1650          38.00       139.93
  264.36        2982.25           1653          43.00       161.73
  264.39        2982.50           1657          45.00       170.45
  264.42        2982.75           1660          45.00       170.45
  264.45        2983.00           1663          42.00       157.37
  264.48        2983.25           1667          49.00       187.88
  264.51        2983.50           1670          46.00       174.80
  264.55        2983.75           1673          39.00       144.29
  264.58        2984.00           1677          53.00       205.32
HS scan finished at 04:24:48
end
************************************************************
  HS Scan of (1) Internal mercury lamp
************************************************************
Integration time is 0.2294 seconds per sample
dh240217Manchester 53.47 2.23 2.804185pr1000
************************************************************
Dead Time -------------------------  3E-08 
Number of Cycles Used -------------  4 
Starting Wavelength (Angstroms) ---  2950 
Final Wavelength (Angstoms) -------  2984 
Wavelength Increment (Angstroms) --  .25 
Filter Wheel #1 Position ---------- (1) Ground quartz diffuser (ND=2.32)
Filter Wheel #2 Position ---------- (1) Neutral Density 0.494



************************************************************
HS scan start time = 18:42:02
Dark Count =  6.8 


Time (GMT)  Wavelength (Ang)  Step Number  Raw Counts  Counts/Second

 1122.39        2950.00           1222          44.00       162.16
 1122.46        2950.25           1226          44.00       162.16
 1122.49        2950.50           1229          39.00       140.37
 1122.52        2950.75           1232          48.00       179.60
 1122.55        2951.00           1236          51.00       192.68
 1122.59        2951.25           1239          42.00       153.44
 1122.62        2951.50           1242          49.00       183.96
 1122.65        2951.75           1246          45.00       166.52
 1122.68        2952.00           1249          46.00       170.88
 1122.71        2952.25           1252          46.00       170.88
 1122.74        2952.50           1256          41.00       149.09
 1122.77        2952.75           1259          42.00       153.44
 1122.80        2953.00           1262          40.00       144.73
 1122.83        2953.25           1266          42.00       153.44
 1122.86        2953.50           1269          46.00       170.88
 1122.89        2953.75           1272          46.00       170.88
 1122.92        2954.00           1276          50.00       188.32
 1122.95        2954.25           1279          47.00       175.24
 1122.98        2954.50           1282          46.00       170.88
 1123.01        2954.75           1286          45.00       166.52
 1123.05        2955.00           1289          45.00       166.52
 1123.08        2955.25           1292          42.00       153.44
 1123.11        2955.50           1296          51.00       192.68
 1123.14        2955.75           1299          36.00       127.29
 1123.17        2956.00           1302          44.00       162.16
 1123.20        2956.25           1306          51.00       192.68
 1123.23        2956.50           1309          41.00       149.09
 1123.26        2956.75           1312          44.00       162.16
 1123.29        2957.00           1316          43.00       157.80
 1123.32        2957.25           1319          48.00       179.60
 1123.36        2957.50           1322          43.00       157.80
 1123.39        2957.75           1326          46.00       170.88
 1123.42        2958.00           1329          43.00       157.80
 1123.45        2958.25           1332          49.00       183.96
 1123.48        2958.50           1336          49.00       183.96
 1123.51        2958.75           1339          48.00       179.60
 1123.54        2959.00           1342          47.00       175.24
 1123.57        2959.25           1346          50.00       188.32
 1123.60        2959.50           1349          53.00       201.40
 1123.63        2959.75           1352          66.00       258.07
 1123.66        2960.00           1356          88.00       353.97
 1123.70        2960.25           1359         125.00       515.27
 1123.73        2960.50           1362         166.00       694.00
 1123.76        2960.75           1366         221.00       933.77
 1123.79        2961.00           1369         257.00      1090.71
 1123.82        2961.25           1372         302.00      1286.89
 1123.85        2961.50           1376         376.00      1609.49
 1123.88        2961.75           1379         547.00      2355.01
 1123.91        2962.00           1382        1114.00      4827.20
 1123.94        2962.25           1386        2904.00     12634.26
 1123.97        2962.50           1389        4317.00     18799.61
 1124.00        2962.75           1392        5805.00     25294.69
 1124.04        2963.00           1396        7998.00     34871.68
 1124.07        2963.25           1399        9566.00     41722.63
 1124.10        2963.50           1402       11173.00     48746.92
 1124.13        2963.75           1406       13386.00     58424.90
 1124.16        2964.00           1409       14920.00     65136.75
 1124.19        2964.25           1412       16829.00     73493.16
 1124.22        2964.50           1416       19275.00     84206.35
 1124.25        2964.75           1419       20846.00     91090.78
 1124.28        2965.00           1422       22413.00     97960.53
 1124.32        2965.25           1426       24589.00    107504.80
 1124.35        2965.50           1429       26191.00    114535.00
 1124.38        2965.75           1432       27736.00    121317.80
 1124.41        2966.00           1436       30014.00    131323.70
 1124.44        2966.25           1439       31670.00    138601.30
 1124.47        2966.50           1442       33064.00    144729.90
 1124.50        2966.75           1446       34795.00    152343.30
 1124.53        2967.00           1449       35443.00    155194.30
 1124.56        2967.25           1452       35546.00    155647.50
 1124.60        2967.50           1456       35551.00    155669.50
 1124.63        2967.75           1459       35566.00    155735.50
 1124.66        2968.00           1462       35331.00    154701.50
 1124.69        2968.25           1466       34300.00    150165.80
 1124.72        2968.50           1469       33360.00    146031.60
 1124.75        2968.75           1472       31607.00    138324.40
 1124.78        2969.00           1476       29561.00    129333.50
 1124.81        2969.25           1479       28152.00    123144.60
 1124.84        2969.50           1482       26155.00    114377.00
 1124.88        2969.75           1486       24239.00    105969.30
 1124.91        2970.00           1489       22513.00     98399.02
 1124.94        2970.25           1492       20881.00     91244.19
 1124.97        2970.50           1496       18840.00     82300.60
 1125.00        2970.75           1499       17056.00     74487.10
 1125.03        2971.00           1502       15379.00     67145.58
 1125.06        2971.25           1506       13326.00     58162.43
 1125.09        2971.50           1509       11549.00     50390.86
 1125.12        2971.75           1513        9435.00     41150.16
 1125.15        2972.00           1516        7974.00     34766.85
 1125.18        2972.25           1519        6306.00     27482.11
 1125.22        2972.50           1523        4054.00     17651.89
 1125.25        2972.75           1526        2537.00     11033.29
 1125.28        2973.00           1529        1262.00      5472.56
 1125.31        2973.25           1533         494.00      2123.94
 1125.34        2973.50           1536         316.00      1347.92
 1125.37        2973.75           1539         264.00      1121.22
 1125.40        2974.00           1543         229.00       968.64
 1125.43        2974.25           1546         157.00       654.76
 1125.46        2974.50           1549         122.00       502.19
 1125.49        2974.75           1553          78.00       310.38
 1125.53        2975.00           1556          69.00       271.14
 1125.56        2975.25           1559          53.00       201.40
 1125.59        2975.50           1563          49.00       183.96
 1125.62        2975.75           1566          46.00       170.88
 1125.65        2976.00           1569          56.00       214.47
 1125.68        2976.25           1573          49.00       183.96
 1125.71        2976.50           1576          38.00       136.01
 1125.74        2976.75           1579          49.00       183.96
 1125.77        2977.00           1583          50.00       188.32
 1125.80        2977.25           1586          44.00       162.16
 1125.83        2977.50           1590          50.00       188.32
 1125.86        2977.75           1593          47.00       175.24
 1125.89        2978.00           1596          43.00       157.80
 1125.93        2978.25           1600          54.00       205.76
 1125.96        2978.50           1603          45.00       166.52
 1125.99        2978.75           1606          44.00       162.16
 1126.02        2979.00           1610          40.00       144.73
 1126.05        2979.25           1613          48.00       179.60
 1126.08        2979.50           1616          44.00       162.16
 1126.11        2979.75           1620          41.00       149.09
 1126.14        2980.00           1623          46.00       170.88
 1126.17        2980.25           1626          43.00       157.80
 1126.20        2980.50           1630          49.00       183.96
 1126.24        2980.75           1633          45.00       166.52
 1126.27        2981.00           1637          41.00       149.09
 1126.30        2981.25           1640          45.00       166.52
 1126.33        2981.50           1643          42.00       153.44
 1126.36        2981.75           1647          42.00       153.44
 1126.39        2982.00           1650          44.00       162.16
 1126.42        2982.25           1653          50.00       188.32
 1126.45        2982.50           1657          43.00       157.80
 1126.48        2982.75           1660          42.00       153.44
 1126.51        2983.00           1663          44.00       162.16
 1126.54        2983.25           1667          42.00       153.44
 1126.57        2983.50           1670          62.00       240.63
 1126.60        2983.75           1673          39.00       140.37
 1126.64        2984.00           1677          47.00       175.24
HS scan finished at 18:46:51
end
