************************************************************
  HS Scan of (1) Internal mercury lamp
************************************************************
Integration time is 0.2294 seconds per sample
dh260217Manchester 53.47 2.23 2.804185pr1000
************************************************************
Dead Time -------------------------  3E-08 
Number of Cycles Used -------------  4 
Starting Wavelength (Angstroms) ---  2950 
Final Wavelength (Angstoms) -------  2984 
Wavelength Increment (Angstroms) --  .25 
Filter Wheel #1 Position ---------- (1) Ground quartz diffuser (ND=2.32)
Filter Wheel #2 Position ---------- (1) Neutral Density 0.494



************************************************************
HS scan start time = 04:17:00
Dark Count =  5.5 


Time (GMT)  Wavelength (Ang)  Step Number  Raw Counts  Counts/Second

  257.37        2950.00           1222          49.00       189.63
  257.43        2950.25           1226          45.00       172.19
  257.46        2950.50           1229          54.00       211.42
  257.49        2950.75           1232          37.00       137.32
  257.52        2951.00           1236          48.00       185.27
  257.56        2951.25           1239          46.00       176.55
  257.59        2951.50           1242          46.00       176.55
  257.62        2951.75           1246          46.00       176.55
  257.65        2952.00           1249          44.00       167.83
  257.68        2952.25           1252          45.00       172.19
  257.71        2952.50           1256          44.00       167.83
  257.74        2952.75           1259          52.00       202.70
  257.77        2953.00           1262          41.00       154.75
  257.80        2953.25           1266          53.00       207.06
  257.83        2953.50           1269          40.00       150.39
  257.86        2953.75           1272          46.00       176.55
  257.89        2954.00           1276          48.00       185.27
  257.92        2954.25           1279          49.00       189.63
  257.96        2954.50           1282          42.00       159.11
  257.99        2954.75           1286          43.00       163.47
  258.02        2955.00           1289          54.00       211.42
  258.05        2955.25           1292          45.00       172.19
  258.08        2955.50           1296          47.00       180.91
  258.11        2955.75           1299          51.00       198.34
  258.14        2956.00           1302          44.00       167.83
  258.17        2956.25           1306          43.00       163.47
  258.20        2956.50           1309          49.00       189.63
  258.23        2956.75           1312          53.00       207.06
  258.26        2957.00           1316          41.00       154.75
  258.29        2957.25           1319          44.00       167.83
  258.32        2957.50           1322          47.00       180.91
  258.36        2957.75           1326          55.00       215.78
  258.39        2958.00           1329          48.00       185.27
  258.42        2958.25           1332          47.00       180.91
  258.45        2958.50           1336          52.00       202.70
  258.48        2958.75           1339          39.00       146.03
  258.51        2959.00           1342          53.00       207.06
  258.54        2959.25           1346          46.00       176.55
  258.57        2959.50           1349          52.00       202.70
  258.60        2959.75           1352          64.00       255.02
  258.63        2960.00           1356          81.00       329.12
  258.66        2960.25           1359         117.00       486.06
  258.69        2960.50           1362         154.00       647.35
  258.72        2960.75           1366         208.00       882.76
  258.76        2961.00           1369         236.00      1004.83
  258.79        2961.25           1372         310.00      1327.43
  258.82        2961.50           1376         394.00      1693.63
  258.85        2961.75           1379         597.00      2578.67
  258.88        2962.00           1382        1108.00      4806.71
  258.91        2962.25           1386        2759.00     12007.38
  258.94        2962.50           1389        4326.00     18844.57
  258.97        2962.75           1392        5847.00     25483.73
  259.00        2963.00           1396        7970.00     34755.05
  259.03        2963.25           1399        9719.00     42396.96
  259.06        2963.50           1402       11581.00     50536.46
  259.09        2963.75           1406       13827.00     60359.86
  259.13        2964.00           1409       15640.00     68293.66
  259.16        2964.25           1412       17372.00     75876.54
  259.19        2964.50           1416       19471.00     85070.81
  259.22        2964.75           1419       21059.00     92030.11
  259.25        2965.00           1422       22693.00     99194.05
  259.28        2965.25           1426       25014.00    109375.30
  259.31        2965.50           1429       26607.00    116366.70
  259.34        2965.75           1432       28272.00    123677.30
  259.38        2966.00           1436       30312.00    132638.80
  259.41        2966.25           1439       32064.00    140339.00
  259.44        2966.50           1442       33659.00    147352.20
  259.47        2966.75           1446       35144.00    153884.50
  259.50        2967.00           1449       35710.00    156374.90
  259.53        2967.25           1452       35809.00    156810.50
  259.56        2967.50           1456       35792.00    156735.70
  259.59        2967.75           1459       35519.00    155534.40
  259.62        2968.00           1462       35489.00    155402.40
  259.66        2968.25           1466       34594.00    151464.80
  259.69        2968.50           1469       33363.00    146050.50
  259.72        2968.75           1472       31821.00    139270.70
  259.75        2969.00           1476       29689.00    129901.50
  259.78        2969.25           1479       27939.00    122214.90
  259.81        2969.50           1482       26458.00    115712.70
  259.84        2969.75           1486       24352.00    106470.80
  259.87        2970.00           1489       22429.00     98036.39
  259.90        2970.25           1492       20890.00     91289.34
  259.93        2970.50           1496       18810.00     82174.87
  259.97        2970.75           1499       17043.00     74435.87
  260.00        2971.00           1502       15525.00     67790.30
  260.03        2971.25           1506       13372.00     58369.34
  260.06        2971.50           1509       11814.00     51555.27
  260.09        2971.75           1513        9672.00     42191.56
  260.12        2972.00           1516        8122.00     35419.04
  260.15        2972.25           1519        6360.00     27723.57
  260.18        2972.50           1523        4289.00     18683.09
  260.21        2972.75           1526        2715.00     11815.44
  260.25        2973.00           1529        1378.00      5984.07
  260.28        2973.25           1533         546.00      2356.31
  260.31        2973.50           1536         371.00      1593.36
  260.34        2973.75           1539         310.00      1327.43
  260.37        2974.00           1543         266.00      1135.61
  260.40        2974.25           1546         189.00       799.93
  260.43        2974.50           1549         143.00       599.40
  260.46        2974.75           1553         100.00       411.95
  260.49        2975.00           1556          66.00       263.73
  260.52        2975.25           1559          51.00       198.34
  260.55        2975.50           1563          49.00       189.63
  260.58        2975.75           1566          44.00       167.83
  260.62        2976.00           1569          49.00       189.63
  260.65        2976.25           1573          43.00       163.47
  260.68        2976.50           1576          59.00       233.22
  260.71        2976.75           1579          47.00       180.91
  260.74        2977.00           1583          39.00       146.03
  260.77        2977.25           1586          42.00       159.11
  260.80        2977.50           1590          50.00       193.99
  260.83        2977.75           1593          45.00       172.19
  260.86        2978.00           1596          55.00       215.78
  260.89        2978.25           1600          42.00       159.11
  260.92        2978.50           1603          54.00       211.42
  260.95        2978.75           1606          43.00       163.47
  260.98        2979.00           1610          47.00       180.91
  261.02        2979.25           1613          43.00       163.47
  261.05        2979.50           1616          41.00       154.75
  261.08        2979.75           1620          49.00       189.63
  261.11        2980.00           1623          47.00       180.91
  261.14        2980.25           1626          41.00       154.75
  261.17        2980.50           1630          46.00       176.55
  261.20        2980.75           1633          41.00       154.75
  261.23        2981.00           1637          42.00       159.11
  261.26        2981.25           1640          42.00       159.11
  261.29        2981.50           1643          47.00       180.91
  261.32        2981.75           1647          44.00       167.83
  261.36        2982.00           1650          39.00       146.03
  261.39        2982.25           1653          47.00       180.91
  261.42        2982.50           1657          49.00       189.63
  261.45        2982.75           1660          43.00       163.47
  261.48        2983.00           1663          45.00       172.19
  261.51        2983.25           1667          50.00       193.99
  261.54        2983.50           1670          52.00       202.70
  261.57        2983.75           1673          43.00       163.47
  261.60        2984.00           1677          45.00       172.19
HS scan finished at 04:21:49
end
************************************************************
  HS Scan of (1) Internal mercury lamp
************************************************************
Integration time is 0.2294 seconds per sample
dh260217Manchester 53.47 2.23 2.804185pr1000
************************************************************
Dead Time -------------------------  3E-08 
Number of Cycles Used -------------  4 
Starting Wavelength (Angstroms) ---  2950 
Final Wavelength (Angstoms) -------  2984 
Wavelength Increment (Angstroms) --  .25 
Filter Wheel #1 Position ---------- (1) Ground quartz diffuser (ND=2.32)
Filter Wheel #2 Position ---------- (1) Neutral Density 0.494



************************************************************
HS scan start time = 18:42:03
Dark Count =  5 


Time (GMT)  Wavelength (Ang)  Step Number  Raw Counts  Counts/Second

 1122.42        2950.00           1222          44.00       170.01
 1122.49        2950.25           1226          47.00       183.09
 1122.52        2950.50           1229          56.00       222.32
 1122.55        2950.75           1232          38.00       143.85
 1122.58        2951.00           1236          47.00       183.09
 1122.61        2951.25           1239          56.00       222.32
 1122.64        2951.50           1242          44.00       170.01
 1122.67        2951.75           1246          41.00       156.93
 1122.70        2952.00           1249          42.00       161.29
 1122.74        2952.25           1252          48.00       187.45
 1122.77        2952.50           1256          42.00       161.29
 1122.80        2952.75           1259          46.00       178.73
 1122.83        2953.00           1262          44.00       170.01
 1122.86        2953.25           1266          39.00       148.21
 1122.89        2953.50           1269          39.00       148.21
 1122.92        2953.75           1272          47.00       183.09
 1122.95        2954.00           1276          44.00       170.01
 1122.98        2954.25           1279          43.00       165.65
 1123.02        2954.50           1282          41.00       156.93
 1123.05        2954.75           1286          47.00       183.09
 1123.08        2955.00           1289          45.00       174.37
 1123.11        2955.25           1292          50.00       196.17
 1123.14        2955.50           1296          43.00       165.65
 1123.17        2955.75           1299          41.00       156.93
 1123.20        2956.00           1302          44.00       170.01
 1123.23        2956.25           1306          46.00       178.73
 1123.26        2956.50           1309          47.00       183.09
 1123.29        2956.75           1312          40.00       152.57
 1123.32        2957.00           1316          42.00       161.29
 1123.35        2957.25           1319          48.00       187.45
 1123.39        2957.50           1322          56.00       222.32
 1123.42        2957.75           1326          48.00       187.45
 1123.45        2958.00           1329          46.00       178.73
 1123.48        2958.25           1332          47.00       183.09
 1123.51        2958.50           1336          44.00       170.01
 1123.54        2958.75           1339          46.00       178.73
 1123.57        2959.00           1342          46.00       178.73
 1123.60        2959.25           1346          51.00       200.52
 1123.63        2959.50           1349          52.00       204.88
 1123.66        2959.75           1352          69.00       278.99
 1123.70        2960.00           1356          95.00       392.33
 1123.73        2960.25           1359         138.00       579.78
 1123.76        2960.50           1362         180.00       762.88
 1123.79        2960.75           1366         228.00       972.13
 1123.82        2961.00           1369         263.00      1124.71
 1123.85        2961.25           1372         309.00      1325.25
 1123.88        2961.50           1376         402.00      1730.69
 1123.91        2961.75           1379         580.00      2506.73
 1123.94        2962.00           1382        1254.00      5445.53
 1123.97        2962.25           1386        2868.00     12485.06
 1124.01        2962.50           1389        4466.00     19457.74
 1124.04        2962.75           1392        6012.00     26206.30
 1124.07        2963.00           1396        8073.00     35207.18
 1124.10        2963.25           1399        9702.00     42324.85
 1124.13        2963.50           1402       11562.00     50455.57
 1124.16        2963.75           1406       13711.00     59854.55
 1124.19        2964.00           1409       15501.00     67687.44
 1124.22        2964.25           1412       17389.00     75953.16
 1124.25        2964.50           1416       19574.00     85524.31
 1124.29        2964.75           1419       21385.00     93461.34
 1124.32        2965.00           1422       22847.00     99871.59
 1124.35        2965.25           1426       25218.00    110272.70
 1124.38        2965.50           1429       26783.00    117141.50
 1124.41        2965.75           1432       28397.00    124228.50
 1124.44        2966.00           1436       30631.00    134042.70
 1124.47        2966.25           1439       32010.00    140103.80
 1124.50        2966.50           1442       33402.00    146224.20
 1124.53        2966.75           1446       35096.00    153675.50
 1124.56        2967.00           1449       35576.00    155787.40
 1124.59        2967.25           1452       35835.00    156927.10
 1124.63        2967.50           1456       35753.00    156566.30
 1124.66        2967.75           1459       35706.00    156359.50
 1124.69        2968.00           1462       35479.00    155360.60
 1124.72        2968.25           1466       34597.00    151480.20
 1124.75        2968.50           1469       33371.00    146087.90
 1124.78        2968.75           1472       31832.00    139321.30
 1124.81        2969.00           1476       29862.00    130663.80
 1124.84        2969.25           1479       28193.00    123332.60
 1124.87        2969.50           1482       26501.00    115903.60
 1124.90        2969.75           1486       24501.00    107126.70
 1124.93        2970.00           1489       22677.00     99126.08
 1124.97        2970.25           1492       20970.00     91642.19
 1125.00        2970.50           1496       18712.00     81747.75
 1125.03        2970.75           1499       17181.00     75042.34
 1125.06        2971.00           1502       15594.00     68094.50
 1125.09        2971.25           1506       13377.00     58393.40
 1125.12        2971.50           1509       11668.00     50919.05
 1125.15        2971.75           1513        9764.00     42595.81
 1125.18        2972.00           1516        8232.00     35901.77
 1125.21        2972.25           1519        6646.00     28974.61
 1125.25        2972.50           1523        4318.00     18811.83
 1125.28        2972.75           1526        2812.00     12240.76
 1125.31        2973.00           1529        1443.00      6269.71
 1125.34        2973.25           1533         533.00      2301.82
 1125.37        2973.50           1536         352.00      1512.71
 1125.40        2973.75           1539         290.00      1242.42
 1125.43        2974.00           1543         242.00      1033.16
 1125.46        2974.25           1546         189.00       802.11
 1125.49        2974.50           1549         149.00       627.74
 1125.52        2974.75           1553         101.00       418.49
 1125.55        2975.00           1556          72.00       292.07
 1125.58        2975.25           1559          51.00       200.52
 1125.61        2975.50           1563          43.00       165.65
 1125.64        2975.75           1566          49.00       191.81
 1125.67        2976.00           1569          48.00       187.45
 1125.71        2976.25           1573          52.00       204.88
 1125.74        2976.50           1576          45.00       174.37
 1125.77        2976.75           1579          53.00       209.24
 1125.80        2977.00           1583          47.00       183.09
 1125.83        2977.25           1586          40.00       152.57
 1125.86        2977.50           1590          46.00       178.73
 1125.89        2977.75           1593          53.00       209.24
 1125.92        2978.00           1596          40.00       152.57
 1125.95        2978.25           1600          43.00       165.65
 1125.98        2978.50           1603          42.00       161.29
 1126.01        2978.75           1606          49.00       191.81
 1126.05        2979.00           1610          48.00       187.45
 1126.08        2979.25           1613          49.00       191.81
 1126.11        2979.50           1616          45.00       174.37
 1126.14        2979.75           1620          51.00       200.52
 1126.17        2980.00           1623          40.00       152.57
 1126.20        2980.25           1626          41.00       156.93
 1126.23        2980.50           1630          44.00       170.01
 1126.26        2980.75           1633          59.00       235.40
 1126.29        2981.00           1637          39.00       148.21
 1126.32        2981.25           1640          48.00       187.45
 1126.35        2981.50           1643          46.00       178.73
 1126.38        2981.75           1647          53.00       209.24
 1126.42        2982.00           1650          51.00       200.52
 1126.45        2982.25           1653          42.00       161.29
 1126.48        2982.50           1657          44.00       170.01
 1126.51        2982.75           1660          45.00       174.37
 1126.54        2983.00           1663          48.00       187.45
 1126.57        2983.25           1667          42.00       161.29
 1126.60        2983.50           1670          47.00       183.09
 1126.63        2983.75           1673          49.00       191.81
 1126.66        2984.00           1677          45.00       174.37
HS scan finished at 18:46:53
end
