************************************************************
  HS Scan of (1) Internal mercury lamp
************************************************************
Integration time is 0.2294 seconds per sample
dh250217Manchester 53.47 2.23 2.750537pr1000
************************************************************
Dead Time -------------------------  3E-08 
Number of Cycles Used -------------  4 
Starting Wavelength (Angstroms) ---  2950 
Final Wavelength (Angstoms) -------  2984 
Wavelength Increment (Angstroms) --  .25 
Filter Wheel #1 Position ---------- (1) Ground quartz diffuser (ND=2.32)
Filter Wheel #2 Position ---------- (1) Neutral Density 0.494



************************************************************
HS scan start time = 04:17:24
Dark Count =  9.100001 


Time (GMT)  Wavelength (Ang)  Step Number  Raw Counts  Counts/Second

  257.76        2950.00           1222          47.00       165.21
  257.83        2950.25           1226          46.00       160.86
  257.86        2950.50           1229          43.00       147.78
  257.89        2950.75           1232          46.00       160.86
  257.92        2951.00           1236          46.00       160.86
  257.95        2951.25           1239          45.00       156.50
  257.99        2951.50           1242          45.00       156.50
  258.02        2951.75           1246          47.00       165.21
  258.05        2952.00           1249          41.00       139.06
  258.08        2952.25           1252          45.00       156.50
  258.11        2952.50           1256          47.00       165.21
  258.14        2952.75           1259          44.00       152.14
  258.17        2953.00           1262          50.00       178.29
  258.20        2953.25           1266          50.00       178.29
  258.23        2953.50           1269          53.00       191.37
  258.26        2953.75           1272          48.00       169.57
  258.30        2954.00           1276          43.00       147.78
  258.33        2954.25           1279          46.00       160.86
  258.36        2954.50           1282          46.00       160.86
  258.39        2954.75           1286          45.00       156.50
  258.42        2955.00           1289          53.00       191.37
  258.45        2955.25           1292          47.00       165.21
  258.48        2955.50           1296          46.00       160.86
  258.51        2955.75           1299          46.00       160.86
  258.54        2956.00           1302          41.00       139.06
  258.57        2956.25           1306          42.00       143.42
  258.61        2956.50           1309          41.00       139.06
  258.64        2956.75           1312          46.00       160.86
  258.67        2957.00           1316          44.00       152.14
  258.70        2957.25           1319          41.00       139.06
  258.73        2957.50           1322          46.00       160.86
  258.76        2957.75           1326          42.00       143.42
  258.79        2958.00           1329          49.00       173.93
  258.82        2958.25           1332          43.00       147.78
  258.85        2958.50           1336          52.00       187.01
  258.88        2958.75           1339          48.00       169.57
  258.92        2959.00           1342          48.00       169.57
  258.95        2959.25           1346          48.00       169.57
  258.98        2959.50           1349          47.00       165.21
  259.01        2959.75           1352          66.00       248.04
  259.04        2960.00           1356          99.00       391.90
  259.07        2960.25           1359         129.00       522.68
  259.10        2960.50           1362         157.00       644.74
  259.13        2960.75           1366         228.00       954.26
  259.16        2961.00           1369         278.00      1172.23
  259.19        2961.25           1372         309.00      1307.37
  259.22        2961.50           1376         366.00      1555.87
  259.26        2961.75           1379         472.00      2017.99
  259.29        2962.00           1382         848.00      3657.33
  259.32        2962.25           1386        2040.00      8855.45
  259.35        2962.50           1389        3698.00     16088.41
  259.38        2962.75           1392        5452.00     23743.59
  259.41        2963.00           1396        7573.00     33005.20
  259.44        2963.25           1399        9183.00     40038.91
  259.47        2963.50           1402       10794.00     47079.96
  259.50        2963.75           1406       13016.00     56796.35
  259.53        2964.00           1409       14873.00     64921.01
  259.56        2964.25           1412       16580.00     72392.88
  259.60        2964.50           1416       18685.00     81611.51
  259.63        2964.75           1419       20384.00     89055.84
  259.66        2965.00           1422       21940.00     95876.52
  259.69        2965.25           1426       24274.00    106112.80
  259.72        2965.50           1429       26033.00    113831.40
  259.75        2965.75           1432       27840.00    121764.40
  259.78        2966.00           1436       30105.00    131713.40
  259.81        2966.25           1439       31986.00    139980.20
  259.84        2966.50           1442       33215.00    145383.80
  259.87        2966.75           1446       34893.00    152764.40
  259.90        2967.00           1449       35720.00    156403.00
  259.94        2967.25           1452       35822.00    156851.90
  259.97        2967.50           1456       35969.00    157498.70
  260.00        2967.75           1459       35804.00    156772.60
  260.03        2968.00           1462       35597.00    155861.80
  260.06        2968.25           1466       34926.00    152909.50
  260.09        2968.50           1469       33728.00    147639.80
  260.12        2968.75           1472       32227.00    141039.70
  260.15        2969.00           1476       29985.00    131186.20
  260.18        2969.25           1479       28488.00    124610.10
  260.21        2969.50           1482       26736.00    116917.20
  260.24        2969.75           1486       24523.00    107205.20
  260.27        2970.00           1489       22891.00    100046.60
  260.31        2970.25           1492       21184.00     92562.26
  260.34        2970.50           1496       19091.00     83390.15
  260.37        2970.75           1499       17530.00     76552.68
  260.40        2971.00           1502       15875.00     69306.56
  260.43        2971.25           1506       13604.00     59368.51
  260.46        2971.50           1509       11880.00     51828.13
  260.49        2971.75           1513        9571.00     41734.44
  260.52        2972.00           1516        8087.00     35250.42
  260.55        2972.25           1519        6487.00     28262.40
  260.58        2972.50           1523        4401.00     19156.17
  260.61        2972.75           1526        2904.00     12624.22
  260.64        2973.00           1529        1515.00      6565.81
  260.67        2973.25           1533         585.00      2510.65
  260.71        2973.50           1536         343.00      1455.60
  260.74        2973.75           1539         298.00      1259.42
  260.77        2974.00           1543         249.00      1045.80
  260.80        2974.25           1546         195.00       810.39
  260.83        2974.50           1549         145.00       592.43
  260.86        2974.75           1553         104.00       413.69
  260.89        2975.00           1556          80.00       309.07
  260.92        2975.25           1559          66.00       248.04
  260.95        2975.50           1563          55.00       200.09
  260.98        2975.75           1566          46.00       160.86
  261.02        2976.00           1569          51.00       182.65
  261.05        2976.25           1573          50.00       178.29
  261.08        2976.50           1576          47.00       165.21
  261.11        2976.75           1579          49.00       173.93
  261.14        2977.00           1583          41.00       139.06
  261.17        2977.25           1586          47.00       165.21
  261.20        2977.50           1590          48.00       169.57
  261.23        2977.75           1593          40.00       134.70
  261.26        2978.00           1596          46.00       160.86
  261.29        2978.25           1600          48.00       169.57
  261.33        2978.50           1603          41.00       139.06
  261.36        2978.75           1606          57.00       208.81
  261.39        2979.00           1610          48.00       169.57
  261.42        2979.25           1613          46.00       160.86
  261.45        2979.50           1616          53.00       191.37
  261.48        2979.75           1620          52.00       187.01
  261.51        2980.00           1623          38.00       125.98
  261.54        2980.25           1626          45.00       156.50
  261.57        2980.50           1630          43.00       147.78
  261.60        2980.75           1633          46.00       160.86
  261.64        2981.00           1637          43.00       147.78
  261.67        2981.25           1640          39.00       130.34
  261.70        2981.50           1643          37.00       121.62
  261.73        2981.75           1647          44.00       152.14
  261.76        2982.00           1650          47.00       165.21
  261.79        2982.25           1653          42.00       143.42
  261.82        2982.50           1657          39.00       130.34
  261.85        2982.75           1660          43.00       147.78
  261.88        2983.00           1663          43.00       147.78
  261.91        2983.25           1667          45.00       156.50
  261.94        2983.50           1670          48.00       169.57
  261.98        2983.75           1673          50.00       178.29
  262.01        2984.00           1677          45.00       156.50
HS scan finished at 04:22:13
end
************************************************************
  HS Scan of (1) Internal mercury lamp
************************************************************
Integration time is 0.2294 seconds per sample
dh250217Manchester 53.47 2.23 2.804185pr1000
************************************************************
Dead Time -------------------------  3E-08 
Number of Cycles Used -------------  4 
Starting Wavelength (Angstroms) ---  2950 
Final Wavelength (Angstoms) -------  2984 
Wavelength Increment (Angstroms) --  .25 
Filter Wheel #1 Position ---------- (1) Ground quartz diffuser (ND=2.32)
Filter Wheel #2 Position ---------- (1) Neutral Density 0.494



************************************************************
HS scan start time = 18:42:04
Dark Count =  5.4 


Time (GMT)  Wavelength (Ang)  Step Number  Raw Counts  Counts/Second

 1122.44        2950.00           1222          42.00       159.55
 1122.50        2950.25           1226          42.00       159.55
 1122.54        2950.50           1229          42.00       159.55
 1122.57        2950.75           1232          45.00       172.63
 1122.60        2951.00           1236          49.00       190.06
 1122.63        2951.25           1239          48.00       185.70
 1122.66        2951.50           1242          44.00       168.27
 1122.69        2951.75           1246          36.00       133.39
 1122.72        2952.00           1249          47.00       181.34
 1122.75        2952.25           1252          50.00       194.42
 1122.78        2952.50           1256          50.00       194.42
 1122.81        2952.75           1259          51.00       198.78
 1122.84        2953.00           1262          47.00       181.34
 1122.87        2953.25           1266          44.00       168.27
 1122.90        2953.50           1269          46.00       176.98
 1122.94        2953.75           1272          41.00       155.19
 1122.97        2954.00           1276          45.00       172.63
 1123.00        2954.25           1279          51.00       198.78
 1123.03        2954.50           1282          49.00       190.06
 1123.06        2954.75           1286          46.00       176.98
 1123.09        2955.00           1289          46.00       176.98
 1123.12        2955.25           1292          47.00       181.34
 1123.15        2955.50           1296          39.00       146.47
 1123.18        2955.75           1299          45.00       172.63
 1123.21        2956.00           1302          45.00       172.63
 1123.25        2956.25           1306          46.00       176.98
 1123.28        2956.50           1309          41.00       155.19
 1123.31        2956.75           1312          44.00       168.27
 1123.34        2957.00           1316          43.00       163.91
 1123.37        2957.25           1319          48.00       185.70
 1123.40        2957.50           1322          46.00       176.98
 1123.43        2957.75           1326          48.00       185.70
 1123.46        2958.00           1329          47.00       181.34
 1123.49        2958.25           1332          49.00       190.06
 1123.52        2958.50           1336          52.00       203.14
 1123.55        2958.75           1339          60.00       238.01
 1123.58        2959.00           1342          49.00       190.06
 1123.61        2959.25           1346          48.00       185.70
 1123.65        2959.50           1349          59.00       233.65
 1123.68        2959.75           1352          61.00       242.37
 1123.71        2960.00           1356          98.00       403.67
 1123.74        2960.25           1359         128.00       534.45
 1123.77        2960.50           1362         167.00       704.46
 1123.80        2960.75           1366         227.00       966.03
 1123.83        2961.00           1369         274.00      1170.92
 1123.86        2961.25           1372         305.00      1306.07
 1123.89        2961.50           1376         376.00      1615.60
 1123.92        2961.75           1379         483.00      2082.08
 1123.96        2962.00           1382         897.00      3887.11
 1123.99        2962.25           1386        2318.00     10084.13
 1124.02        2962.50           1389        3913.00     17042.71
 1124.05        2962.75           1392        5532.00     24108.98
 1124.08        2963.00           1396        7532.00     32842.28
 1124.11        2963.25           1399        9051.00     39478.29
 1124.14        2963.50           1402       10711.00     46733.30
 1124.17        2963.75           1406       13049.00     56956.87
 1124.20        2964.00           1409       14560.00     63567.50
 1124.23        2964.25           1412       16231.00     70881.16
 1124.26        2964.50           1416       18606.00     81281.66
 1124.30        2964.75           1419       20129.00     87954.53
 1124.33        2965.00           1422       21876.00     95612.12
 1124.36        2965.25           1426       24140.00    105541.10
 1124.39        2965.50           1429       25860.00    113088.40
 1124.42        2965.75           1432       27513.00    120344.80
 1124.45        2966.00           1436       29762.00    130222.70
 1124.48        2966.25           1439       31249.00    136757.00
 1124.51        2966.50           1442       32891.00    143975.40
 1124.54        2966.75           1446       34604.00    151509.20
 1124.57        2967.00           1449       35391.00    154971.70
 1124.61        2967.25           1452       35793.00    156740.50
 1124.64        2967.50           1456       35783.00    156696.60
 1124.67        2967.75           1459       35865.00    157057.40
 1124.70        2968.00           1462       35745.00    156529.30
 1124.73        2968.25           1466       35282.00    154492.10
 1124.76        2968.50           1469       33968.00    148711.70
 1124.79        2968.75           1472       32539.00    142427.70
 1124.82        2969.00           1476       30397.00    133012.70
 1124.85        2969.25           1479       28595.00    125096.30
 1124.88        2969.50           1482       26905.00    117675.40
 1124.91        2969.75           1486       24992.00    109279.20
 1124.94        2970.00           1489       23304.00    101874.10
 1124.98        2970.25           1492       21644.00     94595.00
 1125.01        2970.50           1496       19619.00     85719.72
 1125.04        2970.75           1499       17930.00     78320.69
 1125.07        2971.00           1502       16103.00     70320.81
 1125.10        2971.25           1506       13859.00     60500.30
 1125.13        2971.50           1509       12196.00     53226.17
 1125.16        2971.75           1513       10103.00     44075.68
 1125.19        2972.00           1516        8338.00     36363.10
 1125.22        2972.25           1519        6686.00     29147.53
 1125.25        2972.50           1523        4478.00     19508.36
 1125.29        2972.75           1526        2997.00     13046.08
 1125.32        2973.00           1529        1691.00      7349.49
 1125.35        2973.25           1533         599.00      2587.82
 1125.38        2973.50           1536         361.00      1550.20
 1125.41        2973.75           1539         307.00      1314.79
 1125.44        2974.00           1543         266.00      1136.05
 1125.47        2974.25           1546         191.00       809.09
 1125.50        2974.50           1549         152.00       639.07
 1125.53        2974.75           1553          84.00       342.64
 1125.56        2975.00           1556          68.00       272.89
 1125.59        2975.25           1559          61.00       242.37
 1125.62        2975.50           1563          43.00       163.91
 1125.65        2975.75           1566          49.00       190.06
 1125.68        2976.00           1569          44.00       168.27
 1125.71        2976.25           1573          57.00       224.94
 1125.75        2976.50           1576          43.00       163.91
 1125.78        2976.75           1579          48.00       185.70
 1125.81        2977.00           1583          53.00       207.50
 1125.84        2977.25           1586          42.00       159.55
 1125.87        2977.50           1590          47.00       181.34
 1125.90        2977.75           1593          46.00       176.98
 1125.93        2978.00           1596          44.00       168.27
 1125.96        2978.25           1600          52.00       203.14
 1125.99        2978.50           1603          48.00       185.70
 1126.02        2978.75           1606          45.00       172.63
 1126.05        2979.00           1610          42.00       159.55
 1126.09        2979.25           1613          40.00       150.83
 1126.12        2979.50           1616          44.00       168.27
 1126.15        2979.75           1620          44.00       168.27
 1126.18        2980.00           1623          52.00       203.14
 1126.21        2980.25           1626          51.00       198.78
 1126.24        2980.50           1630          55.00       216.22
 1126.27        2980.75           1633          44.00       168.27
 1126.30        2981.00           1637          48.00       185.70
 1126.33        2981.25           1640          45.00       172.63
 1126.36        2981.50           1643          40.00       150.83
 1126.39        2981.75           1647          43.00       163.91
 1126.42        2982.00           1650          46.00       176.98
 1126.46        2982.25           1653          47.00       181.34
 1126.49        2982.50           1657          43.00       163.91
 1126.52        2982.75           1660          41.00       155.19
 1126.55        2983.00           1663          39.00       146.47
 1126.58        2983.25           1667          46.00       176.98
 1126.61        2983.50           1670          41.00       155.19
 1126.64        2983.75           1673          42.00       159.55
 1126.67        2984.00           1677          51.00       198.78
HS scan finished at 18:46:53
end
