************************************************************
  HS Scan of (1) Internal mercury lamp
************************************************************
Integration time is 0.2294 seconds per sample
dh200219Manchester 53.47 2.23 2.804185pr1000
************************************************************
Dead Time -------------------------  3E-08 
Number of Cycles Used -------------  4 
Starting Wavelength (Angstroms) ---  2950 
Final Wavelength (Angstoms) -------  2984 
Wavelength Increment (Angstroms) --  .25 
Filter Wheel #1 Position ---------- (1) Ground quartz diffuser (ND=2.32)
Filter Wheel #2 Position ---------- (1) Neutral Density 0.494



************************************************************
HS scan start time = 04:30:48
Dark Count =  7.7 


Time (GMT)  Wavelength (Ang)  Step Number  Raw Counts  Counts/Second

  271.16        2950.00           1222          52.00       193.11
  271.23        2950.25           1226          58.00       219.27
  271.26        2950.50           1229          47.00       171.32
  271.29        2950.75           1232          52.00       193.11
  271.32        2951.00           1236          50.00       184.40
  271.35        2951.25           1239          58.00       219.27
  271.38        2951.50           1242          55.00       206.19
  271.42        2951.75           1246          56.00       210.55
  271.45        2952.00           1249          63.00       241.07
  271.48        2952.25           1252          59.00       223.63
  271.51        2952.50           1256          64.00       245.42
  271.54        2952.75           1259          51.00       188.75
  271.57        2953.00           1262          57.00       214.91
  271.60        2953.25           1266          58.00       219.27
  271.63        2953.50           1269          53.00       197.47
  271.66        2953.75           1272          59.00       223.63
  271.69        2954.00           1276          55.00       206.19
  271.72        2954.25           1279          58.00       219.27
  271.75        2954.50           1282          51.00       188.75
  271.78        2954.75           1286          56.00       210.55
  271.81        2955.00           1289          53.00       197.47
  271.84        2955.25           1292          52.00       193.11
  271.88        2955.50           1296          52.00       193.11
  271.91        2955.75           1299          50.00       184.40
  271.94        2956.00           1302          51.00       188.75
  271.97        2956.25           1306          56.00       210.55
  272.00        2956.50           1309          54.00       201.83
  272.03        2956.75           1312          52.00       193.11
  272.06        2957.00           1316          53.00       197.47
  272.09        2957.25           1319          50.00       184.40
  272.12        2957.50           1322          57.00       214.91
  272.15        2957.75           1326          59.00       223.63
  272.18        2958.00           1329          57.00       214.91
  272.21        2958.25           1332          59.00       223.63
  272.24        2958.50           1336          55.00       206.19
  272.28        2958.75           1339          54.00       201.83
  272.31        2959.00           1342          56.00       210.55
  272.34        2959.25           1346          61.00       232.35
  272.37        2959.50           1349          54.00       201.83
  272.40        2959.75           1352          59.00       223.63
  272.43        2960.00           1356          85.00       336.97
  272.46        2960.25           1359          97.00       389.28
  272.49        2960.50           1362         119.00       485.19
  272.52        2960.75           1366         169.00       703.15
  272.55        2961.00           1369         202.00       847.01
  272.58        2961.25           1372         230.00       969.08
  272.61        2961.50           1376         282.00      1195.77
  272.65        2961.75           1379         384.00      1640.45
  272.68        2962.00           1382         854.00      3689.60
  272.71        2962.25           1386        2212.00      9611.75
  272.74        2962.50           1389        3400.00     14794.27
  272.77        2962.75           1392        4511.00     19642.35
  272.80        2963.00           1396        6044.00     26334.22
  272.83        2963.25           1399        7222.00     31478.28
  272.86        2963.50           1402        8439.00     36794.30
  272.89        2963.75           1406       10058.00     43868.94
  272.92        2964.00           1409       11209.00     48900.37
  272.95        2964.25           1412       12462.00     54379.40
  272.98        2964.50           1416       13827.00     60350.23
  273.02        2964.75           1419       15170.00     66226.91
  273.05        2965.00           1422       16417.00     71685.40
  273.08        2965.25           1426       18199.00     79488.81
  273.11        2965.50           1429       19420.00     84837.71
  273.14        2965.75           1432       20433.00     89276.72
  273.17        2966.00           1436       22155.00     96825.31
  273.20        2966.25           1439       23240.00    101583.30
  273.23        2966.50           1442       24138.00    105522.30
  273.26        2966.75           1446       25659.00    112196.10
  273.30        2967.00           1449       25961.00    113521.50
  273.33        2967.25           1452       25920.00    113341.60
  273.36        2967.50           1456       26066.00    113982.40
  273.39        2967.75           1459       26092.00    114096.50
  273.42        2968.00           1462       26006.00    113719.00
  273.45        2968.25           1466       25182.00    110102.90
  273.48        2968.50           1469       24160.00    105618.80
  273.51        2968.75           1472       22914.00    100153.60
  273.54        2969.00           1476       21330.00     93208.40
  273.57        2969.25           1479       20251.00     88479.10
  273.61        2969.50           1482       19190.00     83830.00
  273.64        2969.75           1486       17571.00     76738.37
  273.67        2970.00           1489       16259.00     70993.68
  273.70        2970.25           1492       15312.00     66848.41
  273.73        2970.50           1496       13902.00     60678.36
  273.76        2970.75           1499       12610.00     55026.69
  273.79        2971.00           1502       11246.00     49062.14
  273.82        2971.25           1506        9612.00     41919.73
  273.85        2971.50           1509        8400.00     36623.92
  273.88        2971.75           1513        6809.00     29674.62
  273.91        2972.00           1516        5663.00     24670.83
  273.95        2972.25           1519        4517.00     19668.53
  273.98        2972.50           1523        2901.00     12617.24
  274.01        2972.75           1526        1887.00      8194.26
  274.04        2973.00           1529         969.00      4191.02
  274.07        2973.25           1533         402.00      1718.92
  274.10        2973.50           1536         276.00      1169.61
  274.13        2973.75           1539         252.00      1064.99
  274.16        2974.00           1543         203.00       851.37
  274.19        2974.25           1546         150.00       620.33
  274.22        2974.50           1549         122.00       498.26
  274.26        2974.75           1553         105.00       424.16
  274.29        2975.00           1556          66.00       254.14
  274.32        2975.25           1559          61.00       232.35
  274.35        2975.50           1563          49.00       180.04
  274.38        2975.75           1566          54.00       201.83
  274.41        2976.00           1569          52.00       193.11
  274.44        2976.25           1573          53.00       197.47
  274.47        2976.50           1576          53.00       197.47
  274.50        2976.75           1579          52.00       193.11
  274.53        2977.00           1583          51.00       188.75
  274.56        2977.25           1586          53.00       197.47
  274.59        2977.50           1590          51.00       188.75
  274.62        2977.75           1593          49.00       180.04
  274.65        2978.00           1596          53.00       197.47
  274.68        2978.25           1600          54.00       201.83
  274.72        2978.50           1603          53.00       197.47
  274.75        2978.75           1606          47.00       171.32
  274.78        2979.00           1610          57.00       214.91
  274.81        2979.25           1613          53.00       197.47
  274.84        2979.50           1616          47.00       171.32
  274.87        2979.75           1620          49.00       180.04
  274.90        2980.00           1623          60.00       227.99
  274.93        2980.25           1626          50.00       184.40
  274.96        2980.50           1630          53.00       197.47
  274.99        2980.75           1633          50.00       184.40
  275.02        2981.00           1637          44.00       158.24
  275.06        2981.25           1640          46.00       166.96
  275.09        2981.50           1643          47.00       171.32
  275.12        2981.75           1647          51.00       188.75
  275.15        2982.00           1650          52.00       193.11
  275.18        2982.25           1653          47.00       171.32
  275.21        2982.50           1657          46.00       166.96
  275.24        2982.75           1660          56.00       210.55
  275.27        2983.00           1663          48.00       175.68
  275.30        2983.25           1667          52.00       193.11
  275.33        2983.50           1670          46.00       166.96
  275.36        2983.75           1673          47.00       171.32
  275.39        2984.00           1677          48.00       175.68
HS scan finished at 04:35:36
end
************************************************************
  HS Scan of (1) Internal mercury lamp
************************************************************
Integration time is 0.2294 seconds per sample
dh200219Manchester 53.47 2.23 2.804185pr1000
************************************************************
Dead Time -------------------------  3E-08 
Number of Cycles Used -------------  4 
Starting Wavelength (Angstroms) ---  2950 
Final Wavelength (Angstoms) -------  2984 
Wavelength Increment (Angstroms) --  .25 
Filter Wheel #1 Position ---------- (1) Ground quartz diffuser (ND=2.32)
Filter Wheel #2 Position ---------- (1) Neutral Density 0.494



************************************************************
HS scan start time = 18:42:05
Dark Count =  7.5 


Time (GMT)  Wavelength (Ang)  Step Number  Raw Counts  Counts/Second

 1122.45        2950.00           1222          54.00       202.70
 1122.51        2950.25           1226          60.00       228.86
 1122.54        2950.50           1229          54.00       202.70
 1122.58        2950.75           1232          56.00       211.42
 1122.61        2951.00           1236          50.00       185.27
 1122.64        2951.25           1239          57.00       215.78
 1122.67        2951.50           1242          54.00       202.70
 1122.70        2951.75           1246          52.00       193.99
 1122.73        2952.00           1249          49.00       180.91
 1122.76        2952.25           1252          52.00       193.99
 1122.79        2952.50           1256          52.00       193.99
 1122.82        2952.75           1259          57.00       215.78
 1122.85        2953.00           1262          52.00       193.99
 1122.88        2953.25           1266          61.00       233.22
 1122.91        2953.50           1269          61.00       233.22
 1122.94        2953.75           1272          55.00       207.06
 1122.97        2954.00           1276          56.00       211.42
 1123.00        2954.25           1279          55.00       207.06
 1123.03        2954.50           1282          58.00       220.14
 1123.07        2954.75           1286          57.00       215.78
 1123.10        2955.00           1289          46.00       167.83
 1123.13        2955.25           1292          64.00       246.30
 1123.16        2955.50           1296          50.00       185.27
 1123.19        2955.75           1299          53.00       198.34
 1123.22        2956.00           1302          54.00       202.70
 1123.25        2956.25           1306          58.00       220.14
 1123.28        2956.50           1309          54.00       202.70
 1123.31        2956.75           1312          54.00       202.70
 1123.34        2957.00           1316          52.00       193.99
 1123.38        2957.25           1319          46.00       167.83
 1123.41        2957.50           1322          55.00       207.06
 1123.44        2957.75           1326          51.00       189.63
 1123.47        2958.00           1329          56.00       211.42
 1123.50        2958.25           1332          58.00       220.14
 1123.53        2958.50           1336          56.00       211.42
 1123.56        2958.75           1339          53.00       198.34
 1123.59        2959.00           1342          56.00       211.42
 1123.62        2959.25           1346          62.00       237.58
 1123.65        2959.50           1349          61.00       233.22
 1123.68        2959.75           1352          59.00       224.50
 1123.71        2960.00           1356          88.00       350.92
 1123.74        2960.25           1359         110.00       446.82
 1123.77        2960.50           1362         141.00       581.96
 1123.80        2960.75           1366         178.00       743.26
 1123.84        2961.00           1369         208.00       874.04
 1123.87        2961.25           1372         237.00      1000.47
 1123.90        2961.50           1376         294.00      1248.96
 1123.93        2961.75           1379         485.00      2081.65
 1123.96        2962.00           1382        1160.00      5024.73
 1123.99        2962.25           1386        2580.00     11217.81
 1124.02        2962.50           1389        3708.00     16139.03
 1124.05        2962.75           1392        4902.00     21349.77
 1124.08        2963.00           1396        6421.00     27981.20
 1124.12        2963.25           1399        7680.00     33479.56
 1124.15        2963.50           1402        8903.00     38822.44
 1124.18        2963.75           1406       10526.00     45915.43
 1124.21        2964.00           1409       11768.00     51345.38
 1124.24        2964.25           1412       12945.00     56492.79
 1124.27        2964.50           1416       14529.00     63422.65
 1124.30        2964.75           1419       15761.00     68814.55
 1124.33        2965.00           1422       17072.00     74554.10
 1124.36        2965.25           1426       18483.00     80733.66
 1124.40        2965.50           1429       19646.00     85828.82
 1124.43        2965.75           1432       21029.00     91889.85
 1124.46        2966.00           1436       22700.00     99215.98
 1124.49        2966.25           1439       23738.00    103768.50
 1124.52        2966.50           1442       24704.00    108006.30
 1124.55        2966.75           1446       25653.00    112170.60
 1124.58        2967.00           1449       25907.00    113285.40
 1124.61        2967.25           1452       25926.00    113368.80
 1124.64        2967.50           1456       25983.00    113619.00
 1124.67        2967.75           1459       25791.00    112776.30
 1124.71        2968.00           1462       25734.00    112526.10
 1124.74        2968.25           1466       24700.00    107988.80
 1124.77        2968.50           1469       23646.00    103364.90
 1124.80        2968.75           1472       22446.00     98102.18
 1124.83        2969.00           1476       21002.00     91771.49
 1124.86        2969.25           1479       19588.00     85574.68
 1124.89        2969.50           1482       18550.00     81027.16
 1124.92        2969.75           1486       16864.00     73643.34
 1124.96        2970.00           1489       15661.00     68376.82
 1124.99        2970.25           1492       14569.00     63597.69
 1125.02        2970.50           1496       13090.00     57127.03
 1125.05        2970.75           1499       11936.00     52080.01
 1125.08        2971.00           1502       10681.00     46592.98
 1125.11        2971.25           1506        9167.00     39975.99
 1125.14        2971.50           1509        7788.00     33951.30
 1125.17        2971.75           1513        6164.00     26859.04
 1125.20        2972.00           1516        5015.00     21842.99
 1125.23        2972.25           1519        3864.00     16819.73
 1125.27        2972.50           1523        2253.00      9791.45
 1125.30        2972.75           1526        1205.00      5220.96
 1125.33        2973.00           1529         525.00      2256.04
 1125.36        2973.25           1533         321.00      1366.66
 1125.39        2973.50           1536         262.00      1109.45
 1125.42        2973.75           1539         221.00       930.71
 1125.45        2974.00           1543         195.00       817.37
 1125.48        2974.25           1546         133.00       547.09
 1125.51        2974.50           1549         120.00       490.42
 1125.55        2974.75           1553          78.00       307.33
 1125.58        2975.00           1556          67.00       259.37
 1125.61        2975.25           1559          59.00       224.50
 1125.64        2975.50           1563          51.00       189.63
 1125.67        2975.75           1566          52.00       193.99
 1125.70        2976.00           1569          56.00       211.42
 1125.73        2976.25           1573          46.00       167.83
 1125.76        2976.50           1576          52.00       193.99
 1125.79        2976.75           1579          59.00       224.50
 1125.82        2977.00           1583          51.00       189.63
 1125.86        2977.25           1586          51.00       189.63
 1125.89        2977.50           1590          43.00       154.75
 1125.92        2977.75           1593          66.00       255.02
 1125.95        2978.00           1596          48.00       176.55
 1125.98        2978.25           1600          56.00       211.42
 1126.01        2978.50           1603          53.00       198.34
 1126.04        2978.75           1606          54.00       202.70
 1126.07        2979.00           1610          46.00       167.83
 1126.12        2979.25           1613          49.00       180.91
 1126.15        2979.50           1616          50.00       185.27
 1126.18        2979.75           1620          46.00       167.83
 1126.21        2980.00           1623          54.00       202.70
 1126.24        2980.25           1626          48.00       176.55
 1126.28        2980.50           1630          50.00       185.27
 1126.31        2980.75           1633          45.00       163.47
 1126.34        2981.00           1637          45.00       163.47
 1126.37        2981.25           1640          40.00       141.67
 1126.40        2981.50           1643          48.00       176.55
 1126.43        2981.75           1647          46.00       167.83
 1126.46        2982.00           1650          45.00       163.47
 1126.49        2982.25           1653          45.00       163.47
 1126.52        2982.50           1657          56.00       211.42
 1126.55        2982.75           1660          48.00       176.55
 1126.58        2983.00           1663          66.00       255.02
 1126.61        2983.25           1667          50.00       185.27
 1126.65        2983.50           1670          46.00       167.83
 1126.68        2983.75           1673          50.00       185.27
 1126.71        2984.00           1677          53.00       198.34
HS scan finished at 18:46:55
end
