************************************************************
  HS Scan of (1) Internal mercury lamp
************************************************************
Integration time is 0.2294 seconds per sample
dh270217Manchester 53.47 2.23 2.750537pr1000
************************************************************
Dead Time -------------------------  3E-08 
Number of Cycles Used -------------  4 
Starting Wavelength (Angstroms) ---  2950 
Final Wavelength (Angstoms) -------  2984 
Wavelength Increment (Angstroms) --  .25 
Filter Wheel #1 Position ---------- (1) Ground quartz diffuser (ND=2.32)
Filter Wheel #2 Position ---------- (1) Neutral Density 0.494



************************************************************
HS scan start time = 04:12:10
Dark Count =  5.8 


Time (GMT)  Wavelength (Ang)  Step Number  Raw Counts  Counts/Second

  252.54        2950.00           1222          49.00       188.32
  252.61        2950.25           1226          48.00       183.96
  252.64        2950.50           1229          44.00       166.52
  252.67        2950.75           1232          54.00       210.11
  252.70        2951.00           1236          52.00       201.40
  252.73        2951.25           1239          43.00       162.16
  252.76        2951.50           1242          41.00       153.44
  252.79        2951.75           1246          57.00       223.19
  252.82        2952.00           1249          41.00       153.44
  252.85        2952.25           1252          41.00       153.44
  252.88        2952.50           1256          46.00       175.24
  252.91        2952.75           1259          51.00       197.04
  252.95        2953.00           1262          47.00       179.60
  252.98        2953.25           1266          46.00       175.24
  253.01        2953.50           1269          42.00       157.80
  253.04        2953.75           1272          44.00       166.52
  253.07        2954.00           1276          45.00       170.88
  253.10        2954.25           1279          51.00       197.04
  253.13        2954.50           1282          41.00       153.44
  253.16        2954.75           1286          43.00       162.16
  253.19        2955.00           1289          46.00       175.24
  253.22        2955.25           1292          49.00       188.32
  253.25        2955.50           1296          44.00       166.52
  253.28        2955.75           1299          50.00       192.68
  253.31        2956.00           1302          45.00       170.88
  253.34        2956.25           1306          50.00       192.68
  253.38        2956.50           1309          44.00       166.52
  253.41        2956.75           1312          42.00       157.80
  253.44        2957.00           1316          47.00       179.60
  253.47        2957.25           1319          38.00       140.37
  253.50        2957.50           1322          45.00       170.88
  253.53        2957.75           1326          41.00       153.44
  253.56        2958.00           1329          49.00       188.32
  253.59        2958.25           1332          54.00       210.11
  253.62        2958.50           1336          45.00       170.88
  253.65        2958.75           1339          51.00       197.04
  253.68        2959.00           1342          47.00       179.60
  253.71        2959.25           1346          49.00       188.32
  253.74        2959.50           1349          55.00       214.47
  253.77        2959.75           1352          76.00       306.02
  253.81        2960.00           1356         106.00       436.80
  253.84        2960.25           1359         134.00       558.86
  253.87        2960.50           1362         167.00       702.72
  253.90        2960.75           1366         236.00      1003.52
  253.93        2961.00           1369         269.00      1147.38
  253.96        2961.25           1372         313.00      1339.20
  253.99        2961.50           1376         441.00      1897.23
  254.02        2961.75           1379         820.00      3549.64
  254.05        2962.00           1382        1780.00      7735.88
  254.08        2962.25           1386        3575.00     15566.12
  254.11        2962.50           1389        5165.00     22505.17
  254.15        2962.75           1392        6691.00     29167.62
  254.18        2963.00           1396        8902.00     38825.49
  254.21        2963.25           1399       10567.00     46102.08
  254.24        2963.50           1402       12313.00     53736.08
  254.27        2963.75           1406       14572.00     63618.25
  254.30        2964.00           1409       16281.00     71098.31
  254.33        2964.25           1412       17998.00     78616.77
  254.36        2964.50           1416       20330.00     88833.64
  254.39        2964.75           1419       21972.00     96031.28
  254.42        2965.00           1422       23597.00    103157.50
  254.45        2965.25           1426       25980.00    113613.30
  254.49        2965.50           1429       27596.00    120707.50
  254.52        2965.75           1432       29150.00    127532.30
  254.55        2966.00           1436       31341.00    137159.60
  254.58        2966.25           1439       32662.00    142966.70
  254.61        2966.50           1442       34309.00    150209.80
  254.64        2966.75           1446       35759.00    156589.20
  254.67        2967.00           1449       36090.00    158045.80
  254.70        2967.25           1452       35966.00    157500.10
  254.73        2967.50           1456       35981.00    157566.10
  254.77        2967.75           1459       35765.00    156615.60
  254.80        2968.00           1462       35476.00    155343.90
  254.83        2968.25           1466       34266.00    150020.70
  254.86        2968.50           1469       32831.00    143709.80
  254.89        2968.75           1472       31088.00    136047.60
  254.92        2969.00           1476       28891.00    126394.70
  254.95        2969.25           1479       27144.00    118722.90
  254.98        2969.50           1482       25616.00    112015.70
  255.01        2969.75           1486       23514.00    102793.40
  255.05        2970.00           1489       21917.00     95790.13
  255.08        2970.25           1492       20223.00     88364.71
  255.11        2970.50           1496       18167.00     79356.97
  255.14        2970.75           1499       16474.00     71943.25
  255.17        2971.00           1502       14675.00     64068.98
  255.20        2971.25           1506       12369.00     53980.99
  255.23        2971.50           1509       10768.00     46980.73
  255.26        2971.75           1513        8536.00     37226.38
  255.29        2972.00           1516        6885.00     30014.81
  255.33        2972.25           1519        5318.00     23173.04
  255.36        2972.50           1523        3225.00     14039.04
  255.39        2972.75           1526        1784.00      7753.33
  255.42        2973.00           1529         853.00      3693.52
  255.45        2973.25           1533         420.00      1805.68
  255.48        2973.50           1536         340.00      1456.91
  255.51        2973.75           1539         294.00      1256.37
  255.54        2974.00           1543         236.00      1003.52
  255.57        2974.25           1546         172.00       724.51
  255.60        2974.50           1549         127.00       528.34
  255.63        2974.75           1553          95.00       388.85
  255.66        2975.00           1556          63.00       249.35
  255.69        2975.25           1559          50.00       192.68
  255.73        2975.50           1563          54.00       210.11
  255.76        2975.75           1566          44.00       166.52
  255.79        2976.00           1569          49.00       188.32
  255.82        2976.25           1573          46.00       175.24
  255.85        2976.50           1576          39.00       144.73
  255.88        2976.75           1579          47.00       179.60
  255.91        2977.00           1583          49.00       188.32
  255.94        2977.25           1586          56.00       218.83
  255.97        2977.50           1590          42.00       157.80
  256.00        2977.75           1593          42.00       157.80
  256.04        2978.00           1596          48.00       183.96
  256.07        2978.25           1600          54.00       210.11
  256.10        2978.50           1603          43.00       162.16
  256.13        2978.75           1606          44.00       166.52
  256.16        2979.00           1610          44.00       166.52
  256.19        2979.25           1613          52.00       201.40
  256.22        2979.50           1616          45.00       170.88
  256.25        2979.75           1620          41.00       153.44
  256.28        2980.00           1623          41.00       153.44
  256.31        2980.25           1626          47.00       179.60
  256.34        2980.50           1630          51.00       197.04
  256.37        2980.75           1633          41.00       153.44
  256.40        2981.00           1637          42.00       157.80
  256.44        2981.25           1640          38.00       140.37
  256.47        2981.50           1643          45.00       170.88
  256.50        2981.75           1647          43.00       162.16
  256.53        2982.00           1650          44.00       166.52
  256.56        2982.25           1653          49.00       188.32
  256.59        2982.50           1657          40.00       149.09
  256.62        2982.75           1660          39.00       144.73
  256.65        2983.00           1663          47.00       179.60
  256.68        2983.25           1667          43.00       162.16
  256.71        2983.50           1670          50.00       192.68
  256.74        2983.75           1673          42.00       157.80
  256.77        2984.00           1677          42.00       157.80
HS scan finished at 04:16:59
end
************************************************************
  HS Scan of (1) Internal mercury lamp
************************************************************
Integration time is 0.2294 seconds per sample
dh270217Manchester 53.47 2.23 2.750537pr1000
************************************************************
Dead Time -------------------------  3E-08 
Number of Cycles Used -------------  4 
Starting Wavelength (Angstroms) ---  2950 
Final Wavelength (Angstoms) -------  2984 
Wavelength Increment (Angstroms) --  .25 
Filter Wheel #1 Position ---------- (1) Ground quartz diffuser (ND=2.32)
Filter Wheel #2 Position ---------- (1) Neutral Density 0.494



************************************************************
HS scan start time = 18:42:01
Dark Count =  7.2 


Time (GMT)  Wavelength (Ang)  Step Number  Raw Counts  Counts/Second

 1122.39        2950.00           1222          50.00       186.57
 1122.46        2950.25           1226          43.00       156.06
 1122.49        2950.50           1229          56.00       212.73
 1122.52        2950.75           1232          42.00       151.70
 1122.55        2951.00           1236          45.00       164.78
 1122.58        2951.25           1239          42.00       151.70
 1122.61        2951.50           1242          48.00       177.86
 1122.64        2951.75           1246          51.00       190.93
 1122.67        2952.00           1249          44.00       160.42
 1122.70        2952.25           1252          42.00       151.70
 1122.73        2952.50           1256          45.00       164.78
 1122.76        2952.75           1259          45.00       164.78
 1122.79        2953.00           1262          46.00       169.14
 1122.83        2953.25           1266          48.00       177.86
 1122.86        2953.50           1269          45.00       164.78
 1122.89        2953.75           1272          45.00       164.78
 1122.92        2954.00           1276          40.00       142.98
 1122.95        2954.25           1279          44.00       160.42
 1122.98        2954.50           1282          46.00       169.14
 1123.01        2954.75           1286          45.00       164.78
 1123.04        2955.00           1289          45.00       164.78
 1123.07        2955.25           1292          42.00       151.70
 1123.11        2955.50           1296          45.00       164.78
 1123.14        2955.75           1299          52.00       195.29
 1123.17        2956.00           1302          40.00       142.98
 1123.20        2956.25           1306          49.00       182.22
 1123.23        2956.50           1309          44.00       160.42
 1123.26        2956.75           1312          50.00       186.57
 1123.29        2957.00           1316          47.00       173.50
 1123.32        2957.25           1319          48.00       177.86
 1123.35        2957.50           1322          47.00       173.50
 1123.38        2957.75           1326          48.00       177.86
 1123.41        2958.00           1329          53.00       199.65
 1123.44        2958.25           1332          49.00       182.22
 1123.47        2958.50           1336          49.00       182.22
 1123.51        2958.75           1339          41.00       147.34
 1123.54        2959.00           1342          51.00       190.93
 1123.57        2959.25           1346          49.00       182.22
 1123.60        2959.50           1349          49.00       182.22
 1123.63        2959.75           1352          58.00       221.45
 1123.66        2960.00           1356          87.00       347.87
 1123.69        2960.25           1359         111.00       452.49
 1123.72        2960.50           1362         145.00       600.71
 1123.75        2960.75           1366         194.00       814.32
 1123.78        2961.00           1369         249.00      1054.09
 1123.81        2961.25           1372         301.00      1280.78
 1123.84        2961.50           1376         422.00      1808.29
 1123.87        2961.75           1379         659.00      2841.57
 1123.91        2962.00           1382        1337.00      5797.87
 1123.94        2962.25           1386        2994.00     13025.14
 1123.97        2962.50           1389        4571.00     19906.39
 1124.00        2962.75           1392        6152.00     26807.95
 1124.03        2963.00           1396        8280.00     36101.85
 1124.06        2963.25           1399       10076.00     43949.80
 1124.09        2963.50           1402       11564.00     50454.69
 1124.12        2963.75           1406       13672.00     59674.30
 1124.15        2964.00           1409       15561.00     67940.43
 1124.18        2964.25           1412       17358.00     75807.78
 1124.22        2964.50           1416       19685.00     86001.03
 1124.25        2964.75           1419       21465.00     93802.40
 1124.28        2965.00           1422       23137.00    101133.80
 1124.31        2965.25           1426       25492.00    111465.40
 1124.34        2965.50           1429       27044.00    118277.70
 1124.37        2965.75           1432       28491.00    124631.70
 1124.40        2966.00           1436       30805.00    134797.70
 1124.43        2966.25           1439       32316.00    141439.30
 1124.46        2966.50           1442       33611.00    147133.60
 1124.50        2966.75           1446       35276.00    154457.80
 1124.53        2967.00           1449       35833.00    156908.60
 1124.56        2967.25           1452       35839.00    156935.10
 1124.59        2967.50           1456       35731.00    156459.80
 1124.62        2967.75           1459       35579.00    155791.00
 1124.65        2968.00           1462       35462.00    155276.10
 1124.68        2968.25           1466       34576.00    151378.10
 1124.71        2968.50           1469       33135.00    145040.40
 1124.74        2968.75           1472       31757.00    138981.90
 1124.78        2969.00           1476       29687.00    129885.20
 1124.81        2969.25           1479       28142.00    123098.90
 1124.84        2969.50           1482       26430.00    115582.30
 1124.87        2969.75           1486       24117.00    105432.40
 1124.90        2970.00           1489       22572.00     98655.99
 1124.93        2970.25           1492       20803.00     90900.56
 1124.96        2970.50           1496       18760.00     81948.40
 1124.99        2970.75           1499       16997.00     74227.02
 1125.02        2971.00           1502       15420.00     67323.28
 1125.06        2971.25           1506       13194.00     57583.26
 1125.09        2971.50           1509       11611.00     50660.20
 1125.12        2971.75           1513        9449.00     41209.59
 1125.15        2972.00           1516        7787.00     33948.25
 1125.18        2972.25           1519        6205.00     27039.36
 1125.21        2972.50           1523        4195.00     18265.46
 1125.24        2972.75           1526        2629.00     11432.87
 1125.27        2973.00           1529        1252.00      5427.21
 1125.30        2973.25           1533         508.00      2183.23
 1125.33        2973.50           1536         373.00      1594.67
 1125.37        2973.75           1539         335.00      1429.01
 1125.40        2974.00           1543         267.00      1132.56
 1125.43        2974.25           1546         212.00       892.79
 1125.46        2974.50           1549         158.00       657.38
 1125.49        2974.75           1553         114.00       465.57
 1125.52        2975.00           1556          93.00       374.02
 1125.55        2975.25           1559          62.00       238.89
 1125.58        2975.50           1563          53.00       199.65
 1125.61        2975.75           1566          44.00       160.42
 1125.65        2976.00           1569          48.00       177.86
 1125.68        2976.25           1573          46.00       169.14
 1125.71        2976.50           1576          45.00       164.78
 1125.74        2976.75           1579          46.00       169.14
 1125.77        2977.00           1583          48.00       177.86
 1125.80        2977.25           1586          56.00       212.73
 1125.83        2977.50           1590          41.00       147.34
 1125.86        2977.75           1593          44.00       160.42
 1125.89        2978.00           1596          53.00       199.65
 1125.92        2978.25           1600          46.00       169.14
 1125.95        2978.50           1603          38.00       134.26
 1125.98        2978.75           1606          48.00       177.86
 1126.02        2979.00           1610          48.00       177.86
 1126.05        2979.25           1613          53.00       199.65
 1126.08        2979.50           1616          44.00       160.42
 1126.11        2979.75           1620          42.00       151.70
 1126.14        2980.00           1623          40.00       142.98
 1126.17        2980.25           1626          49.00       182.22
 1126.20        2980.50           1630          47.00       173.50
 1126.23        2980.75           1633          44.00       160.42
 1126.26        2981.00           1637          47.00       173.50
 1126.29        2981.25           1640          42.00       151.70
 1126.32        2981.50           1643          47.00       173.50
 1126.36        2981.75           1647          43.00       156.06
 1126.39        2982.00           1650          46.00       169.14
 1126.42        2982.25           1653          43.00       156.06
 1126.45        2982.50           1657          42.00       151.70
 1126.48        2982.75           1660          46.00       169.14
 1126.51        2983.00           1663          48.00       177.86
 1126.54        2983.25           1667          42.00       151.70
 1126.57        2983.50           1670          45.00       164.78
 1126.60        2983.75           1673          46.00       169.14
 1126.63        2984.00           1677          43.00       156.06
HS scan finished at 18:46:51
end
