************************************************************
  HS Scan of (1) Internal mercury lamp
************************************************************
Integration time is 0.2294 seconds per sample
dh190219Manchester 53.47 2.23 2.804185pr1000
************************************************************
Dead Time -------------------------  3E-08 
Number of Cycles Used -------------  4 
Starting Wavelength (Angstroms) ---  2950 
Final Wavelength (Angstoms) -------  2984 
Wavelength Increment (Angstroms) --  .25 
Filter Wheel #1 Position ---------- (1) Ground quartz diffuser (ND=2.32)
Filter Wheel #2 Position ---------- (1) Neutral Density 0.494



************************************************************
HS scan start time = 04:34:19
Dark Count =  5.1 


Time (GMT)  Wavelength (Ang)  Step Number  Raw Counts  Counts/Second

  274.68        2950.00           1222          54.00       213.17
  274.75        2950.25           1226          51.00       200.09
  274.78        2950.50           1229          56.00       221.88
  274.81        2950.75           1232          54.00       213.17
  274.84        2951.00           1236          49.00       191.37
  274.87        2951.25           1239          53.00       208.81
  274.90        2951.50           1242          61.00       243.68
  274.93        2951.75           1246          59.00       234.96
  274.96        2952.00           1249          52.00       204.45
  274.99        2952.25           1252          53.00       208.81
  275.03        2952.50           1256          60.00       239.32
  275.06        2952.75           1259          61.00       243.68
  275.09        2953.00           1262          53.00       208.81
  275.12        2953.25           1266          58.00       230.60
  275.15        2953.50           1269          58.00       230.60
  275.18        2953.75           1272          65.00       261.12
  275.21        2954.00           1276          52.00       204.45
  275.24        2954.25           1279          60.00       239.32
  275.27        2954.50           1282          49.00       191.37
  275.30        2954.75           1286          62.00       248.04
  275.33        2955.00           1289          44.00       169.57
  275.36        2955.25           1292          55.00       217.53
  275.39        2955.50           1296          58.00       230.60
  275.43        2955.75           1299          59.00       234.96
  275.46        2956.00           1302          49.00       191.37
  275.49        2956.25           1306          57.00       226.24
  275.52        2956.50           1309          52.00       204.45
  275.55        2956.75           1312          49.00       191.37
  275.58        2957.00           1316          50.00       195.73
  275.61        2957.25           1319          57.00       226.24
  275.64        2957.50           1322          59.00       234.96
  275.67        2957.75           1326          51.00       200.09
  275.70        2958.00           1329          53.00       208.81
  275.73        2958.25           1332          56.00       221.88
  275.76        2958.50           1336          56.00       221.88
  275.79        2958.75           1339          63.00       252.40
  275.83        2959.00           1342          44.00       169.57
  275.86        2959.25           1346          59.00       234.96
  275.89        2959.50           1349          59.00       234.96
  275.92        2959.75           1352          60.00       239.32
  275.95        2960.00           1356          89.00       365.74
  275.98        2960.25           1359          98.00       404.97
  276.01        2960.50           1362         121.00       505.24
  276.04        2960.75           1366         157.00       662.18
  276.07        2961.00           1369         189.00       801.68
  276.10        2961.25           1372         234.00       997.85
  276.13        2961.50           1376         288.00      1233.26
  276.16        2961.75           1379         444.00      1913.36
  276.20        2962.00           1382        1021.00      4429.10
  276.23        2962.25           1386        2389.00     10395.13
  276.26        2962.50           1389        3658.00     15931.33
  276.29        2962.75           1392        4886.00     21290.41
  276.32        2963.00           1396        6513.00     28393.40
  276.35        2963.25           1399        7628.00     33262.91
  276.38        2963.50           1402        9019.00     39339.78
  276.41        2963.75           1406       10468.00     45672.40
  276.44        2964.00           1409       11821.00     51587.62
  276.48        2964.25           1412       12931.00     56442.05
  276.51        2964.50           1416       14537.00     63468.16
  276.54        2964.75           1419       15716.00     68628.08
  276.57        2965.00           1422       17010.00     74293.13
  276.60        2965.25           1426       18681.00     81611.51
  276.63        2965.50           1429       20001.00     87394.93
  276.66        2965.75           1432       21149.00     92426.37
  276.69        2966.00           1436       22971.00    100414.90
  276.72        2966.25           1439       23977.00    104827.40
  276.76        2966.50           1442       25141.00    109934.40
  276.79        2966.75           1446       25972.00    113581.20
  276.82        2967.00           1449       26102.00    114151.80
  276.85        2967.25           1452       26005.00    113726.10
  276.88        2967.50           1456       26136.00    114301.00
  276.91        2967.75           1459       26263.00    114858.50
  276.94        2968.00           1462       25839.00    112997.50
  276.97        2968.25           1466       24732.00    108139.70
  277.00        2968.50           1469       23455.00    102537.70
  277.03        2968.75           1472       22328.00     97595.28
  277.06        2969.00           1476       21050.00     91992.42
  277.10        2969.25           1479       19743.00     86264.37
  277.13        2969.50           1482       18530.00     80950.06
  277.16        2969.75           1486       16931.00     73947.21
  277.19        2970.00           1489       15624.00     68225.38
  277.22        2970.25           1492       14529.00     63433.16
  277.25        2970.50           1496       12976.00     56638.89
  277.28        2970.75           1499       11705.00     51080.40
  277.31        2971.00           1502       10587.00     46192.57
  277.34        2971.25           1506        8837.00     38544.55
  277.38        2971.50           1509        7568.00     33000.84
  277.41        2971.75           1513        5938.00     25882.78
  277.44        2972.00           1516        4785.00     20849.57
  277.47        2972.25           1519        3609.00     15717.52
  277.50        2972.50           1523        2170.00      9439.90
  277.53        2972.75           1526        1140.00      4947.99
  277.56        2973.00           1529         551.00      2379.86
  277.59        2973.25           1533         336.00      1442.52
  277.62        2973.50           1536         287.00      1228.90
  277.65        2973.75           1539         243.00      1037.09
  277.68        2974.00           1543         207.00       880.15
  277.72        2974.25           1546         159.00       670.89
  277.75        2974.50           1549         130.00       544.47
  277.78        2974.75           1553          97.00       400.62
  277.81        2975.00           1556          64.00       256.76
  277.84        2975.25           1559          71.00       287.27
  277.87        2975.50           1563          54.00       213.17
  277.90        2975.75           1566          61.00       243.68
  277.93        2976.00           1569          53.00       208.81
  277.96        2976.25           1573          54.00       213.17
  277.99        2976.50           1576          57.00       226.24
  278.02        2976.75           1579          51.00       200.09
  278.05        2977.00           1583          46.00       178.29
  278.08        2977.25           1586          46.00       178.29
  278.11        2977.50           1590          53.00       208.81
  278.14        2977.75           1593          48.00       187.01
  278.17        2978.00           1596          50.00       195.73
  278.20        2978.25           1600          52.00       204.45
  278.24        2978.50           1603          60.00       239.32
  278.27        2978.75           1606          51.00       200.09
  278.30        2979.00           1610          49.00       191.37
  278.33        2979.25           1613          50.00       195.73
  278.36        2979.50           1616          54.00       213.17
  278.39        2979.75           1620          47.00       182.65
  278.42        2980.00           1623          56.00       221.88
  278.45        2980.25           1626          50.00       195.73
  278.48        2980.50           1630          45.00       173.93
  278.51        2980.75           1633          51.00       200.09
  278.54        2981.00           1637          48.00       187.01
  278.57        2981.25           1640          54.00       213.17
  278.60        2981.50           1643          55.00       217.53
  278.64        2981.75           1647          54.00       213.17
  278.67        2982.00           1650          53.00       208.81
  278.70        2982.25           1653          46.00       178.29
  278.73        2982.50           1657          46.00       178.29
  278.76        2982.75           1660          49.00       191.37
  278.79        2983.00           1663          50.00       195.73
  278.82        2983.25           1667          52.00       204.45
  278.85        2983.50           1670          50.00       195.73
  278.88        2983.75           1673          54.00       213.17
  278.91        2984.00           1677          42.00       160.86
HS scan finished at 04:39:08
end
************************************************************
  HS Scan of (1) Internal mercury lamp
************************************************************
Integration time is 0.2294 seconds per sample
dh190219Manchester 53.47 2.23 2.804185pr1000
************************************************************
Dead Time -------------------------  3E-08 
Number of Cycles Used -------------  4 
Starting Wavelength (Angstroms) ---  2950 
Final Wavelength (Angstoms) -------  2984 
Wavelength Increment (Angstroms) --  .25 
Filter Wheel #1 Position ---------- (1) Ground quartz diffuser (ND=2.32)
Filter Wheel #2 Position ---------- (1) Neutral Density 0.494



************************************************************
HS scan start time = 18:12:05
Dark Count =  6.9 


Time (GMT)  Wavelength (Ang)  Step Number  Raw Counts  Counts/Second

 1092.45        2950.00           1222          63.00       244.55
 1092.51        2950.25           1226          59.00       227.12
 1092.54        2950.50           1229          51.00       192.24
 1092.57        2950.75           1232          54.00       205.32
 1092.61        2951.00           1236          57.00       218.40
 1092.64        2951.25           1239          60.00       231.48
 1092.67        2951.50           1242          56.00       214.04
 1092.70        2951.75           1246          62.00       240.19
 1092.73        2952.00           1249          56.00       214.04
 1092.76        2952.25           1252          54.00       205.32
 1092.79        2952.50           1256          57.00       218.40
 1092.82        2952.75           1259          52.00       196.60
 1092.85        2953.00           1262          54.00       205.32
 1092.88        2953.25           1266          53.00       200.96
 1092.91        2953.50           1269          59.00       227.12
 1092.95        2953.75           1272          50.00       187.88
 1092.98        2954.00           1276          63.00       244.55
 1093.01        2954.25           1279          60.00       231.48
 1093.04        2954.50           1282          52.00       196.60
 1093.07        2954.75           1286          51.00       192.24
 1093.10        2955.00           1289          58.00       222.76
 1093.13        2955.25           1292          54.00       205.32
 1093.16        2955.50           1296          53.00       200.96
 1093.19        2955.75           1299          58.00       222.76
 1093.22        2956.00           1302          52.00       196.60
 1093.25        2956.25           1306          49.00       183.52
 1093.28        2956.50           1309          59.00       227.12
 1093.32        2956.75           1312          54.00       205.32
 1093.35        2957.00           1316          56.00       214.04
 1093.38        2957.25           1319          59.00       227.12
 1093.41        2957.50           1322          56.00       214.04
 1093.44        2957.75           1326          58.00       222.76
 1093.47        2958.00           1329          54.00       205.32
 1093.50        2958.25           1332          54.00       205.32
 1093.53        2958.50           1336          50.00       187.88
 1093.56        2958.75           1339          58.00       222.76
 1093.59        2959.00           1342          51.00       192.24
 1093.62        2959.25           1346          58.00       222.76
 1093.65        2959.50           1349          64.00       248.91
 1093.69        2959.75           1352          69.00       270.71
 1093.72        2960.00           1356          92.00       370.97
 1093.75        2960.25           1359         101.00       410.21
 1093.78        2960.50           1362         140.00       580.22
 1093.81        2960.75           1366         185.00       776.39
 1093.84        2961.00           1369         209.00       881.02
 1093.87        2961.25           1372         242.00      1024.88
 1093.90        2961.50           1376         309.00      1316.97
 1093.93        2961.75           1379         507.00      2180.18
 1093.96        2962.00           1382        1244.00      5393.64
 1093.99        2962.25           1386        2733.00     11887.85
 1094.03        2962.50           1389        3910.00     17023.08
 1094.06        2962.75           1392        5092.00     22181.72
 1094.09        2963.00           1396        6653.00     28996.88
 1094.12        2963.25           1399        7879.00     34351.42
 1094.15        2963.50           1402        9233.00     40267.01
 1094.18        2963.75           1406       10554.00     46040.44
 1094.21        2964.00           1409       11812.00     51540.40
 1094.24        2964.25           1412       13087.00     57116.53
 1094.27        2964.50           1416       14746.00     64374.86
 1094.30        2964.75           1419       15822.00     69084.18
 1094.33        2965.00           1422       17212.00     75169.76
 1094.37        2965.25           1426       18681.00     81603.63
 1094.40        2965.50           1429       19903.00     86957.59
 1094.43        2965.75           1432       21239.00     92813.00
 1094.46        2966.00           1436       22717.00     99293.15
 1094.49        2966.25           1439       23821.00    104135.20
 1094.52        2966.50           1442       24941.00    109048.90
 1094.55        2966.75           1446       25787.00    112761.40
 1094.58        2967.00           1449       26102.00    114143.90
 1094.62        2967.25           1452       25720.00    112467.30
 1094.65        2967.50           1456       25979.00    113604.00
 1094.68        2967.75           1459       25996.00    113678.70
 1094.71        2968.00           1462       25584.00    111870.50
 1094.74        2968.25           1466       24611.00    107600.90
 1094.77        2968.50           1469       23452.00    102516.60
 1094.80        2968.75           1472       22298.00     97455.83
 1094.83        2969.00           1476       20673.00     90332.09
 1094.86        2969.25           1479       19517.00     85266.22
 1094.90        2969.50           1482       18248.00     79706.93
 1094.93        2969.75           1486       16727.00     73046.13
 1094.96        2970.00           1489       15571.00     67985.52
 1094.99        2970.25           1492       14476.00     63193.36
 1095.02        2970.50           1496       12957.00     56547.90
 1095.05        2970.75           1499       11851.00     51710.94
 1095.08        2971.00           1502       10564.00     46084.15
 1095.11        2971.25           1506        8918.00     38890.60
 1095.14        2971.50           1509        7707.00     33600.11
 1095.17        2971.75           1513        6138.00     26748.14
 1095.21        2972.00           1516        4871.00     21217.08
 1095.24        2972.25           1519        3788.00     16490.72
 1095.27        2972.50           1523        2133.00      9270.67
 1095.30        2972.75           1526        1082.00      4687.23
 1095.33        2973.00           1529         503.00      2162.74
 1095.36        2973.25           1533         313.00      1334.40
 1095.39        2973.50           1536         260.00      1103.35
 1095.42        2973.75           1539         234.00       990.00
 1095.45        2974.00           1543         167.00       697.92
 1095.49        2974.25           1546         144.00       597.66
 1095.52        2974.50           1549         105.00       427.64
 1095.55        2974.75           1553          74.00       292.50
 1095.58        2975.00           1556          69.00       270.71
 1095.61        2975.25           1559          52.00       196.60
 1095.64        2975.50           1563          52.00       196.60
 1095.67        2975.75           1566          54.00       205.32
 1095.70        2976.00           1569          53.00       200.96
 1095.73        2976.25           1573          54.00       205.32
 1095.76        2976.50           1576          53.00       200.96
 1095.79        2976.75           1579          51.00       192.24
 1095.82        2977.00           1583          48.00       179.16
 1095.85        2977.25           1586          65.00       253.27
 1095.89        2977.50           1590          56.00       214.04
 1095.92        2977.75           1593          52.00       196.60
 1095.95        2978.00           1596          44.00       161.73
 1095.98        2978.25           1600          50.00       187.88
 1096.01        2978.50           1603          48.00       179.16
 1096.04        2978.75           1606          54.00       205.32
 1096.07        2979.00           1610          54.00       205.32
 1096.10        2979.25           1613          50.00       187.88
 1096.13        2979.50           1616          64.00       248.91
 1096.16        2979.75           1620          51.00       192.24
 1096.19        2980.00           1623          52.00       196.60
 1096.22        2980.25           1626          50.00       187.88
 1096.25        2980.50           1630          59.00       227.12
 1096.29        2980.75           1633          46.00       170.45
 1096.32        2981.00           1637          49.00       183.52
 1096.35        2981.25           1640          49.00       183.52
 1096.38        2981.50           1643          47.00       174.80
 1096.41        2981.75           1647          50.00       187.88
 1096.44        2982.00           1650          42.00       153.01
 1096.47        2982.25           1653          49.00       183.52
 1096.50        2982.50           1657          46.00       170.45
 1096.54        2982.75           1660          45.00       166.09
 1096.57        2983.00           1663          50.00       187.88
 1096.60        2983.25           1667          55.00       209.68
 1096.63        2983.50           1670          49.00       183.52
 1096.66        2983.75           1673          51.00       192.24
 1096.69        2984.00           1677          55.00       209.68
HS scan finished at 18:16:54
end
