************************************************************
  HS Scan of (1) Internal mercury lamp
************************************************************
Integration time is 0.2294 seconds per sample
dh190217Manchester 53.47 2.23 2.804185pr1000
************************************************************
Dead Time -------------------------  3E-08 
Number of Cycles Used -------------  4 
Starting Wavelength (Angstroms) ---  2950 
Final Wavelength (Angstoms) -------  2984 
Wavelength Increment (Angstroms) --  .25 
Filter Wheel #1 Position ---------- (1) Ground quartz diffuser (ND=2.32)
Filter Wheel #2 Position ---------- (1) Neutral Density 0.494



************************************************************
HS scan start time = 04:31:54
Dark Count =  6.8 


Time (GMT)  Wavelength (Ang)  Step Number  Raw Counts  Counts/Second

  272.28        2950.00           1222          41.00       149.09
  272.34        2950.25           1226          53.00       201.40
  272.37        2950.50           1229          35.00       122.93
  272.41        2950.75           1232          44.00       162.16
  272.44        2951.00           1236          45.00       166.52
  272.47        2951.25           1239          41.00       149.09
  272.50        2951.50           1242          45.00       166.52
  272.53        2951.75           1246          44.00       162.16
  272.56        2952.00           1249          50.00       188.32
  272.59        2952.25           1252          48.00       179.60
  272.62        2952.50           1256          49.00       183.96
  272.65        2952.75           1259          44.00       162.16
  272.68        2953.00           1262          38.00       136.01
  272.72        2953.25           1266          42.00       153.44
  272.75        2953.50           1269          50.00       188.32
  272.78        2953.75           1272          43.00       157.80
  272.81        2954.00           1276          40.00       144.73
  272.84        2954.25           1279          45.00       166.52
  272.87        2954.50           1282          41.00       149.09
  272.90        2954.75           1286          43.00       157.80
  272.93        2955.00           1289          48.00       179.60
  272.96        2955.25           1292          44.00       162.16
  272.99        2955.50           1296          44.00       162.16
  273.02        2955.75           1299          42.00       153.44
  273.05        2956.00           1302          43.00       157.80
  273.08        2956.25           1306          45.00       166.52
  273.11        2956.50           1309          53.00       201.40
  273.14        2956.75           1312          46.00       170.88
  273.18        2957.00           1316          40.00       144.73
  273.21        2957.25           1319          53.00       201.40
  273.24        2957.50           1322          44.00       162.16
  273.27        2957.75           1326          47.00       175.24
  273.30        2958.00           1329          42.00       153.44
  273.33        2958.25           1332          48.00       179.60
  273.36        2958.50           1336          43.00       157.80
  273.39        2958.75           1339          44.00       162.16
  273.42        2959.00           1342          44.00       162.16
  273.45        2959.25           1346          45.00       166.52
  273.49        2959.50           1349          48.00       179.60
  273.52        2959.75           1352          62.00       240.63
  273.55        2960.00           1356          81.00       323.46
  273.58        2960.25           1359         114.00       467.31
  273.61        2960.50           1362         141.00       585.01
  273.64        2960.75           1366         205.00       864.02
  273.67        2961.00           1369         273.00      1160.46
  273.70        2961.25           1372         305.00      1299.96
  273.73        2961.50           1376         388.00      1661.81
  273.76        2961.75           1379         598.00      2577.36
  273.79        2962.00           1382        1214.00      5263.26
  273.82        2962.25           1386        2890.00     12573.18
  273.85        2962.50           1389        4401.00     19166.21
  273.89        2962.75           1392        6021.00     26237.74
  273.92        2963.00           1396        8063.00     35155.63
  273.95        2963.25           1399        9771.00     42618.54
  273.98        2963.50           1402       11494.00     50150.38
  274.01        2963.75           1406       13526.00     59037.34
  274.04        2964.00           1409       15290.00     66756.06
  274.07        2964.25           1412       17257.00     75367.25
  274.10        2964.50           1416       19417.00     84828.50
  274.13        2964.75           1419       21319.00     93164.11
  274.16        2965.00           1422       22638.00     98947.16
  274.20        2965.25           1426       24801.00    108435.00
  274.23        2965.50           1429       26447.00    115658.70
  274.26        2965.75           1432       28037.00    122639.60
  274.29        2966.00           1436       30264.00    132422.10
  274.32        2966.25           1439       31989.00    140003.50
  274.35        2966.50           1442       33213.00    145385.10
  274.38        2966.75           1446       35006.00    153271.60
  274.41        2967.00           1449       35681.00    156241.50
  274.44        2967.25           1452       35757.00    156576.00
  274.47        2967.50           1456       35685.00    156259.10
  274.50        2967.75           1459       35847.00    156972.00
  274.54        2968.00           1462       35454.00    155242.70
  274.57        2968.25           1466       34602.00    151494.30
  274.60        2968.50           1469       33356.00    146014.00
  274.63        2968.75           1472       31845.00    139370.50
  274.66        2969.00           1476       29689.00    129895.80
  274.69        2969.25           1479       28247.00    123561.80
  274.72        2969.50           1482       26591.00    116290.80
  274.75        2969.75           1486       24364.00    106517.70
  274.78        2970.00           1489       22515.00     98407.79
  274.81        2970.25           1492       21165.00     92489.06
  274.84        2970.50           1496       18812.00     82177.93
  274.88        2970.75           1499       17084.00     74609.71
  274.91        2971.00           1502       15435.00     67390.69
  274.94        2971.25           1506       13295.00     58026.82
  274.97        2971.50           1509       11576.00     50508.92
  275.00        2971.75           1513        9478.00     41338.07
  275.03        2972.00           1516        8018.00     34959.05
  275.06        2972.25           1519        6161.00     26848.99
  275.09        2972.50           1523        4055.00     17656.26
  275.12        2972.75           1526        2541.00     11050.74
  275.16        2973.00           1529        1175.00      5093.19
  275.19        2973.25           1533         534.00      2298.33
  275.22        2973.50           1536         366.00      1565.90
  275.25        2973.75           1539         305.00      1299.96
  275.28        2974.00           1543         269.00      1143.02
  275.31        2974.25           1546         198.00       833.50
  275.34        2974.50           1549         168.00       702.72
  275.37        2974.75           1553         102.00       415.00
  275.40        2975.00           1556          79.00       314.74
  275.43        2975.25           1559          69.00       271.14
  275.46        2975.50           1563          55.00       210.11
  275.49        2975.75           1566          53.00       201.40
  275.53        2976.00           1569          47.00       175.24
  275.56        2976.25           1573          44.00       162.16
  275.59        2976.50           1576          45.00       166.52
  275.62        2976.75           1579          45.00       166.52
  275.65        2977.00           1583          49.00       183.96
  275.68        2977.25           1586          53.00       201.40
  275.71        2977.50           1590          44.00       162.16
  275.74        2977.75           1593          40.00       144.73
  275.77        2978.00           1596          46.00       170.88
  275.80        2978.25           1600          46.00       170.88
  275.83        2978.50           1603          46.00       170.88
  275.86        2978.75           1606          49.00       183.96
  275.89        2979.00           1610          47.00       175.24
  275.93        2979.25           1613          45.00       166.52
  275.96        2979.50           1616          40.00       144.73
  275.99        2979.75           1620          41.00       149.09
  276.02        2980.00           1623          41.00       149.09
  276.05        2980.25           1626          45.00       166.52
  276.08        2980.50           1630          44.00       162.16
  276.11        2980.75           1633          45.00       166.52
  276.14        2981.00           1637          36.00       127.29
  276.17        2981.25           1640          41.00       149.09
  276.20        2981.50           1643          41.00       149.09
  276.23        2981.75           1647          45.00       166.52
  276.26        2982.00           1650          48.00       179.60
  276.29        2982.25           1653          44.00       162.16
  276.32        2982.50           1657          44.00       162.16
  276.36        2982.75           1660          43.00       157.80
  276.39        2983.00           1663          39.00       140.37
  276.42        2983.25           1667          43.00       157.80
  276.45        2983.50           1670          39.00       140.37
  276.48        2983.75           1673          39.00       140.37
  276.51        2984.00           1677          42.00       153.44
HS scan finished at 04:36:44
end
************************************************************
  HS Scan of (1) Internal mercury lamp
************************************************************
Integration time is 0.2294 seconds per sample
dh190217Manchester 53.47 2.23 2.804185pr1000
************************************************************
Dead Time -------------------------  3E-08 
Number of Cycles Used -------------  4 
Starting Wavelength (Angstroms) ---  2950 
Final Wavelength (Angstoms) -------  2984 
Wavelength Increment (Angstroms) --  .25 
Filter Wheel #1 Position ---------- (1) Ground quartz diffuser (ND=2.32)
Filter Wheel #2 Position ---------- (1) Neutral Density 0.494



************************************************************
HS scan start time = 18:42:03
Dark Count =  6.1 


Time (GMT)  Wavelength (Ang)  Step Number  Raw Counts  Counts/Second

 1122.43        2950.00           1222          38.00       139.06
 1122.49        2950.25           1226          48.00       182.65
 1122.53        2950.50           1229          39.00       143.42
 1122.56        2950.75           1232          47.00       178.29
 1122.59        2951.00           1236          43.00       160.86
 1122.62        2951.25           1239          43.00       160.86
 1122.65        2951.50           1242          49.00       187.01
 1122.68        2951.75           1246          42.00       156.50
 1122.71        2952.00           1249          47.00       178.29
 1122.74        2952.25           1252          45.00       169.57
 1122.77        2952.50           1256          49.00       187.01
 1122.80        2952.75           1259          49.00       187.01
 1122.83        2953.00           1262          44.00       165.21
 1122.87        2953.25           1266          54.00       208.81
 1122.90        2953.50           1269          39.00       143.42
 1122.93        2953.75           1272          45.00       169.57
 1122.96        2954.00           1276          41.00       152.14
 1122.99        2954.25           1279          52.00       200.09
 1123.02        2954.50           1282          39.00       143.42
 1123.05        2954.75           1286          50.00       191.37
 1123.08        2955.00           1289          40.00       147.78
 1123.11        2955.25           1292          46.00       173.93
 1123.14        2955.50           1296          47.00       178.29
 1123.17        2955.75           1299          49.00       187.01
 1123.20        2956.00           1302          53.00       204.45
 1123.24        2956.25           1306          48.00       182.65
 1123.27        2956.50           1309          48.00       182.65
 1123.30        2956.75           1312          49.00       187.01
 1123.33        2957.00           1316          44.00       165.21
 1123.36        2957.25           1319          50.00       191.37
 1123.39        2957.50           1322          46.00       173.93
 1123.42        2957.75           1326          50.00       191.37
 1123.45        2958.00           1329          51.00       195.73
 1123.48        2958.25           1332          47.00       178.29
 1123.51        2958.50           1336          45.00       169.57
 1123.54        2958.75           1339          49.00       187.01
 1123.57        2959.00           1342          46.00       173.93
 1123.60        2959.25           1346          52.00       200.09
 1123.63        2959.50           1349          64.00       252.40
 1123.67        2959.75           1352          72.00       287.27
 1123.70        2960.00           1356         110.00       452.93
 1123.73        2960.25           1359         153.00       640.38
 1123.76        2960.50           1362         200.00       845.27
 1123.79        2960.75           1366         235.00       997.85
 1123.82        2961.00           1369         287.00      1224.54
 1123.85        2961.25           1372         341.00      1459.96
 1123.88        2961.50           1376         442.00      1900.28
 1123.91        2961.75           1379         746.00      3225.68
 1123.95        2962.00           1382        1479.00      6421.90
 1123.98        2962.25           1386        3404.00     14818.70
 1124.01        2962.50           1389        4997.00     21770.54
 1124.04        2962.75           1392        6409.00     27934.91
 1124.07        2963.00           1396        8462.00     36901.78
 1124.10        2963.25           1399       10084.00     43989.58
 1124.13        2963.50           1402       11636.00     50774.33
 1124.16        2963.75           1406       14023.00     61214.76
 1124.19        2964.00           1409       15578.00     68019.66
 1124.23        2964.25           1412       17323.00     75659.33
 1124.26        2964.50           1416       19744.00     86264.37
 1124.29        2964.75           1419       21427.00     93640.64
 1124.32        2965.00           1422       23166.00    101265.80
 1124.35        2965.25           1426       25119.00    109833.40
 1124.38        2965.50           1429       26720.00    116860.10
 1124.41        2965.75           1432       28321.00    123889.90
 1124.44        2966.00           1436       30596.00    133884.10
 1124.47        2966.25           1439       32021.00    140147.30
 1124.51        2966.50           1442       33703.00    147543.10
 1124.54        2966.75           1446       34827.00    152487.20
 1124.57        2967.00           1449       35330.00    154700.20
 1124.60        2967.25           1452       35552.00    155677.00
 1124.63        2967.50           1456       35499.00    155443.80
 1124.66        2967.75           1459       35555.00    155690.20
 1124.69        2968.00           1462       35212.00    154181.00
 1124.72        2968.25           1466       34106.00    149315.60
 1124.75        2968.50           1469       32544.00    142446.60
 1124.78        2968.75           1472       31125.00    136208.90
 1124.81        2969.00           1476       29120.00    127399.20
 1124.85        2969.25           1479       27467.00    120139.70
 1124.88        2969.50           1482       25727.00    112501.60
 1124.91        2969.75           1486       23714.00    103669.40
 1124.94        2970.00           1489       21914.00     95775.66
 1124.97        2970.25           1492       20357.00     88950.65
 1125.00        2970.50           1496       18078.00     78965.84
 1125.03        2970.75           1499       16338.00     71346.53
 1125.06        2971.00           1502       15009.00     65529.31
 1125.10        2971.25           1506       12759.00     55685.37
 1125.13        2971.50           1509       11015.00     48059.22
 1125.16        2971.75           1513        8806.00     38404.73
 1125.19        2972.00           1516        7133.00     31096.56
 1125.22        2972.25           1519        5648.00     24612.33
 1125.25        2972.50           1523        3522.00     15333.56
 1125.28        2972.75           1526        2071.00      9003.74
 1125.31        2973.00           1529         984.00      4263.41
 1125.34        2973.25           1533         413.00      1773.85
 1125.38        2973.50           1536         323.00      1381.49
 1125.41        2973.75           1539         276.00      1176.59
 1125.44        2974.00           1543         227.00       962.97
 1125.47        2974.25           1546         170.00       714.49
 1125.50        2974.50           1549         122.00       505.24
 1125.53        2974.75           1553          78.00       313.43
 1125.56        2975.00           1556          54.00       208.81
 1125.59        2975.25           1559          57.00       221.88
 1125.62        2975.50           1563          43.00       160.86
 1125.65        2975.75           1566          47.00       178.29
 1125.68        2976.00           1569          50.00       191.37
 1125.71        2976.25           1573          51.00       195.73
 1125.74        2976.50           1576          51.00       195.73
 1125.77        2976.75           1579          46.00       173.93
 1125.81        2977.00           1583          47.00       178.29
 1125.84        2977.25           1586          45.00       169.57
 1125.87        2977.50           1590          49.00       187.01
 1125.90        2977.75           1593          41.00       152.14
 1125.93        2978.00           1596          42.00       156.50
 1125.96        2978.25           1600          54.00       208.81
 1125.99        2978.50           1603          42.00       156.50
 1126.02        2978.75           1606          44.00       165.21
 1126.05        2979.00           1610          48.00       182.65
 1126.08        2979.25           1613          56.00       217.53
 1126.11        2979.50           1616          45.00       169.57
 1126.15        2979.75           1620          42.00       156.50
 1126.18        2980.00           1623          40.00       147.78
 1126.21        2980.25           1626          39.00       143.42
 1126.24        2980.50           1630          44.00       165.21
 1126.27        2980.75           1633          46.00       173.93
 1126.30        2981.00           1637          43.00       160.86
 1126.33        2981.25           1640          39.00       143.42
 1126.36        2981.50           1643          43.00       160.86
 1126.39        2981.75           1647          43.00       160.86
 1126.42        2982.00           1650          45.00       169.57
 1126.45        2982.25           1653          43.00       160.86
 1126.48        2982.50           1657          48.00       182.65
 1126.51        2982.75           1660          45.00       169.57
 1126.55        2983.00           1663          50.00       191.37
 1126.58        2983.25           1667          40.00       147.78
 1126.61        2983.50           1670          48.00       182.65
 1126.64        2983.75           1673          48.00       182.65
 1126.67        2984.00           1677          45.00       169.57
HS scan finished at 18:46:53
end
