************************************************************
  HS Scan of (1) Internal mercury lamp
************************************************************
Integration time is 0.2294 seconds per sample
dh220217Manchester 53.47 2.23 2.804185pr1000
************************************************************
Dead Time -------------------------  3E-08 
Number of Cycles Used -------------  4 
Starting Wavelength (Angstroms) ---  2950 
Final Wavelength (Angstoms) -------  2984 
Wavelength Increment (Angstroms) --  .25 
Filter Wheel #1 Position ---------- (1) Ground quartz diffuser (ND=2.32)
Filter Wheel #2 Position ---------- (1) Neutral Density 0.494



************************************************************
HS scan start time = 04:24:56
Dark Count =  7.7 


Time (GMT)  Wavelength (Ang)  Step Number  Raw Counts  Counts/Second

  265.31        2950.00           1222          43.00       153.88
  265.37        2950.25           1226          48.00       175.68
  265.40        2950.50           1229          51.00       188.75
  265.43        2950.75           1232          49.00       180.04
  265.46        2951.00           1236          44.00       158.24
  265.50        2951.25           1239          49.00       180.04
  265.53        2951.50           1242          49.00       180.04
  265.56        2951.75           1246          42.00       149.52
  265.59        2952.00           1249          39.00       136.44
  265.62        2952.25           1252          50.00       184.40
  265.65        2952.50           1256          44.00       158.24
  265.68        2952.75           1259          59.00       223.63
  265.71        2953.00           1262          45.00       162.60
  265.74        2953.25           1266          46.00       166.96
  265.77        2953.50           1269          49.00       180.04
  265.80        2953.75           1272          42.00       149.52
  265.83        2954.00           1276          43.00       153.88
  265.86        2954.25           1279          49.00       180.04
  265.89        2954.50           1282          43.00       153.88
  265.93        2954.75           1286          49.00       180.04
  265.96        2955.00           1289          45.00       162.60
  265.99        2955.25           1292          46.00       166.96
  266.02        2955.50           1296          47.00       171.32
  266.05        2955.75           1299          49.00       180.04
  266.08        2956.00           1302          45.00       162.60
  266.11        2956.25           1306          41.00       145.16
  266.14        2956.50           1309          47.00       171.32
  266.17        2956.75           1312          38.00       132.08
  266.21        2957.00           1316          49.00       180.04
  266.24        2957.25           1319          51.00       188.75
  266.27        2957.50           1322          47.00       171.32
  266.30        2957.75           1326          50.00       184.40
  266.33        2958.00           1329          43.00       153.88
  266.36        2958.25           1332          48.00       175.68
  266.39        2958.50           1336          46.00       166.96
  266.42        2958.75           1339          45.00       162.60
  266.45        2959.00           1342          48.00       175.68
  266.48        2959.25           1346          50.00       184.40
  266.51        2959.50           1349          52.00       193.11
  266.54        2959.75           1352          62.00       236.71
  266.57        2960.00           1356          81.00       319.53
  266.61        2960.25           1359         108.00       437.23
  266.64        2960.50           1362         151.00       624.68
  266.67        2960.75           1366         211.00       886.25
  266.70        2961.00           1369         242.00      1021.39
  266.73        2961.25           1372         302.00      1282.96
  266.76        2961.50           1376         401.00      1714.56
  266.79        2961.75           1379         670.00      2887.35
  266.82        2962.00           1382        1402.00      6079.14
  266.85        2962.25           1386        3292.00     14323.07
  266.88        2962.50           1389        5013.00     21833.39
  266.92        2962.75           1392        6497.00     28312.18
  266.95        2963.00           1396        8682.00     37855.96
  266.98        2963.25           1399       10242.00     44673.17
  267.01        2963.50           1402       11823.00     51585.00
  267.04        2963.75           1406       14152.00     61772.17
  267.07        2964.00           1409       15711.00     68594.81
  267.10        2964.25           1412       17369.00     75853.77
  267.13        2964.50           1416       19787.00     86445.78
  267.16        2964.75           1419       21650.00     94611.24
  267.20        2965.00           1422       23154.00    101206.10
  267.23        2965.25           1426       25469.00    111362.30
  267.26        2965.50           1429       26858.00    117459.00
  267.29        2965.75           1432       28610.00    125152.10
  267.32        2966.00           1436       30852.00    135002.10
  267.35        2966.25           1439       32421.00    141898.80
  267.38        2966.50           1442       34041.00    149022.60
  267.41        2966.75           1446       35320.00    154649.10
  267.44        2967.00           1449       35854.00    156998.90
  267.48        2967.25           1452       35995.00    157619.30
  267.51        2967.50           1456       36179.00    158429.10
  267.54        2967.75           1459       35942.00    157386.10
  267.57        2968.00           1462       35557.00    155691.90
  267.60        2968.25           1466       34561.00    151310.00
  267.63        2968.50           1469       33155.00    145126.10
  267.66        2968.75           1472       31682.00    138650.10
  267.69        2969.00           1476       29704.00    129957.70
  267.72        2969.25           1479       27949.00    122249.20
  267.75        2969.50           1482       26298.00    115000.70
  267.79        2969.75           1486       24094.00    105329.30
  267.82        2970.00           1489       22489.00     98289.84
  267.85        2970.25           1492       20711.00     90495.14
  267.88        2970.50           1496       18536.00     80964.96
  267.91        2970.75           1499       16890.00     73756.31
  267.94        2971.00           1502       15464.00     67513.68
  267.97        2971.25           1506       13081.00     57086.79
  268.00        2971.50           1509       11113.00     48480.66
  268.03        2971.75           1513        9052.00     39472.61
  268.07        2972.00           1516        7498.00     32683.73
  268.10        2972.25           1519        5830.00     25399.91
  268.13        2972.50           1523        3762.00     16373.78
  268.16        2972.75           1526        2349.00     10209.32
  268.19        2973.00           1529        1135.00      4914.85
  268.22        2973.25           1533         495.00      2124.37
  268.25        2973.50           1536         348.00      1483.50
  268.28        2973.75           1539         303.00      1287.32
  268.31        2974.00           1543         270.00      1143.46
  268.34        2974.25           1546         207.00       868.81
  268.38        2974.50           1549         147.00       607.25
  268.41        2974.75           1553         105.00       424.16
  268.44        2975.00           1556          69.00       267.22
  268.47        2975.25           1559          54.00       201.83
  268.50        2975.50           1563          52.00       193.11
  268.53        2975.75           1566          57.00       214.91
  268.56        2976.00           1569          44.00       158.24
  268.59        2976.25           1573          51.00       188.75
  268.62        2976.50           1576          43.00       153.88
  268.65        2976.75           1579          45.00       162.60
  268.69        2977.00           1583          49.00       180.04
  268.72        2977.25           1586          51.00       188.75
  268.75        2977.50           1590          48.00       175.68
  268.78        2977.75           1593          42.00       149.52
  268.81        2978.00           1596          42.00       149.52
  268.84        2978.25           1600          48.00       175.68
  268.87        2978.50           1603          40.00       140.80
  268.90        2978.75           1606          40.00       140.80
  268.93        2979.00           1610          42.00       149.52
  268.96        2979.25           1613          46.00       166.96
  269.00        2979.50           1616          43.00       153.88
  269.03        2979.75           1620          45.00       162.60
  269.06        2980.00           1623          42.00       149.52
  269.09        2980.25           1626          47.00       171.32
  269.12        2980.50           1630          50.00       184.40
  269.15        2980.75           1633          44.00       158.24
  269.18        2981.00           1637          47.00       171.32
  269.21        2981.25           1640          51.00       188.75
  269.24        2981.50           1643          44.00       158.24
  269.27        2981.75           1647          45.00       162.60
  269.30        2982.00           1650          43.00       153.88
  269.33        2982.25           1653          47.00       171.32
  269.36        2982.50           1657          44.00       158.24
  269.39        2982.75           1660          53.00       197.47
  269.42        2983.00           1663          42.00       149.52
  269.46        2983.25           1667          45.00       162.60
  269.49        2983.50           1670          58.00       219.27
  269.52        2983.75           1673          37.00       127.72
  269.55        2984.00           1677          44.00       158.24
HS scan finished at 04:29:46
end
************************************************************
  HS Scan of (1) Internal mercury lamp
************************************************************
Integration time is 0.2294 seconds per sample
dh220217Manchester 53.47 2.23 2.804185pr1000
************************************************************
Dead Time -------------------------  3E-08 
Number of Cycles Used -------------  4 
Starting Wavelength (Angstroms) ---  2950 
Final Wavelength (Angstoms) -------  2984 
Wavelength Increment (Angstroms) --  .25 
Filter Wheel #1 Position ---------- (1) Ground quartz diffuser (ND=2.32)
Filter Wheel #2 Position ---------- (1) Neutral Density 0.494



************************************************************
HS scan start time = 18:42:01
Dark Count =  7.1 


Time (GMT)  Wavelength (Ang)  Step Number  Raw Counts  Counts/Second

 1122.38        2950.00           1222          47.00       173.93
 1122.45        2950.25           1226          46.00       169.57
 1122.48        2950.50           1229          42.00       152.14
 1122.51        2950.75           1232          55.00       208.81
 1122.54        2951.00           1236          43.00       156.50
 1122.57        2951.25           1239          50.00       187.01
 1122.61        2951.50           1242          43.00       156.50
 1122.64        2951.75           1246          42.00       152.14
 1122.67        2952.00           1249          43.00       156.50
 1122.70        2952.25           1252          43.00       156.50
 1122.73        2952.50           1256          47.00       173.93
 1122.76        2952.75           1259          42.00       152.14
 1122.79        2953.00           1262          38.00       134.70
 1122.82        2953.25           1266          42.00       152.14
 1122.85        2953.50           1269          48.00       178.29
 1122.88        2953.75           1272          36.00       125.98
 1122.91        2954.00           1276          50.00       187.01
 1122.94        2954.25           1279          43.00       156.50
 1122.97        2954.50           1282          49.00       182.65
 1123.00        2954.75           1286          48.00       178.29
 1123.03        2955.00           1289          46.00       169.57
 1123.07        2955.25           1292          52.00       195.73
 1123.10        2955.50           1296          41.00       147.78
 1123.13        2955.75           1299          46.00       169.57
 1123.16        2956.00           1302          52.00       195.73
 1123.19        2956.25           1306          47.00       173.93
 1123.22        2956.50           1309          43.00       156.50
 1123.25        2956.75           1312          43.00       156.50
 1123.28        2957.00           1316          41.00       147.78
 1123.31        2957.25           1319          46.00       169.57
 1123.34        2957.50           1322          48.00       178.29
 1123.37        2957.75           1326          47.00       173.93
 1123.40        2958.00           1329          51.00       191.37
 1123.43        2958.25           1332          49.00       182.65
 1123.47        2958.50           1336          50.00       187.01
 1123.50        2958.75           1339          44.00       160.86
 1123.53        2959.00           1342          58.00       221.88
 1123.56        2959.25           1346          45.00       165.21
 1123.59        2959.50           1349          51.00       191.37
 1123.62        2959.75           1352          60.00       230.60
 1123.65        2960.00           1356          84.00       335.23
 1123.68        2960.25           1359         116.00       474.72
 1123.71        2960.50           1362         154.00       640.38
 1123.74        2960.75           1366         211.00       888.86
 1123.78        2961.00           1369         260.00      1102.48
 1123.81        2961.25           1372         302.00      1285.58
 1123.84        2961.50           1376         413.00      1769.49
 1123.87        2961.75           1379         762.00      3291.08
 1123.90        2962.00           1382        1493.00      6478.59
 1123.93        2962.25           1386        3447.00     15001.96
 1123.96        2962.50           1389        4885.00     21277.31
 1123.99        2962.75           1392        6471.00     28201.27
 1124.02        2963.00           1396        8815.00     38439.68
 1124.05        2963.25           1399       10647.00     46446.11
 1124.08        2963.50           1402       12218.00     53314.94
 1124.12        2963.75           1406       14383.00     62785.55
 1124.15        2964.00           1409       16215.00     70803.68
 1124.18        2964.25           1412       17970.00     78488.44
 1124.21        2964.50           1416       20200.00     88258.22
 1124.24        2964.75           1419       21831.00     95407.38
 1124.27        2965.00           1422       23307.00    101879.80
 1124.30        2965.25           1426       25582.00    111860.80
 1124.33        2965.50           1429       27256.00    119208.90
 1124.36        2965.75           1432       28831.00    126125.40
 1124.40        2966.00           1436       31239.00    136705.50
 1124.43        2966.25           1439       32736.00    143286.40
 1124.46        2966.50           1442       34303.00    150177.70
 1124.49        2966.75           1446       35403.00    155017.00
 1124.52        2967.00           1449       35550.00    155663.80
 1124.55        2967.25           1452       35728.00    156447.00
 1124.58        2967.50           1456       35600.00    155883.80
 1124.61        2967.75           1459       35575.00    155773.80
 1124.64        2968.00           1462       35245.00    154321.80
 1124.68        2968.25           1466       33783.00    147890.50
 1124.71        2968.50           1469       32183.00    140855.10
 1124.74        2968.75           1472       30707.00    134367.50
 1124.77        2969.00           1476       28450.00    124452.00
 1124.80        2969.25           1479       26968.00    117944.50
 1124.83        2969.50           1482       25324.00    110728.60
 1124.86        2969.75           1486       23006.00    100559.70
 1124.89        2970.00           1489       21279.00     92987.47
 1124.92        2970.25           1492       19789.00     86457.18
 1124.96        2970.50           1496       17793.00     77713.24
 1124.99        2970.75           1499       16131.00     70435.96
 1125.02        2971.00           1502       14435.00     63013.08
 1125.05        2971.25           1506       12185.00     53170.63
 1125.08        2971.50           1509       10522.00     45899.69
 1125.11        2971.75           1513        8191.00     35713.49
 1125.14        2972.00           1516        6539.00     28498.20
 1125.17        2972.25           1519        4901.00     21347.15
 1125.20        2972.50           1523        2907.00     12646.04
 1125.23        2972.75           1526        1559.00      6766.41
 1125.26        2973.00           1529         731.00      3155.92
 1125.30        2973.25           1533         421.00      1804.37
 1125.33        2973.50           1536         336.00      1433.80
 1125.36        2973.75           1539         272.00      1154.79
 1125.39        2974.00           1543         254.00      1076.32
 1125.42        2974.25           1546         181.00       758.08
 1125.45        2974.50           1549         129.00       531.39
 1125.48        2974.75           1553          81.00       322.15
 1125.51        2975.00           1556          64.00       248.04
 1125.54        2975.25           1559          59.00       226.24
 1125.57        2975.50           1563          46.00       169.57
 1125.61        2975.75           1566          45.00       165.21
 1125.64        2976.00           1569          49.00       182.65
 1125.67        2976.25           1573          47.00       173.93
 1125.70        2976.50           1576          52.00       195.73
 1125.73        2976.75           1579          49.00       182.65
 1125.76        2977.00           1583          48.00       178.29
 1125.79        2977.25           1586          46.00       169.57
 1125.82        2977.50           1590          46.00       169.57
 1125.85        2977.75           1593          40.00       143.42
 1125.88        2978.00           1596          38.00       134.70
 1125.91        2978.25           1600          44.00       160.86
 1125.94        2978.50           1603          41.00       147.78
 1125.97        2978.75           1606          39.00       139.06
 1126.01        2979.00           1610          45.00       165.21
 1126.04        2979.25           1613          51.00       191.37
 1126.07        2979.50           1616          46.00       169.57
 1126.10        2979.75           1620          50.00       187.01
 1126.13        2980.00           1623          39.00       139.06
 1126.16        2980.25           1626          49.00       182.65
 1126.19        2980.50           1630          48.00       178.29
 1126.22        2980.75           1633          55.00       208.81
 1126.25        2981.00           1637          48.00       178.29
 1126.28        2981.25           1640          41.00       147.78
 1126.31        2981.50           1643          45.00       165.21
 1126.34        2981.75           1647          44.00       160.86
 1126.37        2982.00           1650          44.00       160.86
 1126.41        2982.25           1653          43.00       156.50
 1126.44        2982.50           1657          45.00       165.21
 1126.47        2982.75           1660          48.00       178.29
 1126.50        2983.00           1663          43.00       156.50
 1126.53        2983.25           1667          43.00       156.50
 1126.56        2983.50           1670          40.00       143.42
 1126.59        2983.75           1673          36.00       125.98
 1126.62        2984.00           1677          44.00       160.86
HS scan finished at 18:46:50
end
