************************************************************
  HS Scan of (1) Internal mercury lamp
************************************************************
Integration time is 0.2294 seconds per sample
dh220219Manchester 53.47 2.23 2.804185pr1000
************************************************************
Dead Time -------------------------  3E-08 
Number of Cycles Used -------------  4 
Starting Wavelength (Angstroms) ---  2950 
Final Wavelength (Angstoms) -------  2984 
Wavelength Increment (Angstroms) --  .25 
Filter Wheel #1 Position ---------- (1) Ground quartz diffuser (ND=2.32)
Filter Wheel #2 Position ---------- (1) Neutral Density 0.494



************************************************************
HS scan start time = 04:26:14
Dark Count =  7.5 


Time (GMT)  Wavelength (Ang)  Step Number  Raw Counts  Counts/Second

  266.60        2950.00           1222          57.00       215.78
  266.67        2950.25           1226          51.00       189.63
  266.70        2950.50           1229          55.00       207.06
  266.73        2950.75           1232          53.00       198.34
  266.76        2951.00           1236          55.00       207.06
  266.79        2951.25           1239          52.00       193.99
  266.83        2951.50           1242          59.00       224.50
  266.86        2951.75           1246          48.00       176.55
  266.89        2952.00           1249          50.00       185.27
  266.92        2952.25           1252          54.00       202.70
  266.95        2952.50           1256          53.00       198.34
  266.98        2952.75           1259          59.00       224.50
  267.01        2953.00           1262          57.00       215.78
  267.04        2953.25           1266          52.00       193.99
  267.07        2953.50           1269          57.00       215.78
  267.10        2953.75           1272          57.00       215.78
  267.13        2954.00           1276          51.00       189.63
  267.17        2954.25           1279          57.00       215.78
  267.20        2954.50           1282          50.00       185.27
  267.23        2954.75           1286          52.00       193.99
  267.26        2955.00           1289          55.00       207.06
  267.29        2955.25           1292          54.00       202.70
  267.32        2955.50           1296          60.00       228.86
  267.35        2955.75           1299          55.00       207.06
  267.38        2956.00           1302          52.00       193.99
  267.41        2956.25           1306          52.00       193.99
  267.44        2956.50           1309          54.00       202.70
  267.47        2956.75           1312          59.00       224.50
  267.50        2957.00           1316          57.00       215.78
  267.53        2957.25           1319          57.00       215.78
  267.56        2957.50           1322          50.00       185.27
  267.60        2957.75           1326          55.00       207.06
  267.63        2958.00           1329          56.00       211.42
  267.66        2958.25           1332          58.00       220.14
  267.69        2958.50           1336          53.00       198.34
  267.72        2958.75           1339          55.00       207.06
  267.75        2959.00           1342          60.00       228.86
  267.78        2959.25           1346          57.00       215.78
  267.81        2959.50           1349          62.00       237.58
  267.84        2959.75           1352          68.00       263.73
  267.87        2960.00           1356          84.00       333.48
  267.90        2960.25           1359         106.00       429.39
  267.93        2960.50           1362         143.00       590.68
  267.97        2960.75           1366         188.00       786.85
  268.00        2961.00           1369         205.00       860.96
  268.03        2961.25           1372         269.00      1139.97
  268.06        2961.50           1376         331.00      1410.26
  268.09        2961.75           1379         549.00      2360.67
  268.12        2962.00           1382        1301.00      5639.58
  268.15        2962.25           1386        2795.00     12155.70
  268.18        2962.50           1389        3946.00     17177.55
  268.21        2962.75           1392        5120.00     22301.32
  268.24        2963.00           1396        6696.00     29182.03
  268.28        2963.25           1399        7773.00     33885.78
  268.31        2963.50           1402        9079.00     39591.46
  268.34        2963.75           1406       10585.00     46173.33
  268.37        2964.00           1409       11887.00     51865.74
  268.40        2964.25           1412       13214.00     57669.44
  268.43        2964.50           1416       14673.00     64052.79
  268.46        2964.75           1419       15889.00     69374.84
  268.49        2965.00           1422       17303.00     75565.62
  268.52        2965.25           1426       18932.00     82700.56
  268.55        2965.50           1429       20005.00     87401.93
  268.58        2965.75           1432       21144.00     92393.93
  268.62        2966.00           1436       22909.00    100132.50
  268.65        2966.25           1439       23862.00    104312.40
  268.68        2966.50           1442       24973.00    109186.60
  268.71        2966.75           1446       26047.00    113899.90
  268.74        2967.00           1449       25973.00    113575.10
  268.77        2967.25           1452       26074.00    114018.40
  268.80        2967.50           1456       26065.00    113978.90
  268.83        2967.75           1459       25807.00    112846.50
  268.86        2968.00           1462       25694.00    112350.60
  268.89        2968.25           1466       24581.00    107466.70
  268.92        2968.50           1469       23648.00    103373.70
  268.96        2968.75           1472       22355.00     97703.14
  268.99        2969.00           1476       20930.00     91455.90
  269.02        2969.25           1479       19721.00     86157.46
  269.05        2969.50           1482       18667.00     81539.68
  269.08        2969.75           1486       17106.00     74702.99
  269.11        2970.00           1489       15872.00     69300.43
  269.14        2970.25           1492       14710.00     64214.70
  269.17        2970.50           1496       13147.00     57376.37
  269.20        2970.75           1499       11855.00     51725.80
  269.23        2971.00           1502       10606.00     46265.13
  269.26        2971.25           1506        9015.00     39311.81
  269.30        2971.50           1509        7795.00     33981.88
  269.33        2971.75           1513        6164.00     26859.04
  269.36        2972.00           1516        4967.00     21633.48
  269.39        2972.25           1519        3865.00     16824.09
  269.42        2972.50           1523        2296.00      9979.01
  269.45        2972.75           1526        1274.00      5521.84
  269.48        2973.00           1529         577.00      2482.75
  269.51        2973.25           1533         319.00      1357.95
  269.54        2973.50           1536         270.00      1144.33
  269.57        2973.75           1539         223.00       939.43
  269.61        2974.00           1543         185.00       773.78
  269.64        2974.25           1546         137.00       564.53
  269.67        2974.50           1549         121.00       494.78
  269.70        2974.75           1553          87.00       346.56
  269.73        2975.00           1556          65.00       250.66
  269.76        2975.25           1559          54.00       202.70
  269.79        2975.50           1563          55.00       207.06
  269.82        2975.75           1566          52.00       193.99
  269.85        2976.00           1569          46.00       167.83
  269.88        2976.25           1573          51.00       189.63
  269.91        2976.50           1576          57.00       215.78
  269.94        2976.75           1579          53.00       198.34
  269.98        2977.00           1583          52.00       193.99
  270.01        2977.25           1586          42.00       150.39
  270.04        2977.50           1590          53.00       198.34
  270.07        2977.75           1593          51.00       189.63
  270.10        2978.00           1596          53.00       198.34
  270.13        2978.25           1600          46.00       167.83
  270.16        2978.50           1603          42.00       150.39
  270.19        2978.75           1606          49.00       180.91
  270.22        2979.00           1610          51.00       189.63
  270.25        2979.25           1613          57.00       215.78
  270.28        2979.50           1616          49.00       180.91
  270.31        2979.75           1620          47.00       172.19
  270.35        2980.00           1623          53.00       198.34
  270.38        2980.25           1626          46.00       167.83
  270.41        2980.50           1630          53.00       198.34
  270.44        2980.75           1633          43.00       154.75
  270.47        2981.00           1637          50.00       185.27
  270.50        2981.25           1640          47.00       172.19
  270.53        2981.50           1643          52.00       193.99
  270.56        2981.75           1647          45.00       163.47
  270.59        2982.00           1650          50.00       185.27
  270.62        2982.25           1653          43.00       154.75
  270.66        2982.50           1657          43.00       154.75
  270.69        2982.75           1660          44.00       159.11
  270.72        2983.00           1663          49.00       180.91
  270.75        2983.25           1667          49.00       180.91
  270.78        2983.50           1670          54.00       202.70
  270.81        2983.75           1673          67.00       259.37
  270.84        2984.00           1677          48.00       176.55
HS scan finished at 04:31:03
end
************************************************************
  HS Scan of (1) Internal mercury lamp
************************************************************
Integration time is 0.2294 seconds per sample
dh220219Manchester 53.47 2.23 2.804185pr1000
************************************************************
Dead Time -------------------------  3E-08 
Number of Cycles Used -------------  4 
Starting Wavelength (Angstroms) ---  2950 
Final Wavelength (Angstoms) -------  2984 
Wavelength Increment (Angstroms) --  .25 
Filter Wheel #1 Position ---------- (1) Ground quartz diffuser (ND=2.32)
Filter Wheel #2 Position ---------- (1) Neutral Density 0.494



************************************************************
HS scan start time = 18:42:05
Dark Count =  4.4 


Time (GMT)  Wavelength (Ang)  Step Number  Raw Counts  Counts/Second

 1122.45        2950.00           1222          62.00       251.09
 1122.52        2950.25           1226          49.00       194.42
 1122.55        2950.50           1229          60.00       242.37
 1122.58        2950.75           1232          55.00       220.58
 1122.61        2951.00           1236          57.00       229.30
 1122.64        2951.25           1239          64.00       259.81
 1122.67        2951.50           1242          63.00       255.45
 1122.70        2951.75           1246          50.00       198.78
 1122.73        2952.00           1249          56.00       224.94
 1122.76        2952.25           1252          56.00       224.94
 1122.79        2952.50           1256          54.00       216.22
 1122.83        2952.75           1259          59.00       238.01
 1122.86        2953.00           1262          52.00       207.50
 1122.89        2953.25           1266          56.00       224.94
 1122.92        2953.50           1269          53.00       211.86
 1122.95        2953.75           1272          50.00       198.78
 1122.98        2954.00           1276          47.00       185.70
 1123.01        2954.25           1279          57.00       229.30
 1123.04        2954.50           1282          49.00       194.42
 1123.07        2954.75           1286          51.00       203.14
 1123.10        2955.00           1289          47.00       185.70
 1123.13        2955.25           1292          55.00       220.58
 1123.16        2955.50           1296          60.00       242.37
 1123.19        2955.75           1299          48.00       190.06
 1123.23        2956.00           1302          52.00       207.50
 1123.26        2956.25           1306          60.00       242.37
 1123.29        2956.50           1309          48.00       190.06
 1123.32        2956.75           1312          53.00       211.86
 1123.35        2957.00           1316          55.00       220.58
 1123.38        2957.25           1319          48.00       190.06
 1123.41        2957.50           1322          58.00       233.65
 1123.44        2957.75           1326          52.00       207.50
 1123.47        2958.00           1329          53.00       211.86
 1123.50        2958.25           1332          53.00       211.86
 1123.53        2958.50           1336          48.00       190.06
 1123.56        2958.75           1339          54.00       216.22
 1123.59        2959.00           1342          53.00       211.86
 1123.62        2959.25           1346          52.00       207.50
 1123.66        2959.50           1349          56.00       224.94
 1123.69        2959.75           1352          60.00       242.37
 1123.72        2960.00           1356          75.00       307.76
 1123.75        2960.25           1359         107.00       447.26
 1123.78        2960.50           1362         139.00       586.76
 1123.81        2960.75           1366         158.00       669.59
 1123.84        2961.00           1369         194.00       826.52
 1123.87        2961.25           1372         231.00       987.82
 1123.90        2961.50           1376         297.00      1275.55
 1123.93        2961.75           1379         388.00      1672.27
 1123.96        2962.00           1382         820.00      3555.74
 1123.99        2962.25           1386        1993.00      8670.96
 1124.03        2962.50           1389        2997.00     13050.44
 1124.06        2962.75           1392        4150.00     18081.30
 1124.09        2963.00           1396        5691.00     24807.47
 1124.12        2963.25           1399        6789.00     29601.69
 1124.15        2963.50           1402        7970.00     34759.86
 1124.18        2963.75           1406        9645.00     42078.37
 1124.21        2964.00           1409       10943.00     47751.89
 1124.24        2964.25           1412       12160.00     53073.10
 1124.27        2964.50           1416       13778.00     60150.30
 1124.30        2964.75           1419       14857.00     64871.55
 1124.33        2965.00           1422       16206.00     70776.10
 1124.37        2965.25           1426       17708.00     77352.80
 1124.40        2965.50           1429       18895.00     82552.06
 1124.43        2965.75           1432       19959.00     87213.94
 1124.46        2966.00           1436       21506.00     93994.41
 1124.49        2966.25           1439       22588.00     98738.42
 1124.52        2966.50           1442       23767.00    103909.30
 1124.55        2966.75           1446       25050.00    109538.10
 1124.58        2967.00           1449       25574.00    111837.60
 1124.61        2967.25           1452       25698.00    112381.80
 1124.64        2967.50           1456       25652.00    112179.90
 1124.68        2967.75           1459       25559.00    111771.70
 1124.71        2968.00           1462       25596.00    111934.10
 1124.74        2968.25           1466       25085.00    109691.70
 1124.77        2968.50           1469       24117.00    105444.60
 1124.80        2968.75           1472       23096.00    100966.20
 1124.83        2969.00           1476       21683.00     94770.37
 1124.86        2969.25           1479       20319.00     88791.56
 1124.89        2969.50           1482       19302.00     84335.16
 1124.92        2969.75           1486       17811.00     77803.88
 1124.96        2970.00           1489       16514.00     72124.50
 1124.99        2970.25           1492       15388.00     67195.48
 1125.02        2970.50           1496       13756.00     60054.05
 1125.05        2970.75           1499       12465.00     54406.96
 1125.08        2971.00           1502       11313.00     49369.49
 1125.11        2971.25           1506        9743.00     42506.66
 1125.14        2971.50           1509        8576.00     37407.26
 1125.17        2971.75           1513        7112.00     31012.27
 1125.20        2972.00           1516        5837.00     25444.88
 1125.24        2972.25           1519        4696.00     20464.17
 1125.27        2972.50           1523        3210.00     13979.71
 1125.30        2972.75           1526        2094.00      9111.47
 1125.33        2973.00           1529        1010.00      4384.19
 1125.36        2973.25           1533         377.00      1624.32
 1125.39        2973.50           1536         278.00      1192.72
 1125.42        2973.75           1539         227.00       970.39
 1125.45        2974.00           1543         201.00       857.04
 1125.48        2974.25           1546         143.00       604.20
 1125.51        2974.50           1549         123.00       517.01
 1125.55        2974.75           1553          78.00       320.84
 1125.58        2975.00           1556          65.00       264.17
 1125.61        2975.25           1559          56.00       224.94
 1125.64        2975.50           1563          52.00       207.50
 1125.67        2975.75           1566          53.00       211.86
 1125.70        2976.00           1569          48.00       190.06
 1125.73        2976.25           1573          50.00       198.78
 1125.76        2976.50           1576          45.00       176.98
 1125.79        2976.75           1579          53.00       211.86
 1125.82        2977.00           1583          55.00       220.58
 1125.85        2977.25           1586          56.00       224.94
 1125.89        2977.50           1590          56.00       224.94
 1125.92        2977.75           1593          61.00       246.73
 1125.95        2978.00           1596          47.00       185.70
 1125.98        2978.25           1600          53.00       211.86
 1126.01        2978.50           1603          60.00       242.37
 1126.04        2978.75           1606          52.00       207.50
 1126.07        2979.00           1610          55.00       220.58
 1126.10        2979.25           1613          48.00       190.06
 1126.13        2979.50           1616          54.00       216.22
 1126.16        2979.75           1620          50.00       198.78
 1126.19        2980.00           1623          52.00       207.50
 1126.22        2980.25           1626          46.00       181.34
 1126.26        2980.50           1630          50.00       198.78
 1126.29        2980.75           1633          44.00       172.63
 1126.32        2981.00           1637          50.00       198.78
 1126.35        2981.25           1640          53.00       211.86
 1126.38        2981.50           1643          42.00       163.91
 1126.41        2981.75           1647          45.00       176.98
 1126.44        2982.00           1650          50.00       198.78
 1126.47        2982.25           1653          47.00       185.70
 1126.50        2982.50           1657          52.00       207.50
 1126.54        2982.75           1660          45.00       176.98
 1126.57        2983.00           1663          52.00       207.50
 1126.60        2983.25           1667          42.00       163.91
 1126.63        2983.50           1670          48.00       190.06
 1126.66        2983.75           1673          52.00       207.50
 1126.69        2984.00           1677          50.00       198.78
HS scan finished at 18:46:54
end
