************************************************************
  HS Scan of (1) Internal mercury lamp
************************************************************
Integration time is 0.2294 seconds per sample
dh270219Manchester 53.47 2.23 2.804185pr1000
************************************************************
Dead Time -------------------------  3E-08 
Number of Cycles Used -------------  4 
Starting Wavelength (Angstroms) ---  2950 
Final Wavelength (Angstoms) -------  2984 
Wavelength Increment (Angstroms) --  .25 
Filter Wheel #1 Position ---------- (1) Ground quartz diffuser (ND=2.32)
Filter Wheel #2 Position ---------- (1) Neutral Density 0.494



************************************************************
HS scan start time = 04:13:33
Dark Count =  7.3 


Time (GMT)  Wavelength (Ang)  Step Number  Raw Counts  Counts/Second

  253.93        2950.00           1222          58.00       221.01
  254.00        2950.25           1226          54.00       203.58
  254.03        2950.50           1229          46.00       168.70
  254.06        2950.75           1232          54.00       203.58
  254.09        2951.00           1236          52.00       194.86
  254.12        2951.25           1239          61.00       234.09
  254.15        2951.50           1242          57.00       216.65
  254.18        2951.75           1246          59.00       225.37
  254.21        2952.00           1249          54.00       203.58
  254.24        2952.25           1252          56.00       212.29
  254.27        2952.50           1256          53.00       199.22
  254.30        2952.75           1259          47.00       173.06
  254.33        2953.00           1262          54.00       203.58
  254.37        2953.25           1266          59.00       225.37
  254.40        2953.50           1269          52.00       194.86
  254.43        2953.75           1272          51.00       190.50
  254.46        2954.00           1276          56.00       212.29
  254.49        2954.25           1279          50.00       186.14
  254.52        2954.50           1282          56.00       212.29
  254.55        2954.75           1286          54.00       203.58
  254.58        2955.00           1289          57.00       216.65
  254.61        2955.25           1292          52.00       194.86
  254.64        2955.50           1296          53.00       199.22
  254.67        2955.75           1299          53.00       199.22
  254.71        2956.00           1302          59.00       225.37
  254.74        2956.25           1306          57.00       216.65
  254.77        2956.50           1309          48.00       177.42
  254.80        2956.75           1312          55.00       207.94
  254.83        2957.00           1316          57.00       216.65
  254.86        2957.25           1319          50.00       186.14
  254.89        2957.50           1322          57.00       216.65
  254.92        2957.75           1326          56.00       212.29
  254.95        2958.00           1329          58.00       221.01
  254.98        2958.25           1332          56.00       212.29
  255.01        2958.50           1336          58.00       221.01
  255.04        2958.75           1339          64.00       247.17
  255.07        2959.00           1342          56.00       212.29
  255.11        2959.25           1346          56.00       212.29
  255.14        2959.50           1349          59.00       225.37
  255.17        2959.75           1352          72.00       282.04
  255.20        2960.00           1356         104.00       421.54
  255.23        2960.25           1359         119.00       486.93
  255.26        2960.50           1362         131.00       539.24
  255.29        2960.75           1366         184.00       770.29
  255.32        2961.00           1369         215.00       905.43
  255.35        2961.25           1372         232.00       979.54
  255.38        2961.50           1376         301.00      1280.35
  255.42        2961.75           1379         487.00      2091.24
  255.45        2962.00           1382        1145.00      4960.20
  255.48        2962.25           1386        2503.00     10882.80
  255.51        2962.50           1389        3650.00     15886.82
  255.54        2962.75           1392        4825.00     21014.55
  255.57        2963.00           1396        6360.00     27715.71
  255.60        2963.25           1399        7510.00     32737.90
  255.63        2963.50           1402        8837.00     38534.93
  255.66        2963.75           1406       10317.00     45002.74
  255.69        2964.00           1409       11563.00     50449.89
  255.72        2964.25           1412       12510.00     54591.08
  255.76        2964.50           1416       14350.00     62640.28
  255.79        2964.75           1419       15403.00     67248.45
  255.82        2965.00           1422       16509.00     72089.91
  255.85        2965.25           1426       18275.00     79823.44
  255.88        2965.50           1429       19260.00     84138.44
  255.91        2965.75           1432       20604.00     90027.91
  255.94        2966.00           1436       22301.00     97467.22
  255.97        2966.25           1439       23317.00    101922.80
  256.00        2966.50           1442       24401.00    106677.80
  256.03        2966.75           1446       25582.00    111859.90
  256.07        2967.00           1449       25772.00    112693.80
  256.10        2967.25           1452       25873.00    113137.10
  256.13        2967.50           1456       25759.00    112636.70
  256.16        2967.75           1459       25868.00    113115.10
  256.19        2968.00           1462       25760.00    112641.10
  256.24        2968.25           1466       25022.00    109402.50
  256.27        2968.50           1469       24196.00    105778.50
  256.30        2968.75           1472       22966.00    100383.40
  256.33        2969.00           1476       21310.00     93122.49
  256.36        2969.25           1479       20189.00     88209.14
  256.40        2969.50           1482       18986.00     82938.01
  256.43        2969.75           1486       17310.00     75597.15
  256.46        2970.00           1489       16177.00     70636.45
  256.49        2970.25           1492       14931.00     65182.71
  256.52        2970.50           1496       13456.00     58728.93
  256.55        2970.75           1499       12322.00     53768.88
  256.58        2971.00           1502       11046.00     48189.50
  256.61        2971.25           1506        9553.00     41663.65
  256.64        2971.50           1509        8242.00     35935.41
  256.68        2971.75           1513        6767.00     29492.95
  256.71        2972.00           1516        5493.00     23930.43
  256.74        2972.25           1519        4275.00     18614.14
  256.77        2972.50           1523        2792.00     12143.48
  256.80        2972.75           1526        1552.00      6735.01
  256.83        2973.00           1529         739.00      3189.93
  256.86        2973.25           1533         346.00      1476.53
  256.89        2973.50           1536         278.00      1180.08
  256.92        2973.75           1539         236.00       996.98
  256.95        2974.00           1543         192.00       805.16
  256.99        2974.25           1546         143.00       591.55
  257.02        2974.50           1549         119.00       486.93
  257.05        2974.75           1553          84.00       334.35
  257.08        2975.00           1556          68.00       264.61
  257.11        2975.25           1559          70.00       273.32
  257.14        2975.50           1563          56.00       212.29
  257.17        2975.75           1566          56.00       212.29
  257.20        2976.00           1569          55.00       207.94
  257.23        2976.25           1573          51.00       190.50
  257.26        2976.50           1576          51.00       190.50
  257.29        2976.75           1579          51.00       190.50
  257.32        2977.00           1583          47.00       173.06
  257.35        2977.25           1586          49.00       181.78
  257.39        2977.50           1590          49.00       181.78
  257.42        2977.75           1593          51.00       190.50
  257.45        2978.00           1596          46.00       168.70
  257.48        2978.25           1600          56.00       212.29
  257.51        2978.50           1603          46.00       168.70
  257.54        2978.75           1606          50.00       186.14
  257.57        2979.00           1610          52.00       194.86
  257.60        2979.25           1613          54.00       203.58
  257.63        2979.50           1616          55.00       207.94
  257.66        2979.75           1620          54.00       203.58
  257.69        2980.00           1623          46.00       168.70
  257.72        2980.25           1626          53.00       199.22
  257.76        2980.50           1630          51.00       190.50
  257.79        2980.75           1633          49.00       181.78
  257.82        2981.00           1637          48.00       177.42
  257.85        2981.25           1640          49.00       181.78
  257.88        2981.50           1643          48.00       177.42
  257.91        2981.75           1647          58.00       221.01
  257.94        2982.00           1650          49.00       181.78
  257.97        2982.25           1653          42.00       151.26
  258.00        2982.50           1657          51.00       190.50
  258.03        2982.75           1660          57.00       216.65
  258.06        2983.00           1663          46.00       168.70
  258.09        2983.25           1667          50.00       186.14
  258.12        2983.50           1670          48.00       177.42
  258.16        2983.75           1673          53.00       199.22
  258.19        2984.00           1677          48.00       177.42
HS scan finished at 04:18:24
end
************************************************************
  HS Scan of (1) Internal mercury lamp
************************************************************
Integration time is 0.2294 seconds per sample
dh270219Manchester 53.47 2.23 2.804185pr1000
************************************************************
Dead Time -------------------------  3E-08 
Number of Cycles Used -------------  4 
Starting Wavelength (Angstroms) ---  2950 
Final Wavelength (Angstoms) -------  2984 
Wavelength Increment (Angstroms) --  .25 
Filter Wheel #1 Position ---------- (1) Ground quartz diffuser (ND=2.32)
Filter Wheel #2 Position ---------- (1) Neutral Density 0.494



************************************************************
HS scan start time = 18:42:07
Dark Count =  3.3 


Time (GMT)  Wavelength (Ang)  Step Number  Raw Counts  Counts/Second

 1122.48        2950.00           1222          54.00       221.01
 1122.55        2950.25           1226          60.00       247.17
 1122.58        2950.50           1229          55.00       225.37
 1122.61        2950.75           1232          55.00       225.37
 1122.64        2951.00           1236          61.00       251.53
 1122.67        2951.25           1239          60.00       247.17
 1122.70        2951.50           1242          58.00       238.45
 1122.74        2951.75           1246          51.00       207.94
 1122.77        2952.00           1249          58.00       238.45
 1122.80        2952.25           1252          54.00       221.01
 1122.83        2952.50           1256          50.00       203.58
 1122.86        2952.75           1259          57.00       234.09
 1122.89        2953.00           1262          49.00       199.22
 1122.92        2953.25           1266          60.00       247.17
 1122.95        2953.50           1269          62.00       255.89
 1122.98        2953.75           1272          59.00       242.81
 1123.01        2954.00           1276          57.00       234.09
 1123.04        2954.25           1279          59.00       242.81
 1123.08        2954.50           1282          54.00       221.01
 1123.11        2954.75           1286          55.00       225.37
 1123.14        2955.00           1289          56.00       229.73
 1123.17        2955.25           1292          58.00       238.45
 1123.20        2955.50           1296          62.00       255.89
 1123.23        2955.75           1299          67.00       277.68
 1123.26        2956.00           1302          61.00       251.53
 1123.29        2956.25           1306          54.00       221.01
 1123.32        2956.50           1309          59.00       242.81
 1123.35        2956.75           1312          45.00       181.78
 1123.38        2957.00           1316          54.00       221.01
 1123.41        2957.25           1319          51.00       207.94
 1123.45        2957.50           1322          55.00       225.37
 1123.48        2957.75           1326          53.00       216.65
 1123.51        2958.00           1329          58.00       238.45
 1123.54        2958.25           1332          58.00       238.45
 1123.57        2958.50           1336          58.00       238.45
 1123.60        2958.75           1339          55.00       225.37
 1123.63        2959.00           1342          50.00       203.58
 1123.66        2959.25           1346          55.00       225.37
 1123.69        2959.50           1349          57.00       234.09
 1123.72        2959.75           1352          72.00       299.48
 1123.75        2960.00           1356          97.00       408.46
 1123.79        2960.25           1359         123.00       521.80
 1123.82        2960.50           1362         151.00       643.87
 1123.85        2960.75           1366         193.00       826.96
 1123.88        2961.00           1369         225.00       966.46
 1123.91        2961.25           1372         239.00      1027.49
 1123.94        2961.50           1376         313.00      1350.10
 1123.97        2961.75           1379         466.00      2017.12
 1124.00        2962.00           1382        1037.00      4506.71
 1124.03        2962.25           1386        2397.00     10437.88
 1124.06        2962.50           1389        3487.00     15193.06
 1124.09        2962.75           1392        4562.00     19884.13
 1124.12        2963.00           1396        6263.00     27309.64
 1124.16        2963.25           1399        7504.00     32729.16
 1124.19        2963.50           1402        8728.00     38076.17
 1124.22        2963.75           1406       10236.00     44666.18
 1124.25        2964.00           1409       11525.00     50301.22
 1124.28        2964.25           1412       12809.00     55916.31
 1124.31        2964.50           1416       14295.00     62417.12
 1124.34        2964.75           1419       15640.00     68303.29
 1124.37        2965.00           1422       16750.00     73162.59
 1124.40        2965.25           1426       18451.00     80611.88
 1124.44        2965.50           1429       19641.00     85825.31
 1124.47        2965.75           1432       20907.00     91373.49
 1124.50        2966.00           1436       22289.00     97432.14
 1124.53        2966.25           1439       23607.00    103212.30
 1124.56        2966.50           1442       24576.00    107463.20
 1124.59        2966.75           1446       25628.00    112079.40
 1124.62        2967.00           1449       25800.00    112834.20
 1124.65        2967.25           1452       25745.00    112592.80
 1124.69        2967.50           1456       25941.00    113453.10
 1124.72        2967.75           1459       25560.00    111780.90
 1124.75        2968.00           1462       25674.00    112281.20
 1124.78        2968.25           1466       24711.00    108055.50
 1124.81        2968.50           1469       23569.00    103045.60
 1124.84        2968.75           1472       22463.00     98195.12
 1124.87        2969.00           1476       20995.00     91759.22
 1124.90        2969.25           1479       19642.00     85829.69
 1124.93        2969.50           1482       18576.00     81159.43
 1124.97        2969.75           1486       16919.00     73902.55
 1125.00        2970.00           1489       15666.00     68417.10
 1125.03        2970.25           1492       14563.00     63589.81
 1125.06        2970.50           1496       13180.00     57539.08
 1125.09        2970.75           1499       11888.00     51888.47
 1125.12        2971.00           1502       10780.00     47044.12
 1125.15        2971.25           1506        9189.00     40090.47
 1125.18        2971.50           1509        8001.00     34900.08
 1125.21        2971.75           1513        6305.00     27493.03
 1125.25        2972.00           1516        5053.00     22027.19
 1125.28        2972.25           1519        3925.00     17104.24
 1125.31        2972.50           1523        2367.00     10307.02
 1125.34        2972.75           1526        1304.00      5670.97
 1125.37        2973.00           1529         579.00      2509.78
 1125.40        2973.25           1533         309.00      1332.66
 1125.43        2973.50           1536         243.00      1044.93
 1125.46        2973.75           1539         216.00       927.23
 1125.49        2974.00           1543         172.00       735.41
 1125.52        2974.25           1546         138.00       587.19
 1125.56        2974.50           1549          98.00       412.82
 1125.59        2974.75           1553          74.00       308.20
 1125.62        2975.00           1556          54.00       221.01
 1125.65        2975.25           1559          55.00       225.37
 1125.68        2975.50           1563          56.00       229.73
 1125.71        2975.75           1566          54.00       221.01
 1125.74        2976.00           1569          50.00       203.58
 1125.77        2976.25           1573          47.00       190.50
 1125.80        2976.50           1576          52.00       212.29
 1125.83        2976.75           1579          55.00       225.37
 1125.87        2977.00           1583          48.00       194.86
 1125.90        2977.25           1586          52.00       212.29
 1125.93        2977.50           1590          53.00       216.65
 1125.96        2977.75           1593          45.00       181.78
 1125.99        2978.00           1596          47.00       190.50
 1126.02        2978.25           1600          51.00       207.94
 1126.05        2978.50           1603          51.00       207.94
 1126.08        2978.75           1606          53.00       216.65
 1126.11        2979.00           1610          50.00       203.58
 1126.14        2979.25           1613          49.00       199.22
 1126.17        2979.50           1616          46.00       186.14
 1126.20        2979.75           1620          45.00       181.78
 1126.24        2980.00           1623          56.00       229.73
 1126.27        2980.25           1626          47.00       190.50
 1126.30        2980.50           1630          47.00       190.50
 1126.33        2980.75           1633          53.00       216.65
 1126.36        2981.00           1637          55.00       225.37
 1126.39        2981.25           1640          49.00       199.22
 1126.42        2981.50           1643          48.00       194.86
 1126.45        2981.75           1647          45.00       181.78
 1126.48        2982.00           1650          45.00       181.78
 1126.51        2982.25           1653          54.00       221.01
 1126.54        2982.50           1657          51.00       207.94
 1126.57        2982.75           1660          51.00       207.94
 1126.60        2983.00           1663          51.00       207.94
 1126.64        2983.25           1667          42.00       168.70
 1126.67        2983.50           1670          54.00       221.01
 1126.70        2983.75           1673          53.00       216.65
 1126.73        2984.00           1677          46.00       186.14
HS scan finished at 18:46:57
end
