************************************************************
  HS Scan of (1) Internal mercury lamp
************************************************************
Integration time is 0.2294 seconds per sample
dh240219Manchester 53.47 2.23 2.804185pr1000
************************************************************
Dead Time -------------------------  3E-08 
Number of Cycles Used -------------  4 
Starting Wavelength (Angstroms) ---  2950 
Final Wavelength (Angstoms) -------  2984 
Wavelength Increment (Angstroms) --  .25 
Filter Wheel #1 Position ---------- (1) Ground quartz diffuser (ND=2.32)
Filter Wheel #2 Position ---------- (1) Neutral Density 0.494



************************************************************
HS scan start time = 04:21:13
Dark Count =  5.5 


Time (GMT)  Wavelength (Ang)  Step Number  Raw Counts  Counts/Second

  261.58        2950.00           1222          56.00       220.14
  261.65        2950.25           1226          62.00       246.30
  261.68        2950.50           1229          52.00       202.70
  261.71        2950.75           1232          58.00       228.86
  261.74        2951.00           1236          60.00       237.58
  261.77        2951.25           1239          55.00       215.78
  261.80        2951.50           1242          57.00       224.50
  261.83        2951.75           1246          53.00       207.06
  261.86        2952.00           1249          56.00       220.14
  261.89        2952.25           1252          58.00       228.86
  261.93        2952.50           1256          53.00       207.06
  261.96        2952.75           1259          55.00       215.78
  261.99        2953.00           1262          54.00       211.42
  262.02        2953.25           1266          50.00       193.99
  262.05        2953.50           1269          54.00       211.42
  262.08        2953.75           1272          55.00       215.78
  262.11        2954.00           1276          57.00       224.50
  262.14        2954.25           1279          50.00       193.99
  262.17        2954.50           1282          68.00       272.45
  262.20        2954.75           1286          50.00       193.99
  262.23        2955.00           1289          57.00       224.50
  262.26        2955.25           1292          55.00       215.78
  262.29        2955.50           1296          46.00       176.55
  262.33        2955.75           1299          55.00       215.78
  262.36        2956.00           1302          52.00       202.70
  262.39        2956.25           1306          51.00       198.34
  262.42        2956.50           1309          49.00       189.63
  262.45        2956.75           1312          52.00       202.70
  262.48        2957.00           1316          48.00       185.27
  262.51        2957.25           1319          53.00       207.06
  262.54        2957.50           1322          53.00       207.06
  262.57        2957.75           1326          63.00       250.66
  262.60        2958.00           1329          54.00       211.42
  262.63        2958.25           1332          52.00       202.70
  262.66        2958.50           1336          56.00       220.14
  262.70        2958.75           1339          62.00       246.30
  262.73        2959.00           1342          50.00       193.99
  262.76        2959.25           1346          56.00       220.14
  262.79        2959.50           1349          58.00       228.86
  262.82        2959.75           1352          59.00       233.22
  262.85        2960.00           1356          81.00       329.12
  262.88        2960.25           1359         105.00       433.75
  262.91        2960.50           1362         127.00       529.65
  262.94        2960.75           1366         163.00       686.59
  262.97        2961.00           1369         195.00       826.09
  263.00        2961.25           1372         223.00       948.15
  263.04        2961.50           1376         279.00      1192.28
  263.07        2961.75           1379         336.00      1440.78
  263.10        2962.00           1382         528.00      2277.84
  263.13        2962.25           1386        1442.00      6263.16
  263.16        2962.50           1389        2477.00     10777.24
  263.19        2962.75           1392        3721.00     16204.48
  263.22        2963.00           1396        5245.00     22855.68
  263.25        2963.25           1399        6426.00     28011.76
  263.28        2963.50           1402        7507.00     32732.65
  263.31        2963.75           1406        9142.00     39875.49
  263.35        2964.00           1409       10359.00     45194.19
  263.38        2964.25           1412       11662.00     50890.63
  263.41        2964.50           1416       13294.00     58028.14
  263.44        2964.75           1419       14520.00     63392.02
  263.47        2965.00           1422       15682.00     68477.50
  263.50        2965.25           1426       17275.00     75451.78
  263.53        2965.50           1429       18361.00     80208.03
  263.56        2965.75           1432       19795.00     86490.48
  263.59        2966.00           1436       21196.00     92630.64
  263.62        2966.25           1439       22350.00     97689.99
  263.66        2966.50           1442       23612.00    103224.60
  263.69        2966.75           1446       24896.00    108857.50
  263.72        2967.00           1449       25612.00    111999.50
  263.75        2967.25           1452       25907.00    113294.20
  263.78        2967.50           1456       25842.00    113008.90
  263.81        2967.75           1459       26022.00    113798.90
  263.84        2968.00           1462       25872.00    113140.60
  263.87        2968.25           1466       25498.00    111499.20
  263.90        2968.50           1469       24830.00    108568.00
  263.93        2968.75           1472       23861.00    104316.80
  263.97        2969.00           1476       22428.00     98032.00
  264.00        2969.25           1479       21227.00     92766.53
  264.03        2969.50           1482       20025.00     87498.34
  264.06        2969.75           1486       18429.00     80505.88
  264.09        2970.00           1489       17292.00     75526.21
  264.12        2970.25           1492       16093.00     70276.61
  264.15        2970.50           1496       14351.00     62652.53
  264.18        2970.75           1499       13053.00     56973.94
  264.21        2971.00           1502       11988.00     52316.14
  264.24        2971.25           1506       10298.00     44927.57
  264.28        2971.50           1509        9044.00     39447.27
  264.31        2971.75           1513        7487.00     32645.29
  264.34        2972.00           1516        6325.00     27570.75
  264.37        2972.25           1519        5275.00     22986.64
  264.40        2972.50           1523        3720.00     16200.11
  264.43        2972.75           1526        2533.00     11021.52
  264.46        2973.00           1529        1535.00      6668.73
  264.49        2973.25           1533         485.00      2090.37
  264.52        2973.50           1536         284.00      1214.08
  264.56        2973.75           1539         252.00      1074.58
  264.59        2974.00           1543         185.00       782.49
  264.62        2974.25           1546         154.00       647.35
  264.65        2974.50           1549         121.00       503.50
  264.68        2974.75           1553          93.00       381.43
  264.71        2975.00           1556          64.00       255.02
  264.74        2975.25           1559          55.00       215.78
  264.77        2975.50           1563          45.00       172.19
  264.80        2975.75           1566          57.00       224.50
  264.83        2976.00           1569          48.00       185.27
  264.86        2976.25           1573          56.00       220.14
  264.90        2976.50           1576          52.00       202.70
  264.93        2976.75           1579          55.00       215.78
  264.96        2977.00           1583          49.00       189.63
  264.99        2977.25           1586          62.00       246.30
  265.02        2977.50           1590          58.00       228.86
  265.05        2977.75           1593          50.00       193.99
  265.08        2978.00           1596          55.00       215.78
  265.11        2978.25           1600          57.00       224.50
  265.14        2978.50           1603          53.00       207.06
  265.18        2978.75           1606          50.00       193.99
  265.21        2979.00           1610          48.00       185.27
  265.24        2979.25           1613          47.00       180.91
  265.27        2979.50           1616          51.00       198.34
  265.30        2979.75           1620          46.00       176.55
  265.33        2980.00           1623          49.00       189.63
  265.36        2980.25           1626          53.00       207.06
  265.39        2980.50           1630          48.00       185.27
  265.42        2980.75           1633          52.00       202.70
  265.45        2981.00           1637          66.00       263.73
  265.48        2981.25           1640          59.00       233.22
  265.51        2981.50           1643          51.00       198.34
  265.54        2981.75           1647          45.00       172.19
  265.58        2982.00           1650          48.00       185.27
  265.61        2982.25           1653          48.00       185.27
  265.64        2982.50           1657          46.00       176.55
  265.67        2982.75           1660          49.00       189.63
  265.70        2983.00           1663          47.00       180.91
  265.73        2983.25           1667          46.00       176.55
  265.76        2983.50           1670          45.00       172.19
  265.79        2983.75           1673          57.00       224.50
  265.82        2984.00           1677          45.00       172.19
HS scan finished at 04:26:02
end
************************************************************
  HS Scan of (1) Internal mercury lamp
************************************************************
Integration time is 0.2294 seconds per sample
dh240219Manchester 53.47 2.23 2.804185pr1000
************************************************************
Dead Time -------------------------  3E-08 
Number of Cycles Used -------------  4 
Starting Wavelength (Angstroms) ---  2950 
Final Wavelength (Angstoms) -------  2984 
Wavelength Increment (Angstroms) --  .25 
Filter Wheel #1 Position ---------- (1) Ground quartz diffuser (ND=2.32)
Filter Wheel #2 Position ---------- (1) Neutral Density 0.494



************************************************************
HS scan start time = 18:42:06
Dark Count =  7.4 


Time (GMT)  Wavelength (Ang)  Step Number  Raw Counts  Counts/Second

 1122.48        2950.00           1222          52.00       194.42
 1122.54        2950.25           1226          54.00       203.14
 1122.57        2950.50           1229          56.00       211.86
 1122.60        2950.75           1232          48.00       176.98
 1122.64        2951.00           1236          59.00       224.94
 1122.67        2951.25           1239          49.00       181.34
 1122.70        2951.50           1242          60.00       229.30
 1122.73        2951.75           1246          56.00       211.86
 1122.76        2952.00           1249          52.00       194.42
 1122.79        2952.25           1252          53.00       198.78
 1122.82        2952.50           1256          67.00       259.81
 1122.85        2952.75           1259          47.00       172.63
 1122.88        2953.00           1262          53.00       198.78
 1122.91        2953.25           1266          62.00       238.01
 1122.94        2953.50           1269          55.00       207.50
 1122.97        2953.75           1272          47.00       172.63
 1123.01        2954.00           1276          50.00       185.70
 1123.04        2954.25           1279          50.00       185.70
 1123.07        2954.50           1282          51.00       190.06
 1123.10        2954.75           1286          55.00       207.50
 1123.13        2955.00           1289          53.00       198.78
 1123.16        2955.25           1292          52.00       194.42
 1123.19        2955.50           1296          57.00       216.22
 1123.22        2955.75           1299          62.00       238.01
 1123.25        2956.00           1302          53.00       198.78
 1123.28        2956.25           1306          49.00       181.34
 1123.31        2956.50           1309          53.00       198.78
 1123.35        2956.75           1312          54.00       203.14
 1123.38        2957.00           1316          48.00       176.98
 1123.41        2957.25           1319          57.00       216.22
 1123.44        2957.50           1322          61.00       233.65
 1123.47        2957.75           1326          58.00       220.58
 1123.50        2958.00           1329          52.00       194.42
 1123.53        2958.25           1332          66.00       255.45
 1123.56        2958.50           1336          51.00       190.06
 1123.59        2958.75           1339          57.00       216.22
 1123.62        2959.00           1342          58.00       220.58
 1123.65        2959.25           1346          56.00       211.86
 1123.69        2959.50           1349          67.00       259.81
 1123.72        2959.75           1352          68.00       264.17
 1123.75        2960.00           1356          85.00       338.28
 1123.78        2960.25           1359         123.00       503.93
 1123.81        2960.50           1362         137.00       564.96
 1123.84        2960.75           1366         165.00       687.02
 1123.87        2961.00           1369         195.00       817.81
 1123.90        2961.25           1372         235.00       992.18
 1123.93        2961.50           1376         302.00      1284.27
 1123.96        2961.75           1379         431.00      1846.66
 1124.00        2962.00           1382         949.00      4105.13
 1124.03        2962.25           1386        2373.00     10315.31
 1124.06        2962.50           1389        3493.00     15201.35
 1124.09        2962.75           1392        4598.00     20023.36
 1124.12        2963.00           1396        6105.00     26601.87
 1124.15        2963.25           1399        7136.00     31103.99
 1124.18        2963.50           1402        8451.00     36848.04
 1124.21        2963.75           1406       10068.00     43913.96
 1124.24        2964.00           1409       11200.00     48862.33
 1124.27        2964.25           1412       12450.00     54328.23
 1124.31        2964.50           1416       13943.00     60859.06
 1124.34        2964.75           1419       15350.00     67016.03
 1124.37        2965.00           1422       16592.00     72452.87
 1124.40        2965.25           1426       18111.00     79104.68
 1124.43        2965.50           1429       19269.00     84177.44
 1124.46        2965.75           1432       20572.00     89887.22
 1124.49        2966.00           1436       21849.00     95484.99
 1124.52        2966.25           1439       23167.00    101264.50
 1124.55        2966.50           1442       24260.00    106058.80
 1124.59        2966.75           1446       25203.00    110196.30
 1124.62        2967.00           1449       25699.00    112373.00
 1124.65        2967.25           1452       25748.00    112588.00
 1124.68        2967.50           1456       25728.00    112500.20
 1124.71        2967.75           1459       25651.00    112162.30
 1124.74        2968.00           1462       25472.00    111376.80
 1124.77        2968.25           1466       24693.00    107958.50
 1124.80        2968.50           1469       23545.00    102922.40
 1124.83        2968.75           1472       22550.00     98558.64
 1124.87        2969.00           1476       21117.00     92276.02
 1124.90        2969.25           1479       20097.00     87805.53
 1124.93        2969.50           1482       18805.00     82144.65
 1124.96        2969.75           1486       17223.00     75215.75
 1124.99        2970.00           1489       16193.00     70706.06
 1125.02        2970.25           1492       14813.00     64665.87
 1125.05        2970.50           1496       13457.00     58732.87
 1125.08        2970.75           1499       12145.00     52994.39
 1125.11        2971.00           1502       10982.00     47909.26
 1125.15        2971.25           1506        9318.00     40636.26
 1125.18        2971.50           1509        8010.00     34921.49
 1125.21        2971.75           1513        6499.00     28322.23
 1125.24        2972.00           1516        5307.00     23118.03
 1125.27        2972.25           1519        4162.00     18120.57
 1125.30        2972.50           1523        2695.00     11719.90
 1125.33        2972.75           1526        1622.00      7039.85
 1125.36        2973.00           1529         778.00      3359.54
 1125.39        2973.25           1533         339.00      1445.57
 1125.42        2973.50           1536         249.00      1053.22
 1125.45        2973.75           1539         230.00       970.39
 1125.48        2974.00           1543         211.00       887.56
 1125.52        2974.25           1546         146.00       604.20
 1125.55        2974.50           1549         114.00       464.70
 1125.58        2974.75           1553          80.00       316.48
 1125.61        2975.00           1556          64.00       246.73
 1125.64        2975.25           1559          56.00       211.86
 1125.67        2975.50           1563          52.00       194.42
 1125.70        2975.75           1566          50.00       185.70
 1125.73        2976.00           1569          48.00       176.98
 1125.76        2976.25           1573          49.00       181.34
 1125.79        2976.50           1576          55.00       207.50
 1125.82        2976.75           1579          49.00       181.34
 1125.85        2977.00           1583          52.00       194.42
 1125.88        2977.25           1586          48.00       176.98
 1125.92        2977.50           1590          56.00       211.86
 1125.95        2977.75           1593          47.00       172.63
 1125.98        2978.00           1596          50.00       185.70
 1126.01        2978.25           1600          51.00       190.06
 1126.04        2978.50           1603          52.00       194.42
 1126.07        2978.75           1606          46.00       168.27
 1126.10        2979.00           1610          48.00       176.98
 1126.13        2979.25           1613          54.00       203.14
 1126.16        2979.50           1616          54.00       203.14
 1126.19        2979.75           1620          51.00       190.06
 1126.22        2980.00           1623          53.00       198.78
 1126.25        2980.25           1626          53.00       198.78
 1126.29        2980.50           1630          46.00       168.27
 1126.32        2980.75           1633          56.00       211.86
 1126.35        2981.00           1637          53.00       198.78
 1126.38        2981.25           1640          54.00       203.14
 1126.41        2981.50           1643          55.00       207.50
 1126.44        2981.75           1647          49.00       181.34
 1126.47        2982.00           1650          55.00       207.50
 1126.50        2982.25           1653          52.00       194.42
 1126.53        2982.50           1657          45.00       163.91
 1126.56        2982.75           1660          51.00       190.06
 1126.60        2983.00           1663          43.00       155.19
 1126.63        2983.25           1667          50.00       185.70
 1126.66        2983.50           1670          45.00       163.91
 1126.69        2983.75           1673          50.00       185.70
 1126.72        2984.00           1677          46.00       168.27
HS scan finished at 18:46:56
end
