************************************************************
  HS Scan of (1) Internal mercury lamp
************************************************************
Integration time is 0.2294 seconds per sample
dh280218Manchester 53.47 2.23 2.750537pr1000
************************************************************
Dead Time -------------------------  3E-08 
Number of Cycles Used -------------  4 
Starting Wavelength (Angstroms) ---  2950 
Final Wavelength (Angstoms) -------  2984 
Wavelength Increment (Angstroms) --  .25 
Filter Wheel #1 Position ---------- (1) Ground quartz diffuser (ND=2.32)
Filter Wheel #2 Position ---------- (1) Neutral Density 0.494



************************************************************
HS scan start time = 04:10:09
Dark Count =  6.3 


Time (GMT)  Wavelength (Ang)  Step Number  Raw Counts  Counts/Second

  250.51        2950.00           1222          63.00       247.17
  250.58        2950.25           1226          60.00       234.09
  250.61        2950.50           1229          62.00       242.81
  250.64        2950.75           1232          61.00       238.45
  250.67        2951.00           1236          56.00       216.65
  250.70        2951.25           1239          61.00       238.45
  250.73        2951.50           1242          61.00       238.45
  250.76        2951.75           1246          63.00       247.17
  250.79        2952.00           1249          59.00       229.73
  250.83        2952.25           1252          65.00       255.89
  250.86        2952.50           1256          64.00       251.53
  250.89        2952.75           1259          55.00       212.29
  250.92        2953.00           1262          60.00       234.09
  250.95        2953.25           1266          52.00       199.22
  250.98        2953.50           1269          60.00       234.09
  251.01        2953.75           1272          63.00       247.17
  251.04        2954.00           1276          57.00       221.01
  251.07        2954.25           1279          62.00       242.81
  251.10        2954.50           1282          54.00       207.94
  251.13        2954.75           1286          63.00       247.17
  251.16        2955.00           1289          65.00       255.89
  251.19        2955.25           1292          64.00       251.53
  251.23        2955.50           1296          65.00       255.89
  251.26        2955.75           1299          63.00       247.17
  251.29        2956.00           1302          62.00       242.81
  251.32        2956.25           1306          51.00       194.86
  251.35        2956.50           1309          57.00       221.01
  251.38        2956.75           1312          70.00       277.68
  251.41        2957.00           1316          57.00       221.01
  251.44        2957.25           1319          56.00       216.65
  251.47        2957.50           1322          57.00       221.01
  251.50        2957.75           1326          55.00       212.29
  251.53        2958.00           1329          56.00       216.65
  251.56        2958.25           1332          57.00       221.01
  251.59        2958.50           1336          54.00       207.94
  251.63        2958.75           1339          62.00       242.81
  251.66        2959.00           1342          55.00       212.29
  251.69        2959.25           1346          57.00       221.01
  251.72        2959.50           1349          62.00       242.81
  251.75        2959.75           1352          78.00       312.56
  251.78        2960.00           1356          97.00       395.38
  251.81        2960.25           1359         119.00       491.29
  251.84        2960.50           1362         152.00       635.15
  251.87        2960.75           1366         205.00       866.20
  251.90        2961.00           1369         245.00      1040.57
  251.94        2961.25           1372         279.00      1188.80
  251.97        2961.50           1376         335.00      1432.93
  252.00        2961.75           1379         397.00      1703.23
  252.03        2962.00           1382         562.00      2422.58
  252.06        2962.25           1386        1469.00      6377.42
  252.09        2962.50           1389        2719.00     11829.39
  252.12        2962.75           1392        3997.00     17405.34
  252.15        2963.00           1396        5927.00     25829.51
  252.18        2963.25           1399        7405.00     32283.65
  252.21        2963.50           1402        8866.00     38666.01
  252.24        2963.75           1406       10810.00     47162.15
  252.27        2964.00           1409       12364.00     53956.94
  252.30        2964.25           1412       13917.00     60750.11
  252.34        2964.50           1416       16034.00     70014.83
  252.37        2964.75           1419       17403.00     76008.78
  252.40        2965.00           1422       19024.00     83108.87
  252.43        2965.25           1426       21074.00     92092.35
  252.46        2965.50           1429       22457.00     98155.66
  252.49        2965.75           1432       23909.00    104523.90
  252.52        2966.00           1436       25687.00    112325.10
  252.55        2966.25           1439       27204.00    118984.10
  252.58        2966.50           1442       28515.00    124741.00
  252.62        2966.75           1446       30408.00    133057.10
  252.65        2967.00           1449       31464.00    137698.00
  252.68        2967.25           1452       32030.00    140186.00
  252.71        2967.50           1456       31833.00    139320.00
  252.74        2967.75           1459       32037.00    140216.70
  252.77        2968.00           1462       31844.00    139368.30
  252.80        2968.25           1466       31629.00    138423.30
  252.83        2968.50           1469       30627.00    134019.40
  252.86        2968.75           1472       29474.00    128953.50
  252.89        2969.00           1476       27751.00    121385.90
  252.92        2969.25           1479       26338.00    115182.40
  252.96        2969.50           1482       24816.00    108503.00
  252.99        2969.75           1486       23034.00    100686.00
  253.02        2970.00           1489       21373.00     93403.03
  253.05        2970.25           1492       19907.00     86977.74
  253.08        2970.50           1496       17936.00     78343.03
  253.11        2970.75           1499       16784.00     73298.31
  253.14        2971.00           1502       15192.00     66329.34
  253.17        2971.25           1506       13066.00     57027.30
  253.20        2971.50           1509       11576.00     50511.10
  253.23        2971.75           1513        9580.00     41786.01
  253.27        2972.00           1516        8237.00     35917.94
  253.30        2972.25           1519        6787.00     29584.66
  253.33        2972.50           1523        4808.00     20944.72
  253.36        2972.75           1526        3415.00     14865.83
  253.39        2973.00           1529        1968.00      8553.63
  253.42        2973.25           1533         629.00      2714.69
  253.45        2973.50           1536         376.00      1611.67
  253.48        2973.75           1539         294.00      1254.19
  253.51        2974.00           1543         229.00       970.82
  253.54        2974.25           1546         186.00       783.37
  253.57        2974.50           1549         146.00       608.99
  253.61        2974.75           1553          99.00       404.10
  253.64        2975.00           1556          70.00       277.68
  253.67        2975.25           1559          67.00       264.61
  253.70        2975.50           1563          64.00       251.53
  253.73        2975.75           1566          49.00       186.14
  253.76        2976.00           1569          57.00       221.01
  253.79        2976.25           1573          55.00       212.29
  253.82        2976.50           1576          64.00       251.53
  253.85        2976.75           1579          55.00       212.29
  253.88        2977.00           1583          55.00       212.29
  253.91        2977.25           1586          58.00       225.37
  253.94        2977.50           1590          58.00       225.37
  253.97        2977.75           1593          56.00       216.65
  254.01        2978.00           1596          55.00       212.29
  254.04        2978.25           1600          55.00       212.29
  254.07        2978.50           1603          50.00       190.50
  254.10        2978.75           1606          62.00       242.81
  254.13        2979.00           1610          53.00       203.58
  254.16        2979.25           1613          47.00       177.42
  254.19        2979.50           1616          57.00       221.01
  254.22        2979.75           1620          51.00       194.86
  254.25        2980.00           1623          52.00       199.22
  254.28        2980.25           1626          57.00       221.01
  254.31        2980.50           1630          55.00       212.29
  254.35        2980.75           1633          58.00       225.37
  254.38        2981.00           1637          62.00       242.81
  254.41        2981.25           1640          52.00       199.22
  254.44        2981.50           1643          48.00       181.78
  254.47        2981.75           1647          52.00       199.22
  254.50        2982.00           1650          49.00       186.14
  254.53        2982.25           1653          58.00       225.37
  254.56        2982.50           1657          55.00       212.29
  254.59        2982.75           1660          55.00       212.29
  254.62        2983.00           1663          45.00       168.70
  254.65        2983.25           1667          46.00       173.06
  254.68        2983.50           1670          52.00       199.22
  254.72        2983.75           1673          51.00       194.86
  254.75        2984.00           1677          59.00       229.73
HS scan finished at 04:14:58
end
************************************************************
  HS Scan of (1) Internal mercury lamp
************************************************************
Integration time is 0.2294 seconds per sample
dh280218Manchester 53.47 2.23 2.696889pr1000
************************************************************
Dead Time -------------------------  3E-08 
Number of Cycles Used -------------  4 
Starting Wavelength (Angstroms) ---  2950 
Final Wavelength (Angstoms) -------  2984 
Wavelength Increment (Angstroms) --  .25 
Filter Wheel #1 Position ---------- (1) Ground quartz diffuser (ND=2.32)
Filter Wheel #2 Position ---------- (1) Neutral Density 0.494



************************************************************
HS scan start time = 18:42:03
Dark Count =  6.4 


Time (GMT)  Wavelength (Ang)  Step Number  Raw Counts  Counts/Second

 1122.42        2950.00           1222          54.00       207.50
 1122.48        2950.25           1226          62.00       242.37
 1122.51        2950.50           1229          58.00       224.94
 1122.54        2950.75           1232          55.00       211.86
 1122.58        2951.00           1236          59.00       229.30
 1122.61        2951.25           1239          61.00       238.01
 1122.64        2951.50           1242          56.00       216.22
 1122.67        2951.75           1246          56.00       216.22
 1122.70        2952.00           1249          57.00       220.58
 1122.73        2952.25           1252          59.00       229.30
 1122.76        2952.50           1256          60.00       233.65
 1122.79        2952.75           1259          58.00       224.94
 1122.82        2953.00           1262          63.00       246.73
 1122.85        2953.25           1266          60.00       233.65
 1122.88        2953.50           1269          62.00       242.37
 1122.91        2953.75           1272          59.00       229.30
 1122.95        2954.00           1276          58.00       224.94
 1122.98        2954.25           1279          58.00       224.94
 1123.01        2954.50           1282          59.00       229.30
 1123.04        2954.75           1286          55.00       211.86
 1123.07        2955.00           1289          55.00       211.86
 1123.10        2955.25           1292          52.00       198.78
 1123.13        2955.50           1296          58.00       224.94
 1123.16        2955.75           1299          58.00       224.94
 1123.19        2956.00           1302          54.00       207.50
 1123.22        2956.25           1306          65.00       255.45
 1123.25        2956.50           1309          54.00       207.50
 1123.28        2956.75           1312          61.00       238.01
 1123.31        2957.00           1316          51.00       194.42
 1123.35        2957.25           1319          51.00       194.42
 1123.38        2957.50           1322          54.00       207.50
 1123.41        2957.75           1326          62.00       242.37
 1123.44        2958.00           1329          64.00       251.09
 1123.47        2958.25           1332          60.00       233.65
 1123.50        2958.50           1336          66.00       259.81
 1123.53        2958.75           1339          55.00       211.86
 1123.56        2959.00           1342          58.00       224.94
 1123.59        2959.25           1346          69.00       272.89
 1123.63        2959.50           1349          69.00       272.89
 1123.66        2959.75           1352          78.00       312.12
 1123.69        2960.00           1356         112.00       460.34
 1123.72        2960.25           1359         127.00       525.73
 1123.75        2960.50           1362         192.00       809.09
 1123.78        2960.75           1366         233.00       987.82
 1123.81        2961.00           1369         270.00      1149.12
 1123.84        2961.25           1372         290.00      1236.31
 1123.87        2961.50           1376         372.00      1593.80
 1123.90        2961.75           1379         545.00      2348.03
 1123.93        2962.00           1382        1120.00      4855.11
 1123.96        2962.25           1386        2636.00     11466.89
 1124.00        2962.50           1389        4074.00     17740.91
 1124.03        2962.75           1392        5428.00     23650.60
 1124.06        2963.00           1396        7512.00     32750.56
 1124.09        2963.25           1399        8739.00     38110.68
 1124.12        2963.50           1402       10108.00     44093.16
 1124.15        2963.75           1406       12194.00     53213.04
 1124.18        2964.00           1409       13809.00     60277.17
 1124.21        2964.25           1412       15245.00     66560.85
 1124.24        2964.50           1416       17267.00     75412.80
 1124.27        2964.75           1419       18586.00     81189.68
 1124.30        2965.00           1422       20094.00     87796.78
 1124.33        2965.25           1426       21931.00     95848.89
 1124.37        2965.50           1429       23564.00    103010.10
 1124.40        2965.75           1432       25065.00    109595.10
 1124.43        2966.00           1436       26938.00    117815.90
 1124.46        2966.25           1439       28290.00    123752.40
 1124.49        2966.50           1442       29539.00    129238.60
 1124.52        2966.75           1446       30907.00    135249.50
 1124.55        2967.00           1449       31435.00    137570.10
 1124.58        2967.25           1452       31502.00    137864.60
 1124.61        2967.50           1456       31257.00    136787.70
 1124.65        2967.75           1459       31402.00    137425.10
 1124.68        2968.00           1462       31368.00    137275.60
 1124.71        2968.25           1466       30515.00    133526.90
 1124.74        2968.50           1469       29347.00    128395.10
 1124.77        2968.75           1472       27965.00    122325.20
 1124.80        2969.00           1476       26019.00    113781.80
 1124.83        2969.25           1479       24637.00    107717.20
 1124.86        2969.50           1482       23073.00    100856.60
 1124.89        2969.75           1486       21272.00     92959.84
 1124.92        2970.00           1489       19840.00     86683.71
 1124.96        2970.25           1492       18349.00     80151.52
 1124.99        2970.50           1496       16467.00     71909.98
 1125.02        2970.75           1499       15071.00     65799.33
 1125.05        2971.00           1502       13676.00     59695.30
 1125.08        2971.25           1506       11649.00     50829.85
 1125.11        2971.50           1509       10166.00     44346.67
 1125.14        2971.75           1513        8311.00     36240.77
 1125.17        2972.00           1516        6754.00     29440.12
 1125.20        2972.25           1519        5344.00     23283.92
 1125.23        2972.50           1523        3558.00     15489.32
 1125.26        2972.75           1526        2208.00      9599.97
 1125.29        2973.00           1529        1081.00      4685.05
 1125.32        2973.25           1533         418.00      1794.34
 1125.36        2973.50           1536         294.00      1253.75
 1125.39        2973.75           1539         260.00      1105.53
 1125.42        2974.00           1543         215.00       909.35
 1125.45        2974.25           1546         180.00       756.77
 1125.48        2974.50           1549         125.00       517.01
 1125.51        2974.75           1553         104.00       425.46
 1125.54        2975.00           1556          70.00       277.25
 1125.57        2975.25           1559          70.00       277.25
 1125.60        2975.50           1563          55.00       211.86
 1125.63        2975.75           1566          62.00       242.37
 1125.66        2976.00           1569          60.00       233.65
 1125.69        2976.25           1573          55.00       211.86
 1125.72        2976.50           1576          54.00       207.50
 1125.75        2976.75           1579          48.00       181.34
 1125.79        2977.00           1583          59.00       229.30
 1125.82        2977.25           1586          54.00       207.50
 1125.85        2977.50           1590          55.00       211.86
 1125.88        2977.75           1593          58.00       224.94
 1125.91        2978.00           1596          55.00       211.86
 1125.94        2978.25           1600          57.00       220.58
 1125.97        2978.50           1603          47.00       176.98
 1126.00        2978.75           1606          57.00       220.58
 1126.03        2979.00           1610          50.00       190.06
 1126.06        2979.25           1613          52.00       198.78
 1126.09        2979.50           1616          49.00       185.70
 1126.12        2979.75           1620          57.00       220.58
 1126.15        2980.00           1623          54.00       207.50
 1126.18        2980.25           1626          61.00       238.01
 1126.22        2980.50           1630          57.00       220.58
 1126.25        2980.75           1633          48.00       181.34
 1126.28        2981.00           1637          56.00       216.22
 1126.31        2981.25           1640          51.00       194.42
 1126.34        2981.50           1643          57.00       220.58
 1126.37        2981.75           1647          61.00       238.01
 1126.40        2982.00           1650          61.00       238.01
 1126.43        2982.25           1653          53.00       203.14
 1126.46        2982.50           1657          50.00       190.06
 1126.49        2982.75           1660          55.00       211.86
 1126.52        2983.00           1663          52.00       198.78
 1126.56        2983.25           1667          60.00       233.65
 1126.59        2983.50           1670          58.00       224.94
 1126.62        2983.75           1673          41.00       150.83
 1126.65        2984.00           1677          51.00       194.42
HS scan finished at 18:46:52
end
