************************************************************
  HS Scan of (1) Internal mercury lamp
************************************************************
Integration time is 0.2294 seconds per sample
dh210217Manchester 53.47 2.23 2.804185pr1000
************************************************************
Dead Time -------------------------  3E-08 
Number of Cycles Used -------------  4 
Starting Wavelength (Angstroms) ---  2950 
Final Wavelength (Angstoms) -------  2984 
Wavelength Increment (Angstroms) --  .25 
Filter Wheel #1 Position ---------- (1) Ground quartz diffuser (ND=2.32)
Filter Wheel #2 Position ---------- (1) Neutral Density 0.494



************************************************************
HS scan start time = 04:27:14
Dark Count =  6.8 


Time (GMT)  Wavelength (Ang)  Step Number  Raw Counts  Counts/Second

  267.61        2950.00           1222          41.00       149.09
  267.67        2950.25           1226          43.00       157.80
  267.71        2950.50           1229          39.00       140.37
  267.74        2950.75           1232          49.00       183.96
  267.77        2951.00           1236          47.00       175.24
  267.80        2951.25           1239          46.00       170.88
  267.83        2951.50           1242          44.00       162.16
  267.86        2951.75           1246          39.00       140.37
  267.89        2952.00           1249          51.00       192.68
  267.92        2952.25           1252          47.00       175.24
  267.95        2952.50           1256          46.00       170.88
  267.98        2952.75           1259          44.00       162.16
  268.02        2953.00           1262          44.00       162.16
  268.05        2953.25           1266          48.00       179.60
  268.08        2953.50           1269          45.00       166.52
  268.11        2953.75           1272          39.00       140.37
  268.14        2954.00           1276          43.00       157.80
  268.17        2954.25           1279          48.00       179.60
  268.20        2954.50           1282          41.00       149.09
  268.23        2954.75           1286          46.00       170.88
  268.26        2955.00           1289          43.00       157.80
  268.29        2955.25           1292          48.00       179.60
  268.32        2955.50           1296          53.00       201.40
  268.35        2955.75           1299          43.00       157.80
  268.38        2956.00           1302          45.00       166.52
  268.41        2956.25           1306          45.00       166.52
  268.44        2956.50           1309          46.00       170.88
  268.48        2956.75           1312          42.00       153.44
  268.51        2957.00           1316          48.00       179.60
  268.54        2957.25           1319          47.00       175.24
  268.57        2957.50           1322          49.00       183.96
  268.60        2957.75           1326          51.00       192.68
  268.63        2958.00           1329          48.00       179.60
  268.66        2958.25           1332          46.00       170.88
  268.69        2958.50           1336          49.00       183.96
  268.72        2958.75           1339          47.00       175.24
  268.75        2959.00           1342          52.00       197.04
  268.78        2959.25           1346          42.00       153.44
  268.82        2959.50           1349          49.00       183.96
  268.85        2959.75           1352          56.00       214.47
  268.88        2960.00           1356          77.00       306.02
  268.91        2960.25           1359         111.00       454.23
  268.94        2960.50           1362         147.00       611.17
  268.97        2960.75           1366         202.00       850.94
  269.00        2961.00           1369         256.00      1086.35
  269.03        2961.25           1372         290.00      1234.57
  269.06        2961.50           1376         363.00      1552.82
  269.09        2961.75           1379         555.00      2389.88
  269.12        2962.00           1382        1172.00      5080.11
  269.16        2962.25           1386        2838.00     12346.33
  269.19        2962.50           1389        4540.00     19772.84
  269.22        2962.75           1392        6104.00     26600.12
  269.25        2963.00           1396        8358.00     36444.36
  269.28        2963.25           1399       10019.00     43702.42
  269.31        2963.50           1402       11683.00     50976.77
  269.34        2963.75           1406       13989.00     61062.94
  269.37        2964.00           1409       15528.00     67797.74
  269.40        2964.25           1412       17322.00     75651.88
  269.43        2964.50           1416       19488.00     85139.59
  269.47        2964.75           1419       21062.00     92037.56
  269.50        2965.00           1422       22886.00    100034.70
  269.53        2965.25           1426       25076.00    109641.70
  269.56        2965.50           1429       26625.00    116440.00
  269.59        2965.75           1432       28429.00    124361.10
  269.62        2966.00           1436       30579.00    133806.30
  269.65        2966.25           1439       32280.00    141282.80
  269.68        2966.50           1442       33854.00    148204.10
  269.71        2966.75           1446       35367.00    154859.90
  269.74        2967.00           1449       35831.00    156901.60
  269.77        2967.25           1452       36094.00    158059.00
  269.80        2967.50           1456       36118.00    158164.60
  269.84        2967.75           1459       35899.00    157200.80
  269.87        2968.00           1462       35724.00    156430.80
  269.90        2968.25           1466       34876.00    152699.70
  269.93        2968.50           1469       33526.00    146761.60
  269.96        2968.75           1472       31750.00    138952.90
  269.99        2969.00           1476       29722.00    130040.80
  270.02        2969.25           1479       28139.00    123087.50
  270.05        2969.50           1482       26476.00    115786.00
  270.08        2969.75           1486       24428.00    106798.50
  270.11        2970.00           1489       22731.00     99354.99
  270.15        2970.25           1492       21048.00     91976.21
  270.18        2970.50           1496       18731.00     81823.10
  270.21        2970.75           1499       17174.00     75003.80
  270.24        2971.00           1502       15488.00     67622.66
  270.27        2971.25           1506       13205.00     57633.13
  270.30        2971.50           1509       11616.00     50683.81
  270.33        2971.75           1513        9415.00     41062.76
  270.36        2972.00           1516        7733.00     33714.12
  270.39        2972.25           1519        6110.00     26626.32
  270.43        2972.50           1523        3850.00     16761.70
  270.46        2972.75           1526        2283.00      9925.36
  270.49        2973.00           1529        1147.00      4971.10
  270.52        2973.25           1533         498.00      2141.38
  270.55        2973.50           1536         366.00      1565.90
  270.58        2973.75           1539         298.00      1269.45
  270.61        2974.00           1543         246.00      1042.75
  270.64        2974.25           1546         203.00       855.30
  270.67        2974.50           1549         154.00       641.69
  270.70        2974.75           1553         108.00       441.16
  270.73        2975.00           1556          78.00       310.38
  270.76        2975.25           1559          56.00       214.47
  270.79        2975.50           1563          48.00       179.60
  270.82        2975.75           1566          50.00       188.32
  270.85        2976.00           1569          42.00       153.44
  270.89        2976.25           1573          57.00       218.83
  270.92        2976.50           1576          49.00       183.96
  270.95        2976.75           1579          47.00       175.24
  270.98        2977.00           1583          42.00       153.44
  271.01        2977.25           1586          47.00       175.24
  271.04        2977.50           1590          54.00       205.76
  271.07        2977.75           1593          48.00       179.60
  271.10        2978.00           1596          47.00       175.24
  271.13        2978.25           1600          44.00       162.16
  271.16        2978.50           1603          46.00       170.88
  271.19        2978.75           1606          43.00       157.80
  271.23        2979.00           1610          43.00       157.80
  271.26        2979.25           1613          42.00       153.44
  271.29        2979.50           1616          45.00       166.52
  271.32        2979.75           1620          42.00       153.44
  271.35        2980.00           1623          49.00       183.96
  271.38        2980.25           1626          53.00       201.40
  271.41        2980.50           1630          43.00       157.80
  271.44        2980.75           1633          51.00       192.68
  271.47        2981.00           1637          46.00       170.88
  271.50        2981.25           1640          43.00       157.80
  271.53        2981.50           1643          49.00       183.96
  271.57        2981.75           1647          46.00       170.88
  271.60        2982.00           1650          47.00       175.24
  271.63        2982.25           1653          45.00       166.52
  271.66        2982.50           1657          40.00       144.73
  271.69        2982.75           1660          42.00       153.44
  271.72        2983.00           1663          37.00       131.65
  271.75        2983.25           1667          50.00       188.32
  271.78        2983.50           1670          48.00       179.60
  271.81        2983.75           1673          46.00       170.88
  271.84        2984.00           1677          40.00       144.73
HS scan finished at 04:32:04
end
************************************************************
  HS Scan of (1) Internal mercury lamp
************************************************************
Integration time is 0.2294 seconds per sample
dh210217Manchester 53.47 2.23 2.804185pr1000
************************************************************
Dead Time -------------------------  3E-08 
Number of Cycles Used -------------  4 
Starting Wavelength (Angstroms) ---  2950 
Final Wavelength (Angstoms) -------  2984 
Wavelength Increment (Angstroms) --  .25 
Filter Wheel #1 Position ---------- (1) Ground quartz diffuser (ND=2.32)
Filter Wheel #2 Position ---------- (1) Neutral Density 0.494



************************************************************
HS scan start time = 18:42:00
Dark Count =  6.1 


Time (GMT)  Wavelength (Ang)  Step Number  Raw Counts  Counts/Second

 1122.38        2950.00           1222          43.00       160.86
 1122.44        2950.25           1226          46.00       173.93
 1122.47        2950.50           1229          46.00       173.93
 1122.50        2950.75           1232          49.00       187.01
 1122.53        2951.00           1236          48.00       182.65
 1122.56        2951.25           1239          50.00       191.37
 1122.60        2951.50           1242          47.00       178.29
 1122.63        2951.75           1246          45.00       169.57
 1122.66        2952.00           1249          44.00       165.21
 1122.69        2952.25           1252          55.00       213.17
 1122.72        2952.50           1256          52.00       200.09
 1122.75        2952.75           1259          39.00       143.42
 1122.78        2953.00           1262          40.00       147.78
 1122.81        2953.25           1266          45.00       169.57
 1122.84        2953.50           1269          43.00       160.86
 1122.87        2953.75           1272          54.00       208.81
 1122.90        2954.00           1276          44.00       165.21
 1122.93        2954.25           1279          51.00       195.73
 1122.96        2954.50           1282          41.00       152.14
 1123.00        2954.75           1286          49.00       187.01
 1123.03        2955.00           1289          43.00       160.86
 1123.06        2955.25           1292          40.00       147.78
 1123.09        2955.50           1296          46.00       173.93
 1123.12        2955.75           1299          41.00       152.14
 1123.15        2956.00           1302          38.00       139.06
 1123.18        2956.25           1306          45.00       169.57
 1123.21        2956.50           1309          47.00       178.29
 1123.24        2956.75           1312          47.00       178.29
 1123.27        2957.00           1316          46.00       173.93
 1123.30        2957.25           1319          46.00       173.93
 1123.33        2957.50           1322          52.00       200.09
 1123.36        2957.75           1326          45.00       169.57
 1123.40        2958.00           1329          46.00       173.93
 1123.43        2958.25           1332          44.00       165.21
 1123.46        2958.50           1336          43.00       160.86
 1123.49        2958.75           1339          50.00       191.37
 1123.52        2959.00           1342          44.00       165.21
 1123.55        2959.25           1346          51.00       195.73
 1123.58        2959.50           1349          65.00       256.76
 1123.61        2959.75           1352          75.00       300.35
 1123.64        2960.00           1356         107.00       439.85
 1123.67        2960.25           1359         146.00       609.86
 1123.70        2960.50           1362         192.00       810.39
 1123.73        2960.75           1366         256.00      1089.40
 1123.76        2961.00           1369         305.00      1303.02
 1123.80        2961.25           1372         341.00      1459.96
 1123.83        2961.50           1376         458.00      1970.04
 1123.86        2961.75           1379         748.00      3234.40
 1123.89        2962.00           1382        1510.00      6557.09
 1123.92        2962.25           1386        3291.00     14325.69
 1123.95        2962.50           1389        5058.00     22036.80
 1123.98        2962.75           1392        6660.00     29030.94
 1124.01        2963.00           1396        8723.00     38042.09
 1124.04        2963.25           1399       10394.00     45344.56
 1124.07        2963.50           1402       12111.00     52851.39
 1124.11        2963.75           1406       14270.00     62295.48
 1124.14        2964.00           1409       16143.00     70492.87
 1124.17        2964.25           1412       17942.00     78370.18
 1124.20        2964.50           1416       19961.00     87215.25
 1124.23        2964.75           1419       21660.00     94662.08
 1124.26        2965.00           1422       23111.00    101024.60
 1124.29        2965.25           1426       25372.00    110943.60
 1124.32        2965.50           1429       27201.00    118971.80
 1124.35        2965.75           1432       28705.00    125576.40
 1124.38        2966.00           1436       31010.00    135703.50
 1124.42        2966.25           1439       32624.00    142798.30
 1124.45        2966.50           1442       33977.00    148748.20
 1124.48        2966.75           1446       35212.00    154181.00
 1124.51        2967.00           1449       35547.00    155655.00
 1124.54        2967.25           1452       35605.00    155910.20
 1124.57        2967.50           1456       35484.00    155377.80
 1124.60        2967.75           1459       35518.00    155527.40
 1124.63        2968.00           1462       35206.00    154154.60
 1124.66        2968.25           1466       33806.00    147996.10
 1124.70        2968.50           1469       32372.00    141690.40
 1124.73        2968.75           1472       30786.00    134719.10
 1124.76        2969.00           1476       28663.00    125391.90
 1124.79        2969.25           1479       26841.00    117391.40
 1124.82        2969.50           1482       25332.00    110768.10
 1124.85        2969.75           1486       23109.00    101015.80
 1124.88        2970.00           1489       21421.00     93614.33
 1124.91        2970.25           1492       19880.00     86860.31
 1124.94        2970.50           1496       17753.00     77542.43
 1124.98        2970.75           1499       16197.00     70729.26
 1125.01        2971.00           1502       14646.00     63940.77
 1125.04        2971.25           1506       12382.00     54036.53
 1125.07        2971.50           1509       10742.00     46865.76
 1125.10        2971.75           1513        8394.00     36604.70
 1125.13        2972.00           1516        6822.00     29738.38
 1125.16        2972.25           1519        5153.00     22451.47
 1125.19        2972.50           1523        3140.00     13666.89
 1125.22        2972.75           1526        1821.00      7913.39
 1125.25        2973.00           1529         802.00      3469.85
 1125.29        2973.25           1533         404.00      1734.62
 1125.32        2973.50           1536         331.00      1416.36
 1125.35        2973.75           1539         263.00      1119.92
 1125.38        2974.00           1543         217.00       919.38
 1125.41        2974.25           1546         154.00       644.74
 1125.44        2974.50           1549         124.00       513.96
 1125.47        2974.75           1553          81.00       326.51
 1125.50        2975.00           1556          65.00       256.76
 1125.53        2975.25           1559          61.00       239.32
 1125.56        2975.50           1563          46.00       173.93
 1125.59        2975.75           1566          50.00       191.37
 1125.63        2976.00           1569          49.00       187.01
 1125.66        2976.25           1573          46.00       173.93
 1125.69        2976.50           1576          44.00       165.21
 1125.72        2976.75           1579          44.00       165.21
 1125.75        2977.00           1583          42.00       156.50
 1125.78        2977.25           1586          52.00       200.09
 1125.81        2977.50           1590          49.00       187.01
 1125.84        2977.75           1593          47.00       178.29
 1125.87        2978.00           1596          53.00       204.45
 1125.90        2978.25           1600          45.00       169.57
 1125.94        2978.50           1603          37.00       134.70
 1125.97        2978.75           1606          45.00       169.57
 1126.00        2979.00           1610          52.00       200.09
 1126.03        2979.25           1613          49.00       187.01
 1126.06        2979.50           1616          42.00       156.50
 1126.09        2979.75           1620          44.00       165.21
 1126.12        2980.00           1623          45.00       169.57
 1126.15        2980.25           1626          45.00       169.57
 1126.18        2980.50           1630          47.00       178.29
 1126.21        2980.75           1633          42.00       156.50
 1126.24        2981.00           1637          48.00       182.65
 1126.27        2981.25           1640          39.00       143.42
 1126.30        2981.50           1643          47.00       178.29
 1126.33        2981.75           1647          43.00       160.86
 1126.36        2982.00           1650          41.00       152.14
 1126.40        2982.25           1653          40.00       147.78
 1126.43        2982.50           1657          49.00       187.01
 1126.46        2982.75           1660          36.00       130.34
 1126.49        2983.00           1663          45.00       169.57
 1126.52        2983.25           1667          47.00       178.29
 1126.55        2983.50           1670          48.00       182.65
 1126.58        2983.75           1673          44.00       165.21
 1126.61        2984.00           1677          56.00       217.53
HS scan finished at 18:46:50
end
