************************************************************
  HS Scan of (1) Internal mercury lamp
************************************************************
Integration time is 0.2294 seconds per sample
dh230219Manchester 53.47 2.23 2.804185pr1000
************************************************************
Dead Time -------------------------  3E-08 
Number of Cycles Used -------------  4 
Starting Wavelength (Angstroms) ---  2950 
Final Wavelength (Angstoms) -------  2984 
Wavelength Increment (Angstroms) --  .25 
Filter Wheel #1 Position ---------- (1) Ground quartz diffuser (ND=2.32)
Filter Wheel #2 Position ---------- (1) Neutral Density 0.494



************************************************************
HS scan start time = 04:23:39
Dark Count =  4.3 


Time (GMT)  Wavelength (Ang)  Step Number  Raw Counts  Counts/Second

  264.02        2950.00           1222          64.00       260.25
  264.09        2950.25           1226          64.00       260.25
  264.12        2950.50           1229          64.00       260.25
  264.15        2950.75           1232          52.00       207.94
  264.18        2951.00           1236          51.00       203.58
  264.21        2951.25           1239          55.00       221.01
  264.24        2951.50           1242          54.00       216.65
  264.27        2951.75           1246          53.00       212.29
  264.30        2952.00           1249          50.00       199.22
  264.34        2952.25           1252          50.00       199.22
  264.37        2952.50           1256          56.00       225.37
  264.40        2952.75           1259          58.00       234.09
  264.43        2953.00           1262          57.00       229.73
  264.46        2953.25           1266          53.00       212.29
  264.49        2953.50           1269          75.00       308.20
  264.52        2953.75           1272          48.00       190.50
  264.55        2954.00           1276          59.00       238.45
  264.58        2954.25           1279          52.00       207.94
  264.61        2954.50           1282          53.00       212.29
  264.64        2954.75           1286          58.00       234.09
  264.67        2955.00           1289          53.00       212.29
  264.70        2955.25           1292          60.00       242.81
  264.73        2955.50           1296          52.00       207.94
  264.76        2955.75           1299          52.00       207.94
  264.80        2956.00           1302          50.00       199.22
  264.83        2956.25           1306          58.00       234.09
  264.86        2956.50           1309          53.00       212.29
  264.89        2956.75           1312          51.00       203.58
  264.92        2957.00           1316          47.00       186.14
  264.95        2957.25           1319          55.00       221.01
  264.98        2957.50           1322          57.00       229.73
  265.01        2957.75           1326          54.00       216.65
  265.04        2958.00           1329          62.00       251.53
  265.07        2958.25           1332          45.00       177.42
  265.10        2958.50           1336          52.00       207.94
  265.13        2958.75           1339          49.00       194.86
  265.17        2959.00           1342          52.00       207.94
  265.20        2959.25           1346          52.00       207.94
  265.23        2959.50           1349          62.00       251.53
  265.26        2959.75           1352          62.00       251.53
  265.29        2960.00           1356          90.00       373.59
  265.32        2960.25           1359         116.00       486.93
  265.35        2960.50           1362         141.00       595.91
  265.38        2960.75           1366         148.00       626.43
  265.41        2961.00           1369         195.00       831.32
  265.44        2961.25           1372         231.00       988.26
  265.48        2961.50           1376         300.00      1289.06
  265.51        2961.75           1379         438.00      1890.69
  265.54        2962.00           1382         977.00      4240.73
  265.57        2962.25           1386        2287.00      9953.71
  265.60        2962.50           1389        3445.00     15005.45
  265.63        2962.75           1392        4607.00     20076.17
  265.66        2963.00           1396        6043.00     26344.70
  265.69        2963.25           1399        7330.00     31964.82
  265.72        2963.50           1402        8478.00     36979.54
  265.75        2963.75           1406        9984.00     43560.38
  265.79        2964.00           1409       11392.00     49715.33
  265.82        2964.25           1412       12763.00     55710.74
  265.85        2964.50           1416       14412.00     62924.69
  265.88        2964.75           1419       15522.00     67782.41
  265.91        2965.00           1422       16760.00     73202.00
  265.94        2965.25           1426       18282.00     79867.25
  265.97        2965.50           1429       19741.00     86259.11
  266.00        2965.75           1432       20734.00     90610.84
  266.03        2966.00           1436       22410.00     97958.33
  266.07        2966.25           1439       23506.00    102764.90
  266.10        2966.50           1442       24574.00    107450.00
  266.13        2966.75           1446       25560.00    111776.60
  266.16        2967.00           1449       25733.00    112535.80
  266.19        2967.25           1452       25813.00    112886.90
  266.22        2967.50           1456       25841.00    113009.80
  266.25        2967.75           1459       25949.00    113483.80
  266.28        2968.00           1462       25627.00    112070.60
  266.31        2968.25           1466       24829.00    108568.80
  266.35        2968.50           1469       23743.00    103804.40
  266.38        2968.75           1472       22877.00    100006.20
  266.41        2969.00           1476       21094.00     92188.78
  266.44        2969.25           1479       20016.00     87464.16
  266.47        2969.50           1482       18866.00     82425.46
  266.50        2969.75           1486       17273.00     75448.27
  266.53        2970.00           1489       16159.00     70570.79
  266.56        2970.25           1492       14964.00     65340.26
  266.59        2970.50           1496       13473.00     58816.42
  266.63        2970.75           1499       12169.00     53112.90
  266.66        2971.00           1502       11017.00     48075.83
  266.69        2971.25           1506        9396.00     40990.66
  266.72        2971.50           1509        8125.00     35437.40
  266.75        2971.75           1513        6534.00     28488.59
  266.78        2972.00           1516        5391.00     23498.26
  266.81        2972.25           1519        4268.00     18596.68
  266.84        2972.50           1523        2724.00     11859.93
  266.87        2972.75           1526        1607.00      6987.95
  266.91        2973.00           1529         708.00      3067.85
  266.94        2973.25           1533         357.00      1537.56
  266.97        2973.50           1536         285.00      1223.67
  267.00        2973.75           1539         241.00      1031.85
  267.03        2974.00           1543         221.00       944.67
  267.06        2974.25           1546         162.00       687.46
  267.09        2974.50           1549         131.00       552.32
  267.12        2974.75           1553          96.00       399.74
  267.15        2975.00           1556          78.00       321.28
  267.19        2975.25           1559          64.00       260.25
  267.22        2975.50           1563          60.00       242.81
  267.25        2975.75           1566          46.00       181.78
  267.28        2976.00           1569          52.00       207.94
  267.31        2976.25           1573          40.00       155.62
  267.34        2976.50           1576          52.00       207.94
  267.37        2976.75           1579          53.00       212.29
  267.40        2977.00           1583          54.00       216.65
  267.43        2977.25           1586          55.00       221.01
  267.46        2977.50           1590          56.00       225.37
  267.49        2977.75           1593          52.00       207.94
  267.52        2978.00           1596          56.00       225.37
  267.55        2978.25           1600          50.00       199.22
  267.58        2978.50           1603          46.00       181.78
  267.62        2978.75           1606          51.00       203.58
  267.65        2979.00           1610          44.00       173.06
  267.68        2979.25           1613          52.00       207.94
  267.71        2979.50           1616          51.00       203.58
  267.74        2979.75           1620          61.00       247.17
  267.77        2980.00           1623          54.00       216.65
  267.80        2980.25           1626          48.00       190.50
  267.83        2980.50           1630          53.00       212.29
  267.86        2980.75           1633          49.00       194.86
  267.89        2981.00           1637          44.00       173.06
  267.92        2981.25           1640          47.00       186.14
  267.95        2981.50           1643          59.00       238.45
  267.98        2981.75           1647          48.00       190.50
  268.01        2982.00           1650          45.00       177.42
  268.05        2982.25           1653          51.00       203.58
  268.08        2982.50           1657          46.00       181.78
  268.11        2982.75           1660          51.00       203.58
  268.14        2983.00           1663          41.00       159.98
  268.17        2983.25           1667          46.00       181.78
  268.20        2983.50           1670          50.00       199.22
  268.23        2983.75           1673          54.00       216.65
  268.26        2984.00           1677          44.00       173.06
HS scan finished at 04:28:29
end
************************************************************
  HS Scan of (1) Internal mercury lamp
************************************************************
Integration time is 0.2294 seconds per sample
dh230219Manchester 53.47 2.23 2.804185pr1000
************************************************************
Dead Time -------------------------  3E-08 
Number of Cycles Used -------------  4 
Starting Wavelength (Angstroms) ---  2950 
Final Wavelength (Angstoms) -------  2984 
Wavelength Increment (Angstroms) --  .25 
Filter Wheel #1 Position ---------- (1) Ground quartz diffuser (ND=2.32)
Filter Wheel #2 Position ---------- (1) Neutral Density 0.494



************************************************************
HS scan start time = 18:42:06
Dark Count =  7 


Time (GMT)  Wavelength (Ang)  Step Number  Raw Counts  Counts/Second

 1122.47        2950.00           1222          63.00       244.12
 1122.53        2950.25           1226          54.00       204.88
 1122.56        2950.50           1229          52.00       196.17
 1122.59        2950.75           1232          50.00       187.45
 1122.62        2951.00           1236          58.00       222.32
 1122.66        2951.25           1239          54.00       204.88
 1122.69        2951.50           1242          61.00       235.40
 1122.72        2951.75           1246          55.00       209.24
 1122.75        2952.00           1249          52.00       196.17
 1122.78        2952.25           1252          59.00       226.68
 1122.81        2952.50           1256          60.00       231.04
 1122.84        2952.75           1259          59.00       226.68
 1122.87        2953.00           1262          69.00       270.27
 1122.90        2953.25           1266          58.00       222.32
 1122.93        2953.50           1269          50.00       187.45
 1122.96        2953.75           1272          54.00       204.88
 1123.00        2954.00           1276          58.00       222.32
 1123.03        2954.25           1279          56.00       213.60
 1123.06        2954.50           1282          58.00       222.32
 1123.09        2954.75           1286          53.00       200.52
 1123.12        2955.00           1289          54.00       204.88
 1123.15        2955.25           1292          54.00       204.88
 1123.18        2955.50           1296          49.00       183.09
 1123.21        2955.75           1299          54.00       204.88
 1123.24        2956.00           1302          56.00       213.60
 1123.27        2956.25           1306          55.00       209.24
 1123.30        2956.50           1309          56.00       213.60
 1123.33        2956.75           1312          52.00       196.17
 1123.36        2957.00           1316          54.00       204.88
 1123.40        2957.25           1319          51.00       191.81
 1123.43        2957.50           1322          47.00       174.37
 1123.46        2957.75           1326          53.00       200.52
 1123.49        2958.00           1329          61.00       235.40
 1123.52        2958.25           1332          61.00       235.40
 1123.55        2958.50           1336          50.00       187.45
 1123.58        2958.75           1339          55.00       209.24
 1123.61        2959.00           1342          60.00       231.04
 1123.65        2959.25           1346          61.00       235.40
 1123.68        2959.50           1349          64.00       248.48
 1123.71        2959.75           1352          79.00       313.87
 1123.74        2960.00           1356         103.00       418.49
 1123.77        2960.25           1359         130.00       536.19
 1123.80        2960.50           1362         153.00       636.46
 1123.83        2960.75           1366         203.00       854.42
 1123.86        2961.00           1369         231.00       976.49
 1123.89        2961.25           1372         284.00      1207.54
 1123.92        2961.50           1376         316.00      1347.05
 1123.96        2961.75           1379         408.00      1748.13
 1123.99        2962.00           1382         721.00      3112.76
 1124.02        2962.25           1386        1886.00      8192.95
 1124.05        2962.50           1389        3080.00     13401.20
 1124.08        2962.75           1392        4220.00     18375.43
 1124.11        2963.00           1396        5761.00     25101.72
 1124.14        2963.25           1399        6936.00     30232.29
 1124.17        2963.50           1402        8205.00     35775.08
 1124.20        2963.75           1406        9825.00     42853.66
 1124.24        2964.00           1409       11107.00     48457.49
 1124.27        2964.25           1412       12333.00     53818.30
 1124.30        2964.50           1416       13892.00     60637.67
 1124.33        2964.75           1419       15064.00     65766.07
 1124.36        2965.00           1422       16399.00     71609.66
 1124.39        2965.25           1426       18122.00     79154.62
 1124.42        2965.50           1429       19218.00     83955.75
 1124.45        2965.75           1432       20379.00     89043.12
 1124.48        2966.00           1436       21934.00     95859.41
 1124.51        2966.25           1439       23030.00    100665.40
 1124.54        2966.50           1442       24084.00    105288.50
 1124.58        2966.75           1446       25275.00    110514.00
 1124.61        2967.00           1449       25604.00    111957.80
 1124.64        2967.25           1452       25889.00    113208.60
 1124.67        2967.50           1456       25787.00    112760.90
 1124.70        2967.75           1459       25733.00    112523.90
 1124.73        2968.00           1462       25486.00    111440.00
 1124.76        2968.25           1466       25079.00    109654.00
 1124.79        2968.50           1469       24014.00    104981.40
 1124.82        2968.75           1472       22936.00    100253.10
 1124.86        2969.00           1476       21382.00     93439.42
 1124.89        2969.25           1479       20118.00     87899.31
 1124.92        2969.50           1482       19051.00     83224.10
 1124.95        2969.75           1486       17465.00     76277.24
 1124.98        2970.00           1489       16243.00     70926.70
 1125.01        2970.25           1492       15152.00     66151.21
 1125.04        2970.50           1496       13590.00     59316.45
 1125.07        2970.75           1499       12405.00     54133.18
 1125.10        2971.00           1502       11257.00     49113.29
 1125.13        2971.25           1506        9522.00     41529.48
 1125.17        2971.50           1509        8410.00     36670.66
 1125.20        2971.75           1513        6941.00     30254.13
 1125.23        2972.00           1516        5677.00     24735.00
 1125.26        2972.25           1519        4604.00     20051.29
 1125.29        2972.50           1523        3097.00     13475.37
 1125.32        2972.75           1526        1957.00      8502.61
 1125.35        2973.00           1529         928.00      4015.31
 1125.38        2973.25           1533         369.00      1578.10
 1125.41        2973.50           1536         254.00      1076.76
 1125.44        2973.75           1539         207.00       871.86
 1125.48        2974.00           1543         168.00       701.85
 1125.51        2974.25           1546         125.00       514.39
 1125.54        2974.50           1549          99.00       401.05
 1125.57        2974.75           1553          75.00       296.43
 1125.60        2975.00           1556          65.00       252.84
 1125.63        2975.25           1559          58.00       222.32
 1125.66        2975.50           1563          55.00       209.24
 1125.69        2975.75           1566          51.00       191.81
 1125.72        2976.00           1569          48.00       178.73
 1125.75        2976.25           1573          47.00       174.37
 1125.78        2976.50           1576          51.00       191.81
 1125.81        2976.75           1579          45.00       165.65
 1125.84        2977.00           1583          46.00       170.01
 1125.87        2977.25           1586          57.00       217.96
 1125.90        2977.50           1590          55.00       209.24
 1125.94        2977.75           1593          54.00       204.88
 1125.97        2978.00           1596          61.00       235.40
 1126.00        2978.25           1600          51.00       191.81
 1126.03        2978.50           1603          60.00       231.04
 1126.06        2978.75           1606          50.00       187.45
 1126.09        2979.00           1610          58.00       222.32
 1126.12        2979.25           1613          52.00       196.17
 1126.15        2979.50           1616          49.00       183.09
 1126.18        2979.75           1620          49.00       183.09
 1126.21        2980.00           1623          52.00       196.17
 1126.24        2980.25           1626          55.00       209.24
 1126.27        2980.50           1630          46.00       170.01
 1126.31        2980.75           1633          51.00       191.81
 1126.34        2981.00           1637          45.00       165.65
 1126.37        2981.25           1640          52.00       196.17
 1126.40        2981.50           1643          45.00       165.65
 1126.43        2981.75           1647          45.00       165.65
 1126.46        2982.00           1650          54.00       204.88
 1126.49        2982.25           1653          49.00       183.09
 1126.52        2982.50           1657          51.00       191.81
 1126.55        2982.75           1660          50.00       187.45
 1126.58        2983.00           1663          55.00       209.24
 1126.62        2983.25           1667          51.00       191.81
 1126.65        2983.50           1670          59.00       226.68
 1126.68        2983.75           1673          51.00       191.81
 1126.71        2984.00           1677          48.00       178.73
HS scan finished at 18:46:55
end
