************************************************************
  HS Scan of (1) Internal mercury lamp
************************************************************
Integration time is 0.2294 seconds per sample
dh260219Manchester 53.47 2.23 2.804185pr1000
************************************************************
Dead Time -------------------------  3E-08 
Number of Cycles Used -------------  4 
Starting Wavelength (Angstroms) ---  2950 
Final Wavelength (Angstoms) -------  2984 
Wavelength Increment (Angstroms) --  .25 
Filter Wheel #1 Position ---------- (1) Ground quartz diffuser (ND=2.32)
Filter Wheel #2 Position ---------- (1) Neutral Density 0.494



************************************************************
HS scan start time = 04:17:25
Dark Count =  5.5 


Time (GMT)  Wavelength (Ang)  Step Number  Raw Counts  Counts/Second

  257.78        2950.00           1222          53.00       207.06
  257.85        2950.25           1226          52.00       202.70
  257.88        2950.50           1229          57.00       224.50
  257.91        2950.75           1232          57.00       224.50
  257.94        2951.00           1236          47.00       180.91
  257.97        2951.25           1239          52.00       202.70
  258.00        2951.50           1242          61.00       241.94
  258.03        2951.75           1246          56.00       220.14
  258.06        2952.00           1249          54.00       211.42
  258.09        2952.25           1252          59.00       233.22
  258.12        2952.50           1256          58.00       228.86
  258.15        2952.75           1259          57.00       224.50
  258.18        2953.00           1262          59.00       233.22
  258.22        2953.25           1266          55.00       215.78
  258.25        2953.50           1269          57.00       224.50
  258.28        2953.75           1272          48.00       185.27
  258.31        2954.00           1276          48.00       185.27
  258.34        2954.25           1279          59.00       233.22
  258.37        2954.50           1282          58.00       228.86
  258.40        2954.75           1286          51.00       198.34
  258.43        2955.00           1289          58.00       228.86
  258.46        2955.25           1292          60.00       237.58
  258.49        2955.50           1296          60.00       237.58
  258.52        2955.75           1299          56.00       220.14
  258.55        2956.00           1302          56.00       220.14
  258.59        2956.25           1306          58.00       228.86
  258.62        2956.50           1309          53.00       207.06
  258.65        2956.75           1312          55.00       215.78
  258.68        2957.00           1316          58.00       228.86
  258.71        2957.25           1319          55.00       215.78
  258.74        2957.50           1322          56.00       220.14
  258.77        2957.75           1326          54.00       211.42
  258.80        2958.00           1329          57.00       224.50
  258.83        2958.25           1332          49.00       189.63
  258.86        2958.50           1336          53.00       207.06
  258.89        2958.75           1339          50.00       193.99
  258.92        2959.00           1342          56.00       220.14
  258.96        2959.25           1346          55.00       215.78
  258.99        2959.50           1349          56.00       220.14
  259.02        2959.75           1352          58.00       228.86
  259.05        2960.00           1356          72.00       289.89
  259.08        2960.25           1359          96.00       394.51
  259.11        2960.50           1362         114.00       472.98
  259.14        2960.75           1366         151.00       634.28
  259.17        2961.00           1369         175.00       738.90
  259.20        2961.25           1372         212.00       900.20
  259.23        2961.50           1376         252.00      1074.58
  259.26        2961.75           1379         331.00      1418.98
  259.30        2962.00           1382         584.00      2521.99
  259.33        2962.25           1386        1710.00      7431.91
  259.36        2962.50           1389        2753.00     11981.20
  259.39        2962.75           1392        3939.00     17155.73
  259.42        2963.00           1396        5434.00     23680.73
  259.45        2963.25           1399        6605.00     28793.39
  259.48        2963.50           1402        7764.00     33855.20
  259.51        2963.75           1406        9360.00     40828.10
  259.54        2964.00           1409       10643.00     46435.61
  259.57        2964.25           1412       12163.00     53081.41
  259.60        2964.50           1416       13813.00     60298.60
  259.64        2964.75           1419       14916.00     65124.93
  259.67        2965.00           1422       15911.00     69479.90
  259.70        2965.25           1426       17781.00     77667.68
  259.73        2965.50           1429       18871.00     82442.10
  259.76        2965.75           1432       20063.00     87664.88
  259.79        2966.00           1436       21664.00     94682.24
  259.82        2966.25           1439       22846.00     99865.02
  259.85        2966.50           1442       23808.00    104084.30
  259.88        2966.75           1446       25092.00    109717.60
  259.91        2967.00           1449       25899.00    113259.10
  259.94        2967.25           1452       25878.00    113166.90
  259.98        2967.50           1456       25876.00    113158.10
  260.01        2967.75           1459       25827.00    112943.10
  260.04        2968.00           1462       25808.00    112859.70
  260.07        2968.25           1466       25553.00    111740.60
  260.10        2968.50           1469       24523.00    107221.00
  260.13        2968.75           1472       23543.00    102921.90
  260.16        2969.00           1476       22057.00     96405.27
  260.19        2969.25           1479       20832.00     91035.12
  260.22        2969.50           1482       19618.00     85714.91
  260.26        2969.75           1486       18042.00     78810.79
  260.29        2970.00           1489       16920.00     73897.30
  260.32        2970.25           1492       15636.00     68276.15
  260.35        2970.50           1496       14048.00     61326.77
  260.38        2970.75           1499       12972.00     56619.64
  260.41        2971.00           1502       11680.00     50969.34
  260.44        2971.25           1506        9987.00     43568.24
  260.47        2971.50           1509        8823.00     38481.63
  260.50        2971.75           1513        7402.00     32274.04
  260.53        2972.00           1516        6165.00     26872.14
  260.57        2972.25           1519        5021.00     21877.92
  260.60        2972.50           1523        3429.00     14930.40
  260.63        2972.75           1526        2289.00      9957.20
  260.66        2973.00           1529        1239.00      5377.94
  260.69        2973.25           1533         488.00      2103.45
  260.72        2973.50           1536         311.00      1331.79
  260.75        2973.75           1539         265.00      1131.25
  260.78        2974.00           1543         247.00      1052.78
  260.81        2974.25           1546         173.00       730.18
  260.84        2974.50           1549         141.00       590.68
  260.87        2974.75           1553          96.00       394.51
  260.90        2975.00           1556          73.00       294.25
  260.93        2975.25           1559          55.00       215.78
  260.97        2975.50           1563          63.00       250.66
  261.00        2975.75           1566          48.00       185.27
  261.03        2976.00           1569          48.00       185.27
  261.06        2976.25           1573          55.00       215.78
  261.09        2976.50           1576          56.00       220.14
  261.12        2976.75           1579          59.00       233.22
  261.15        2977.00           1583          50.00       193.99
  261.18        2977.25           1586          55.00       215.78
  261.21        2977.50           1590          52.00       202.70
  261.24        2977.75           1593          51.00       198.34
  261.27        2978.00           1596          54.00       211.42
  261.30        2978.25           1600          57.00       224.50
  261.34        2978.50           1603          62.00       246.30
  261.37        2978.75           1606          48.00       185.27
  261.40        2979.00           1610          47.00       180.91
  261.43        2979.25           1613          57.00       224.50
  261.46        2979.50           1616          55.00       215.78
  261.49        2979.75           1620          52.00       202.70
  261.52        2980.00           1623          53.00       207.06
  261.55        2980.25           1626          56.00       220.14
  261.58        2980.50           1630          56.00       220.14
  261.61        2980.75           1633          49.00       189.63
  261.64        2981.00           1637          47.00       180.91
  261.67        2981.25           1640          40.00       150.39
  261.70        2981.50           1643          48.00       185.27
  261.73        2981.75           1647          48.00       185.27
  261.77        2982.00           1650          46.00       176.55
  261.80        2982.25           1653          48.00       185.27
  261.83        2982.50           1657          49.00       189.63
  261.86        2982.75           1660          42.00       159.11
  261.89        2983.00           1663          59.00       233.22
  261.92        2983.25           1667          53.00       207.06
  261.95        2983.50           1670          41.00       154.75
  261.98        2983.75           1673          55.00       215.78
  262.01        2984.00           1677          43.00       163.47
HS scan finished at 04:22:14
end
************************************************************
  HS Scan of (1) Internal mercury lamp
************************************************************
Integration time is 0.2294 seconds per sample
dh260219Manchester 53.47 2.23 2.857833pr1000
************************************************************
Dead Time -------------------------  3E-08 
Number of Cycles Used -------------  4 
Starting Wavelength (Angstroms) ---  2950 
Final Wavelength (Angstoms) -------  2984 
Wavelength Increment (Angstroms) --  .25 
Filter Wheel #1 Position ---------- (1) Ground quartz diffuser (ND=2.32)
Filter Wheel #2 Position ---------- (1) Neutral Density 0.494



************************************************************
HS scan start time = 18:42:05
Dark Count =  7 


Time (GMT)  Wavelength (Ang)  Step Number  Raw Counts  Counts/Second

 1122.46        2950.00           1222          58.00       222.32
 1122.53        2950.25           1226          50.00       187.45
 1122.56        2950.50           1229          55.00       209.24
 1122.59        2950.75           1232          59.00       226.68
 1122.62        2951.00           1236          54.00       204.88
 1122.65        2951.25           1239          56.00       213.60
 1122.68        2951.50           1242          53.00       200.52
 1122.71        2951.75           1246          65.00       252.84
 1122.74        2952.00           1249          51.00       191.81
 1122.77        2952.25           1252          57.00       217.96
 1122.80        2952.50           1256          59.00       226.68
 1122.83        2952.75           1259          50.00       187.45
 1122.86        2953.00           1262          50.00       187.45
 1122.89        2953.25           1266          52.00       196.17
 1122.92        2953.50           1269          53.00       200.52
 1122.96        2953.75           1272          55.00       209.24
 1122.99        2954.00           1276          55.00       209.24
 1123.02        2954.25           1279          51.00       191.81
 1123.05        2954.50           1282          55.00       209.24
 1123.08        2954.75           1286          48.00       178.73
 1123.11        2955.00           1289          53.00       200.52
 1123.14        2955.25           1292          52.00       196.17
 1123.17        2955.50           1296          56.00       213.60
 1123.20        2955.75           1299          53.00       200.52
 1123.24        2956.00           1302          55.00       209.24
 1123.27        2956.25           1306          52.00       196.17
 1123.30        2956.50           1309          55.00       209.24
 1123.33        2956.75           1312          51.00       191.81
 1123.36        2957.00           1316          55.00       209.24
 1123.39        2957.25           1319          56.00       213.60
 1123.42        2957.50           1322          57.00       217.96
 1123.45        2957.75           1326          50.00       187.45
 1123.48        2958.00           1329          59.00       226.68
 1123.51        2958.25           1332          47.00       174.37
 1123.54        2958.50           1336          57.00       217.96
 1123.57        2958.75           1339          50.00       187.45
 1123.61        2959.00           1342          53.00       200.52
 1123.64        2959.25           1346          52.00       196.17
 1123.67        2959.50           1349          61.00       235.40
 1123.70        2959.75           1352          73.00       287.71
 1123.73        2960.00           1356         102.00       414.13
 1123.76        2960.25           1359         120.00       492.60
 1123.79        2960.50           1362         137.00       566.71
 1123.82        2960.75           1366         170.00       710.56
 1123.85        2961.00           1369         198.00       832.63
 1123.88        2961.25           1372         233.00       985.21
 1123.91        2961.50           1376         307.00      1307.81
 1123.94        2961.75           1379         391.00      1674.02
 1123.97        2962.00           1382         717.00      3095.32
 1124.00        2962.25           1386        1992.00      8655.25
 1124.04        2962.50           1389        3223.00     14025.08
 1124.07        2962.75           1392        4304.00     18742.01
 1124.10        2963.00           1396        5762.00     25106.09
 1124.13        2963.25           1399        6931.00     30210.46
 1124.16        2963.50           1402        8264.00     36032.83
 1124.19        2963.75           1406        9806.00     42770.63
 1124.22        2964.00           1409       11101.00     48431.26
 1124.25        2964.25           1412       12244.00     53429.08
 1124.28        2964.50           1416       13956.00     60917.68
 1124.32        2964.75           1419       15115.00     65989.28
 1124.35        2965.00           1422       16297.00     71163.10
 1124.38        2965.25           1426       17955.00     78423.18
 1124.41        2965.50           1429       19269.00     84179.19
 1124.44        2965.75           1432       20429.00     89262.26
 1124.47        2966.00           1436       22098.00     96578.46
 1124.50        2966.25           1439       23009.00    100573.30
 1124.53        2966.50           1442       24168.00    105657.00
 1124.57        2966.75           1446       25453.00    111295.10
 1124.60        2967.00           1449       25867.00    113112.00
 1124.63        2967.25           1452       25852.00    113046.20
 1124.66        2967.50           1456       25988.00    113643.10
 1124.69        2967.75           1459       25934.00    113406.10
 1124.72        2968.00           1462       25607.00    111971.00
 1124.75        2968.25           1466       25110.00    109790.00
 1124.78        2968.50           1469       24151.00    105582.40
 1124.81        2968.75           1472       23025.00    100643.40
 1124.85        2969.00           1476       21494.00     93930.41
 1124.88        2969.25           1479       20069.00     87684.59
 1124.91        2969.50           1482       19080.00     83351.15
 1124.94        2969.75           1486       17474.00     76316.65
 1124.97        2970.00           1489       16355.00     71417.02
 1125.00        2970.25           1492       15210.00     66405.05
 1125.03        2970.50           1496       13843.00     60423.30
 1125.06        2970.75           1499       12559.00     54806.69
 1125.09        2971.00           1502       11259.00     49122.03
 1125.13        2971.25           1506        9587.00     41813.54
 1125.16        2971.50           1509        8432.00     36766.77
 1125.19        2971.75           1513        6857.00     29887.29
 1125.22        2972.00           1516        5689.00     24787.39
 1125.25        2972.25           1519        4426.00     19274.44
 1125.28        2972.50           1523        2988.00     12999.84
 1125.31        2972.75           1526        1889.00      8206.03
 1125.34        2973.00           1529         904.00      3910.66
 1125.37        2973.25           1533         356.00      1521.43
 1125.41        2973.50           1536         268.00      1137.79
 1125.44        2973.75           1539         236.00       998.29
 1125.47        2974.00           1543         188.00       789.03
 1125.50        2974.25           1546         143.00       592.86
 1125.53        2974.50           1549         113.00       462.08
 1125.56        2974.75           1553          83.00       331.30
 1125.59        2975.00           1556          62.00       239.76
 1125.62        2975.25           1559          57.00       217.96
 1125.65        2975.50           1563          55.00       209.24
 1125.68        2975.75           1566          47.00       174.37
 1125.72        2976.00           1569          64.00       248.48
 1125.75        2976.25           1573          52.00       196.17
 1125.78        2976.50           1576          51.00       191.81
 1125.81        2976.75           1579          52.00       196.17
 1125.84        2977.00           1583          47.00       174.37
 1125.87        2977.25           1586          53.00       200.52
 1125.90        2977.50           1590          50.00       187.45
 1125.93        2977.75           1593          52.00       196.17
 1125.96        2978.00           1596          56.00       213.60
 1126.00        2978.25           1600          47.00       174.37
 1126.03        2978.50           1603          45.00       165.65
 1126.06        2978.75           1606          58.00       222.32
 1126.09        2979.00           1610          51.00       191.81
 1126.12        2979.25           1613          51.00       191.81
 1126.15        2979.50           1616          57.00       217.96
 1126.18        2979.75           1620          56.00       213.60
 1126.21        2980.00           1623          54.00       204.88
 1126.24        2980.25           1626          45.00       165.65
 1126.27        2980.50           1630          48.00       178.73
 1126.30        2980.75           1633          53.00       200.52
 1126.34        2981.00           1637          55.00       209.24
 1126.37        2981.25           1640          53.00       200.52
 1126.40        2981.50           1643          54.00       204.88
 1126.43        2981.75           1647          49.00       183.09
 1126.46        2982.00           1650          49.00       183.09
 1126.49        2982.25           1653          45.00       165.65
 1126.52        2982.50           1657          45.00       165.65
 1126.55        2982.75           1660          51.00       191.81
 1126.58        2983.00           1663          44.00       161.29
 1126.61        2983.25           1667          54.00       204.88
 1126.65        2983.50           1670          56.00       213.60
 1126.68        2983.75           1673          52.00       196.17
 1126.71        2984.00           1677          49.00       183.09
HS scan finished at 18:46:55
end
