************************************************************
  HS Scan of (1) Internal mercury lamp
************************************************************
Integration time is 0.2294 seconds per sample
dh020317Manchester 53.47 2.23 2.750537pr1000
************************************************************
Dead Time -------------------------  3E-08 
Number of Cycles Used -------------  4 
Starting Wavelength (Angstroms) ---  2950 
Final Wavelength (Angstoms) -------  2984 
Wavelength Increment (Angstroms) --  .25 
Filter Wheel #1 Position ---------- (1) Ground quartz diffuser (ND=2.32)
Filter Wheel #2 Position ---------- (1) Neutral Density 0.494



************************************************************
HS scan start time = 04:03:55
Dark Count =  4.8 


Time (GMT)  Wavelength (Ang)  Step Number  Raw Counts  Counts/Second

  244.28        2950.00           1222          47.00       183.96
  244.35        2950.25           1226          51.00       201.40
  244.38        2950.50           1229          49.00       192.68
  244.41        2950.75           1232          37.00       140.37
  244.44        2951.00           1236          54.00       214.47
  244.47        2951.25           1239          43.00       166.52
  244.50        2951.50           1242          50.00       197.04
  244.53        2951.75           1246          45.00       175.24
  244.56        2952.00           1249          45.00       175.24
  244.59        2952.25           1252          45.00       175.24
  244.62        2952.50           1256          50.00       197.04
  244.66        2952.75           1259          44.00       170.88
  244.69        2953.00           1262          44.00       170.88
  244.72        2953.25           1266          44.00       170.88
  244.75        2953.50           1269          46.00       179.60
  244.78        2953.75           1272          39.00       149.09
  244.81        2954.00           1276          45.00       175.24
  244.84        2954.25           1279          40.00       153.44
  244.87        2954.50           1282          45.00       175.24
  244.90        2954.75           1286          38.00       144.73
  244.93        2955.00           1289          45.00       175.24
  244.96        2955.25           1292          43.00       166.52
  245.00        2955.50           1296          41.00       157.80
  245.03        2955.75           1299          50.00       197.04
  245.06        2956.00           1302          44.00       170.88
  245.09        2956.25           1306          45.00       175.24
  245.12        2956.50           1309          47.00       183.96
  245.15        2956.75           1312          46.00       179.60
  245.18        2957.00           1316          50.00       197.04
  245.21        2957.25           1319          51.00       201.40
  245.24        2957.50           1322          44.00       170.88
  245.27        2957.75           1326          47.00       183.96
  245.30        2958.00           1329          47.00       183.96
  245.34        2958.25           1332          54.00       214.47
  245.37        2958.50           1336          43.00       166.52
  245.40        2958.75           1339          50.00       197.04
  245.43        2959.00           1342          48.00       188.32
  245.46        2959.25           1346          59.00       236.27
  245.49        2959.50           1349          49.00       192.68
  245.52        2959.75           1352          60.00       240.63
  245.55        2960.00           1356          81.00       332.17
  245.58        2960.25           1359         114.00       476.03
  245.61        2960.50           1362         147.00       619.89
  245.64        2960.75           1366         216.00       920.69
  245.67        2961.00           1369         252.00      1077.63
  245.71        2961.25           1372         303.00      1299.96
  245.74        2961.50           1376         384.00      1653.09
  245.77        2961.75           1379         562.00      2429.12
  245.80        2962.00           1382        1101.00      4779.24
  245.83        2962.25           1386        2684.00     11683.26
  245.86        2962.50           1389        4240.00     18472.31
  245.89        2962.75           1392        5870.00     25587.20
  245.92        2963.00           1396        7928.00     34574.64
  245.95        2963.25           1399        9571.00     41753.23
  245.98        2963.50           1402       11354.00     49547.00
  246.01        2963.75           1406       13436.00     58652.37
  246.05        2964.00           1409       15201.00     66375.28
  246.08        2964.25           1412       16976.00     74145.56
  246.11        2964.50           1416       19322.00     84421.03
  246.14        2964.75           1419       21111.00     92261.11
  246.17        2965.00           1422       22704.00     99245.35
  246.20        2965.25           1426       24738.00    108167.40
  246.23        2965.50           1429       26322.00    115118.80
  246.26        2965.75           1432       27965.00    122332.20
  246.29        2966.00           1436       30156.00    131956.40
  246.33        2966.25           1439       31763.00    139018.90
  246.36        2966.50           1442       33090.00    144853.10
  246.39        2966.75           1446       34882.00    152734.90
  246.42        2967.00           1449       35601.00    155898.30
  246.45        2967.25           1452       36028.00    157777.30
  246.48        2967.50           1456       35795.00    156752.00
  246.51        2967.75           1459       35885.00    157148.00
  246.54        2968.00           1462       35633.00    156039.10
  246.57        2968.25           1466       34687.00    151877.00
  246.60        2968.50           1469       33491.00    146616.40
  246.64        2968.75           1472       31866.00    139471.60
  246.67        2969.00           1476       29869.00    130695.40
  246.70        2969.25           1479       28371.00    124115.20
  246.73        2969.50           1482       26728.00    116901.00
  246.76        2969.75           1486       24537.00    107285.50
  246.79        2970.00           1489       23008.00    100578.50
  246.82        2970.25           1492       21316.00     93159.74
  246.85        2970.50           1496       19107.00     83479.07
  246.89        2970.75           1499       17325.00     75673.78
  246.92        2971.00           1502       15728.00     68681.91
  246.95        2971.25           1506       13383.00     58420.53
  246.98        2971.50           1509       11815.00     51562.70
  247.01        2971.75           1513        9732.00     42456.83
  247.04        2972.00           1516        8108.00     35360.95
  247.07        2972.25           1519        6492.00     28303.01
  247.10        2972.50           1523        4394.00     19144.39
  247.13        2972.75           1526        2777.00     12088.95
  247.16        2973.00           1529        1388.00      6030.73
  247.19        2973.25           1533         531.00      2293.97
  247.23        2973.50           1536         369.00      1587.70
  247.26        2973.75           1539         327.00      1404.59
  247.29        2974.00           1543         268.00      1147.38
  247.32        2974.25           1546         206.00       877.09
  247.35        2974.50           1549         166.00       702.72
  247.38        2974.75           1553         101.00       419.36
  247.41        2975.00           1556          91.00       375.77
  247.44        2975.25           1559          65.00       262.43
  247.47        2975.50           1563          55.00       218.83
  247.50        2975.75           1566          47.00       183.96
  247.53        2976.00           1569          47.00       183.96
  247.57        2976.25           1573          52.00       205.76
  247.60        2976.50           1576          46.00       179.60
  247.63        2976.75           1579          52.00       205.76
  247.66        2977.00           1583          45.00       175.24
  247.69        2977.25           1586          42.00       162.16
  247.72        2977.50           1590          40.00       153.44
  247.75        2977.75           1593          44.00       170.88
  247.78        2978.00           1596          40.00       153.44
  247.81        2978.25           1600          39.00       149.09
  247.84        2978.50           1603          46.00       179.60
  247.88        2978.75           1606          41.00       157.80
  247.91        2979.00           1610          42.00       162.16
  247.94        2979.25           1613          48.00       188.32
  247.97        2979.50           1616          38.00       144.73
  248.00        2979.75           1620          49.00       192.68
  248.03        2980.00           1623          43.00       166.52
  248.06        2980.25           1626          53.00       210.11
  248.09        2980.50           1630          50.00       197.04
  248.12        2980.75           1633          53.00       210.11
  248.15        2981.00           1637          47.00       183.96
  248.18        2981.25           1640          47.00       183.96
  248.22        2981.50           1643          40.00       153.44
  248.25        2981.75           1647          45.00       175.24
  248.28        2982.00           1650          50.00       197.04
  248.31        2982.25           1653          43.00       166.52
  248.34        2982.50           1657          54.00       214.47
  248.37        2982.75           1660          44.00       170.88
  248.40        2983.00           1663          41.00       157.80
  248.43        2983.25           1667          46.00       179.60
  248.46        2983.50           1670          42.00       162.16
  248.49        2983.75           1673          52.00       205.76
  248.52        2984.00           1677          50.00       197.04
HS scan finished at 04:08:44
end
************************************************************
  HS Scan of (1) Internal mercury lamp
************************************************************
Integration time is 0.2294 seconds per sample
dh020317Manchester 53.47 2.23 2.804185pr1000
************************************************************
Dead Time -------------------------  3E-08 
Number of Cycles Used -------------  4 
Starting Wavelength (Angstroms) ---  2950 
Final Wavelength (Angstoms) -------  2984 
Wavelength Increment (Angstroms) --  .25 
Filter Wheel #1 Position ---------- (1) Ground quartz diffuser (ND=2.32)
Filter Wheel #2 Position ---------- (1) Neutral Density 0.494



************************************************************
HS scan start time = 18:42:00
Dark Count =  6.1 


Time (GMT)  Wavelength (Ang)  Step Number  Raw Counts  Counts/Second

 1122.38        2950.00           1222          50.00       191.37
 1122.44        2950.25           1226          48.00       182.65
 1122.47        2950.50           1229          44.00       165.21
 1122.50        2950.75           1232          46.00       173.93
 1122.54        2951.00           1236          47.00       178.29
 1122.57        2951.25           1239          48.00       182.65
 1122.60        2951.50           1242          40.00       147.78
 1122.63        2951.75           1246          47.00       178.29
 1122.66        2952.00           1249          43.00       160.86
 1122.69        2952.25           1252          48.00       182.65
 1122.72        2952.50           1256          49.00       187.01
 1122.75        2952.75           1259          48.00       182.65
 1122.78        2953.00           1262          40.00       147.78
 1122.81        2953.25           1266          46.00       173.93
 1122.84        2953.50           1269          49.00       187.01
 1122.88        2953.75           1272          58.00       226.24
 1122.91        2954.00           1276          46.00       173.93
 1122.94        2954.25           1279          43.00       160.86
 1122.97        2954.50           1282          48.00       182.65
 1123.00        2954.75           1286          40.00       147.78
 1123.03        2955.00           1289          45.00       169.57
 1123.06        2955.25           1292          45.00       169.57
 1123.09        2955.50           1296          44.00       165.21
 1123.12        2955.75           1299          48.00       182.65
 1123.15        2956.00           1302          60.00       234.96
 1123.18        2956.25           1306          42.00       156.50
 1123.21        2956.50           1309          43.00       160.86
 1123.24        2956.75           1312          58.00       226.24
 1123.27        2957.00           1316          42.00       156.50
 1123.30        2957.25           1319          44.00       165.21
 1123.34        2957.50           1322          45.00       169.57
 1123.37        2957.75           1326          50.00       191.37
 1123.40        2958.00           1329          57.00       221.88
 1123.43        2958.25           1332          51.00       195.73
 1123.46        2958.50           1336          45.00       169.57
 1123.49        2958.75           1339          46.00       173.93
 1123.52        2959.00           1342          40.00       147.78
 1123.55        2959.25           1346          53.00       204.45
 1123.58        2959.50           1349          61.00       239.32
 1123.61        2959.75           1352          68.00       269.84
 1123.65        2960.00           1356          99.00       404.97
 1123.68        2960.25           1359         142.00       592.43
 1123.71        2960.50           1362         171.00       718.85
 1123.74        2960.75           1366         233.00       989.13
 1123.77        2961.00           1369         280.00      1194.03
 1123.80        2961.25           1372         330.00      1412.00
 1123.83        2961.50           1376         382.00      1638.70
 1123.86        2961.75           1379         562.00      2423.45
 1123.89        2962.00           1382        1050.00      4551.19
 1123.93        2962.25           1386        2585.00     11245.73
 1123.96        2962.50           1389        4119.00     17938.60
 1123.99        2962.75           1392        5648.00     24612.33
 1124.02        2963.00           1396        7799.00     34005.47
 1124.05        2963.25           1399        9341.00     40742.45
 1124.08        2963.50           1402       11037.00     48155.40
 1124.11        2963.75           1406       13186.00     57553.08
 1124.14        2964.00           1409       15043.00     65678.11
 1124.17        2964.25           1412       16958.00     74061.06
 1124.20        2964.50           1416       19286.00     84257.62
 1124.23        2964.75           1419       20992.00     91733.80
 1124.26        2965.00           1422       22391.00     97867.12
 1124.30        2965.25           1426       24619.00    107639.50
 1124.33        2965.50           1429       26226.00    114691.70
 1124.36        2965.75           1432       27935.00    122194.70
 1124.39        2966.00           1436       30248.00    132354.90
 1124.42        2966.25           1439       31580.00    138208.80
 1124.45        2966.50           1442       32888.00    143959.10
 1124.48        2966.75           1446       34605.00    151510.60
 1124.51        2967.00           1449       35635.00    156042.20
 1124.54        2967.25           1452       35641.00    156068.60
 1124.57        2967.50           1456       35531.00    155584.60
 1124.61        2967.75           1459       35450.00    155228.20
 1124.64        2968.00           1462       35363.00    154845.40
 1124.67        2968.25           1466       34518.00    151127.90
 1124.70        2968.50           1469       33568.00    146949.40
 1124.73        2968.75           1472       32125.00    140604.50
 1124.76        2969.00           1476       29969.00    131129.10
 1124.79        2969.25           1479       28414.00    124298.30
 1124.82        2969.50           1482       26785.00    117145.50
 1124.85        2969.75           1486       24391.00    106639.20
 1124.89        2970.00           1489       22845.00     99857.99
 1124.92        2970.25           1492       21046.00     91970.50
 1124.95        2970.50           1496       19097.00     83429.57
 1124.98        2970.75           1499       17405.00     76018.41
 1125.01        2971.00           1502       15550.00     67897.10
 1125.04        2971.25           1506       13283.00     57977.39
 1125.07        2971.50           1509       11812.00     51543.90
 1125.10        2971.75           1513        9684.00     42241.38
 1125.13        2972.00           1516        8138.00     35486.32
 1125.16        2972.25           1519        6493.00     28301.70
 1125.19        2972.50           1523        4461.00     19431.11
 1125.23        2972.75           1526        2976.00     12951.41
 1125.26        2973.00           1529        1579.00      6857.99
 1125.29        2973.25           1533         553.00      2384.22
 1125.32        2973.50           1536         343.00      1468.68
 1125.35        2973.75           1539         266.00      1132.99
 1125.38        2974.00           1543         220.00       932.46
 1125.41        2974.25           1546         162.00       679.61
 1125.44        2974.50           1549         123.00       509.60
 1125.47        2974.75           1553          83.00       335.23
 1125.50        2975.00           1556          66.00       261.12
 1125.53        2975.25           1559          52.00       200.09
 1125.56        2975.50           1563          44.00       165.21
 1125.60        2975.75           1566          44.00       165.21
 1125.63        2976.00           1569          42.00       156.50
 1125.66        2976.25           1573          48.00       182.65
 1125.69        2976.50           1576          48.00       182.65
 1125.72        2976.75           1579          44.00       165.21
 1125.75        2977.00           1583          42.00       156.50
 1125.78        2977.25           1586          46.00       173.93
 1125.81        2977.50           1590          46.00       173.93
 1125.84        2977.75           1593          40.00       147.78
 1125.87        2978.00           1596          58.00       226.24
 1125.90        2978.25           1600          43.00       160.86
 1125.93        2978.50           1603          47.00       178.29
 1125.97        2978.75           1606          52.00       200.09
 1126.00        2979.00           1610          49.00       187.01
 1126.03        2979.25           1613          42.00       156.50
 1126.06        2979.50           1616          38.00       139.06
 1126.09        2979.75           1620          50.00       191.37
 1126.12        2980.00           1623          46.00       173.93
 1126.15        2980.25           1626          52.00       200.09
 1126.18        2980.50           1630          49.00       187.01
 1126.21        2980.75           1633          44.00       165.21
 1126.24        2981.00           1637          52.00       200.09
 1126.27        2981.25           1640          39.00       143.42
 1126.30        2981.50           1643          44.00       165.21
 1126.33        2981.75           1647          50.00       191.37
 1126.37        2982.00           1650          48.00       182.65
 1126.40        2982.25           1653          44.00       165.21
 1126.43        2982.50           1657          51.00       195.73
 1126.46        2982.75           1660          45.00       169.57
 1126.49        2983.00           1663          41.00       152.14
 1126.52        2983.25           1667          41.00       152.14
 1126.55        2983.50           1670          47.00       178.29
 1126.58        2983.75           1673          50.00       191.37
 1126.61        2984.00           1677          39.00       143.42
HS scan finished at 18:46:50
end
