************************************************************
  HS Scan of (1) Internal mercury lamp
************************************************************
Integration time is 0.2294 seconds per sample
dh090318Manchester 53.47 2.23 2.750537pr1000
************************************************************
Dead Time -------------------------  3E-08 
Number of Cycles Used -------------  4 
Starting Wavelength (Angstroms) ---  2950 
Final Wavelength (Angstoms) -------  2984 
Wavelength Increment (Angstroms) --  .25 
Filter Wheel #1 Position ---------- (1) Ground quartz diffuser (ND=2.32)
Filter Wheel #2 Position ---------- (1) Neutral Density 0.494



************************************************************
HS scan start time = 03:43:32
Dark Count =  7.3 


Time (GMT)  Wavelength (Ang)  Step Number  Raw Counts  Counts/Second

  223.90        2950.00           1222          59.00       225.37
  223.96        2950.25           1226          64.00       247.17
  223.99        2950.50           1229          60.00       229.73
  224.02        2950.75           1232          57.00       216.65
  224.05        2951.00           1236          62.00       238.45
  224.09        2951.25           1239          65.00       251.53
  224.12        2951.50           1242          58.00       221.01
  224.15        2951.75           1246          60.00       229.73
  224.18        2952.00           1249          62.00       238.45
  224.21        2952.25           1252          58.00       221.01
  224.24        2952.50           1256          53.00       199.22
  224.27        2952.75           1259          52.00       194.86
  224.30        2953.00           1262          54.00       203.58
  224.33        2953.25           1266          56.00       212.29
  224.36        2953.50           1269          61.00       234.09
  224.39        2953.75           1272          71.00       277.68
  224.42        2954.00           1276          57.00       216.65
  224.45        2954.25           1279          56.00       212.29
  224.49        2954.50           1282          60.00       229.73
  224.52        2954.75           1286          50.00       186.14
  224.55        2955.00           1289          52.00       194.86
  224.58        2955.25           1292          61.00       234.09
  224.61        2955.50           1296          61.00       234.09
  224.64        2955.75           1299          64.00       247.17
  224.67        2956.00           1302          61.00       234.09
  224.70        2956.25           1306          57.00       216.65
  224.73        2956.50           1309          53.00       199.22
  224.76        2956.75           1312          56.00       212.29
  224.79        2957.00           1316          55.00       207.94
  224.82        2957.25           1319          61.00       234.09
  224.85        2957.50           1322          57.00       216.65
  224.89        2957.75           1326          58.00       221.01
  224.92        2958.00           1329          56.00       212.29
  224.95        2958.25           1332          63.00       242.81
  224.98        2958.50           1336          60.00       229.73
  225.01        2958.75           1339          57.00       216.65
  225.04        2959.00           1342          55.00       207.94
  225.07        2959.25           1346          67.00       260.25
  225.10        2959.50           1349          72.00       282.04
  225.13        2959.75           1352          91.00       364.87
  225.16        2960.00           1356         115.00       469.49
  225.19        2960.25           1359         146.00       604.63
  225.23        2960.50           1362         180.00       752.85
  225.26        2960.75           1366         217.00       914.15
  225.29        2961.00           1369         261.00      1105.97
  225.32        2961.25           1372         292.00      1241.11
  225.35        2961.50           1376         352.00      1502.68
  225.38        2961.75           1379         465.00      1995.32
  225.41        2962.00           1382         809.00      3495.14
  225.44        2962.25           1386        2149.00      9338.71
  225.47        2962.50           1389        3464.00     15075.26
  225.50        2962.75           1392        4831.00     21040.74
  225.53        2963.00           1396        6759.00     29458.02
  225.57        2963.25           1399        8361.00     36455.28
  225.60        2963.50           1402        9943.00     43368.07
  225.63        2963.75           1406       11833.00     51630.48
  225.66        2964.00           1409       13245.00     57805.92
  225.69        2964.25           1412       14876.00     64942.01
  225.72        2964.50           1416       16869.00     73666.10
  225.75        2964.75           1419       18244.00     79687.66
  225.78        2965.00           1422       19829.00     86631.57
  225.81        2965.25           1426       21867.00     95564.34
  225.84        2965.50           1429       23529.00    102852.60
  225.88        2965.75           1432       25224.00    110288.90
  225.91        2966.00           1436       26894.00    117618.70
  225.94        2966.25           1439       28344.00    123985.60
  225.97        2966.50           1442       29643.00    129691.50
  226.00        2966.75           1446       31436.00    137570.50
  226.03        2967.00           1449       31717.00    138805.70
  226.06        2967.25           1452       32142.00    140673.90
  226.09        2967.50           1456       32155.00    140731.10
  226.12        2967.75           1459       31871.00    139482.60
  226.16        2968.00           1462       32098.00    140480.50
  226.19        2968.25           1466       31196.00    136515.70
  226.22        2968.50           1469       30227.00    132257.40
  226.25        2968.75           1472       28628.00    125232.90
  226.28        2969.00           1476       26789.00    117157.80
  226.31        2969.25           1479       25265.00    110468.80
  226.34        2969.50           1482       23737.00    103765.00
  226.37        2969.75           1486       21835.00     95424.05
  226.40        2970.00           1489       20340.00     88870.89
  226.43        2970.25           1492       19099.00     83433.07
  226.46        2970.50           1496       17266.00     75404.47
  226.49        2970.75           1499       15810.00     69029.91
  226.53        2971.00           1502       14416.00     62929.07
  226.56        2971.25           1506       12450.00     54328.67
  226.59        2971.50           1509       11022.00     48084.58
  226.62        2971.75           1513        8813.00     38430.07
  226.65        2972.00           1516        7467.00     32550.08
  226.68        2972.25           1519        5947.00     25912.47
  226.71        2972.50           1523        4039.00     17584.25
  226.74        2972.75           1526        2667.00     11598.19
  226.77        2973.00           1529        1411.00      6120.13
  226.81        2973.25           1533         514.00      2208.95
  226.84        2973.50           1536         297.00      1262.91
  226.87        2973.75           1539         246.00      1040.57
  226.90        2974.00           1543         205.00       861.84
  226.93        2974.25           1546         156.00       648.23
  226.96        2974.50           1549         117.00       478.21
  226.99        2974.75           1553          88.00       351.79
  227.02        2975.00           1556          76.00       299.48
  227.05        2975.25           1559          59.00       225.37
  227.08        2975.50           1563          69.00       268.96
  227.11        2975.75           1566          61.00       234.09
  227.14        2976.00           1569          53.00       199.22
  227.17        2976.25           1573          55.00       207.94
  227.21        2976.50           1576          54.00       203.58
  227.24        2976.75           1579          52.00       194.86
  227.27        2977.00           1583          60.00       229.73
  227.30        2977.25           1586          59.00       225.37
  227.33        2977.50           1590          57.00       216.65
  227.36        2977.75           1593          56.00       212.29
  227.39        2978.00           1596          57.00       216.65
  227.42        2978.25           1600          51.00       190.50
  227.45        2978.50           1603          60.00       229.73
  227.48        2978.75           1606          59.00       225.37
  227.51        2979.00           1610          64.00       247.17
  227.55        2979.25           1613          57.00       216.65
  227.58        2979.50           1616          52.00       194.86
  227.61        2979.75           1620          53.00       199.22
  227.64        2980.00           1623          55.00       207.94
  227.67        2980.25           1626          62.00       238.45
  227.70        2980.50           1630          52.00       194.86
  227.73        2980.75           1633          55.00       207.94
  227.76        2981.00           1637          46.00       168.70
  227.79        2981.25           1640          53.00       199.22
  227.82        2981.50           1643          55.00       207.94
  227.85        2981.75           1647          59.00       225.37
  227.88        2982.00           1650          55.00       207.94
  227.92        2982.25           1653          58.00       221.01
  227.95        2982.50           1657          57.00       216.65
  227.98        2982.75           1660          58.00       221.01
  228.01        2983.00           1663          51.00       190.50
  228.04        2983.25           1667          53.00       199.22
  228.07        2983.50           1670          49.00       181.78
  228.10        2983.75           1673          50.00       186.14
  228.13        2984.00           1677          52.00       194.86
HS scan finished at 03:48:21
end
************************************************************
  HS Scan of (1) Internal mercury lamp
************************************************************
Integration time is 0.2294 seconds per sample
dh090318Manchester 53.47 2.23 2.804185pr1000
************************************************************
Dead Time -------------------------  3E-08 
Number of Cycles Used -------------  4 
Starting Wavelength (Angstroms) ---  2950 
Final Wavelength (Angstoms) -------  2984 
Wavelength Increment (Angstroms) --  .25 
Filter Wheel #1 Position ---------- (1) Ground quartz diffuser (ND=2.32)
Filter Wheel #2 Position ---------- (1) Neutral Density 0.494



************************************************************
HS scan start time = 19:12:02
Dark Count =  7.1 


Time (GMT)  Wavelength (Ang)  Step Number  Raw Counts  Counts/Second

 1152.40        2950.00           1222          63.00       243.68
 1152.47        2950.25           1226          53.00       200.09
 1152.50        2950.50           1229          56.00       213.17
 1152.53        2950.75           1232          65.00       252.40
 1152.56        2951.00           1236          60.00       230.60
 1152.59        2951.25           1239          55.00       208.81
 1152.62        2951.50           1242          54.00       204.45
 1152.65        2951.75           1246          56.00       213.17
 1152.68        2952.00           1249          80.00       317.79
 1152.71        2952.25           1252          61.00       234.96
 1152.74        2952.50           1256          60.00       230.60
 1152.78        2952.75           1259          59.00       226.24
 1152.81        2953.00           1262          51.00       191.37
 1152.84        2953.25           1266          59.00       226.24
 1152.87        2953.50           1269          50.00       187.01
 1152.90        2953.75           1272          51.00       191.37
 1152.93        2954.00           1276          70.00       274.20
 1152.96        2954.25           1279          66.00       256.76
 1152.99        2954.50           1282          67.00       261.12
 1153.02        2954.75           1286          62.00       239.32
 1153.05        2955.00           1289          57.00       217.53
 1153.08        2955.25           1292          56.00       213.17
 1153.11        2955.50           1296          61.00       234.96
 1153.14        2955.75           1299          62.00       239.32
 1153.18        2956.00           1302          66.00       256.76
 1153.21        2956.25           1306          64.00       248.04
 1153.24        2956.50           1309          62.00       239.32
 1153.27        2956.75           1312          49.00       182.65
 1153.30        2957.00           1316          63.00       243.68
 1153.33        2957.25           1319          59.00       226.24
 1153.36        2957.50           1322          58.00       221.88
 1153.39        2957.75           1326          55.00       208.81
 1153.42        2958.00           1329          68.00       265.48
 1153.45        2958.25           1332          57.00       217.53
 1153.48        2958.50           1336          61.00       234.96
 1153.51        2958.75           1339          58.00       221.88
 1153.55        2959.00           1342          63.00       243.68
 1153.58        2959.25           1346          70.00       274.20
 1153.61        2959.50           1349          69.00       269.84
 1153.64        2959.75           1352          93.00       374.46
 1153.67        2960.00           1356         107.00       435.49
 1153.70        2960.25           1359         141.00       583.71
 1153.73        2960.50           1362         172.00       718.85
 1153.76        2960.75           1366         206.00       867.07
 1153.79        2961.00           1369         276.00      1172.23
 1153.82        2961.25           1372         310.00      1320.45
 1153.85        2961.50           1376         392.00      1677.94
 1153.89        2961.75           1379         531.00      2283.94
 1153.92        2962.00           1382        1052.00      4555.55
 1153.95        2962.25           1386        2737.00     11904.42
 1153.98        2962.50           1389        4157.00     18100.06
 1154.01        2962.75           1392        5491.00     23922.57
 1154.04        2963.00           1396        7423.00     32358.77
 1154.07        2963.25           1399        8917.00     38885.36
 1154.10        2963.50           1402       10445.00     45563.11
 1154.13        2963.75           1406       12223.00     53336.80
 1154.16        2964.00           1409       13831.00     60370.36
 1154.19        2964.25           1412       15501.00     67678.25
 1154.23        2964.50           1416       17438.00     76158.56
 1154.26        2964.75           1419       19062.00     83271.85
 1154.29        2965.00           1422       20637.00     90173.43
 1154.32        2965.25           1426       22437.00     98064.46
 1154.35        2965.50           1429       23768.00    103901.80
 1154.38        2965.75           1432       25330.00    110754.90
 1154.41        2966.00           1436       27178.00    118866.50
 1154.44        2966.25           1439       28464.00    124513.50
 1154.47        2966.50           1442       29990.00    131216.90
 1154.51        2966.75           1446       31377.00    137312.10
 1154.54        2967.00           1449       31926.00    139725.30
 1154.57        2967.25           1452       32205.00    140951.80
 1154.60        2967.50           1456       32138.00    140657.20
 1154.63        2967.75           1459       32109.00    140529.80
 1154.66        2968.00           1462       31993.00    140019.80
 1154.69        2968.25           1466       31069.00    135958.40
 1154.72        2968.50           1469       29800.00    130382.10
 1154.75        2968.75           1472       28492.00    124636.50
 1154.79        2969.00           1476       26498.00    115881.20
 1154.82        2969.25           1479       25247.00    110390.70
 1154.85        2969.50           1482       23801.00    104046.60
 1154.88        2969.75           1486       21934.00     95858.97
 1154.91        2970.00           1489       20282.00     88617.59
 1154.94        2970.25           1492       18861.00     82391.28
 1154.97        2970.50           1496       16863.00     73640.72
 1155.00        2970.75           1499       15499.00     67669.50
 1155.03        2971.00           1502       13933.00     60816.62
 1155.07        2971.25           1506       12015.00     52427.21
 1155.10        2971.50           1509       10395.00     45344.56
 1155.13        2971.75           1513        8405.00     36648.38
 1155.16        2972.00           1516        6948.00     30284.26
 1155.19        2972.25           1519        5568.00     24258.71
 1155.22        2972.50           1523        3697.00     16092.77
 1155.25        2972.75           1526        2293.00      9967.67
 1155.28        2973.00           1529        1030.00      4459.62
 1155.31        2973.25           1533         428.00      1834.89
 1155.34        2973.50           1536         286.00      1215.82
 1155.38        2973.75           1539         246.00      1041.44
 1155.41        2974.00           1543         223.00       941.18
 1155.44        2974.25           1546         171.00       714.49
 1155.47        2974.50           1549         111.00       452.93
 1155.50        2974.75           1553          88.00       352.66
 1155.53        2975.00           1556          73.00       287.27
 1155.56        2975.25           1559          68.00       265.48
 1155.59        2975.50           1563          57.00       217.53
 1155.62        2975.75           1566          62.00       239.32
 1155.65        2976.00           1569          57.00       217.53
 1155.68        2976.25           1573          52.00       195.73
 1155.71        2976.50           1576          57.00       217.53
 1155.75        2976.75           1579          56.00       213.17
 1155.78        2977.00           1583          73.00       287.27
 1155.81        2977.25           1586          57.00       217.53
 1155.84        2977.50           1590          58.00       221.88
 1155.87        2977.75           1593          58.00       221.88
 1155.90        2978.00           1596          55.00       208.81
 1155.93        2978.25           1600          56.00       213.17
 1155.96        2978.50           1603          60.00       230.60
 1155.99        2978.75           1606          54.00       204.45
 1156.02        2979.00           1610          55.00       208.81
 1156.05        2979.25           1613          56.00       213.17
 1156.09        2979.50           1616          54.00       204.45
 1156.12        2979.75           1620          59.00       226.24
 1156.15        2980.00           1623          65.00       252.40
 1156.18        2980.25           1626          56.00       213.17
 1156.21        2980.50           1630          59.00       226.24
 1156.24        2980.75           1633          62.00       239.32
 1156.27        2981.00           1637          60.00       230.60
 1156.30        2981.25           1640          62.00       239.32
 1156.33        2981.50           1643          47.00       173.93
 1156.37        2981.75           1647          53.00       200.09
 1156.40        2982.00           1650          59.00       226.24
 1156.43        2982.25           1653          54.00       204.45
 1156.46        2982.50           1657          48.00       178.29
 1156.49        2982.75           1660          55.00       208.81
 1156.52        2983.00           1663          49.00       182.65
 1156.55        2983.25           1667          49.00       182.65
 1156.58        2983.50           1670          52.00       195.73
 1156.61        2983.75           1673          52.00       195.73
 1156.64        2984.00           1677          52.00       195.73
HS scan finished at 19:16:52
end
