************************************************************
  HS Scan of (1) Internal mercury lamp
************************************************************
Integration time is 0.2294 seconds per sample
dh100319Manchester 53.47 2.23 2.804185pr1000
************************************************************
Dead Time -------------------------  3E-08 
Number of Cycles Used -------------  4 
Starting Wavelength (Angstroms) ---  2950 
Final Wavelength (Angstoms) -------  2984 
Wavelength Increment (Angstroms) --  .25 
Filter Wheel #1 Position ---------- (1) Ground quartz diffuser (ND=2.32)
Filter Wheel #2 Position ---------- (1) Neutral Density 0.494



************************************************************
HS scan start time = 03:41:13
Dark Count =  6.1 


Time (GMT)  Wavelength (Ang)  Step Number  Raw Counts  Counts/Second

  221.59        2950.00           1222          52.00       200.09
  221.65        2950.25           1226          52.00       200.09
  221.68        2950.50           1229          54.00       208.81
  221.72        2950.75           1232          57.00       221.88
  221.75        2951.00           1236          56.00       217.53
  221.78        2951.25           1239          48.00       182.65
  221.81        2951.50           1242          55.00       213.17
  221.84        2951.75           1246          50.00       191.37
  221.87        2952.00           1249          53.00       204.45
  221.90        2952.25           1252          59.00       230.60
  221.93        2952.50           1256          51.00       195.73
  221.96        2952.75           1259          54.00       208.81
  221.99        2953.00           1262          57.00       221.88
  222.03        2953.25           1266          50.00       191.37
  222.06        2953.50           1269          65.00       256.76
  222.09        2953.75           1272          54.00       208.81
  222.12        2954.00           1276          52.00       200.09
  222.15        2954.25           1279          91.00       370.10
  222.18        2954.50           1282          48.00       182.65
  222.21        2954.75           1286          52.00       200.09
  222.24        2955.00           1289          59.00       230.60
  222.27        2955.25           1292          66.00       261.12
  222.31        2955.50           1296          53.00       204.45
  222.34        2955.75           1299          51.00       195.73
  222.37        2956.00           1302          55.00       213.17
  222.40        2956.25           1306          50.00       191.37
  222.43        2956.50           1309          53.00       204.45
  222.46        2956.75           1312          46.00       173.93
  222.49        2957.00           1316          57.00       221.88
  222.52        2957.25           1319          58.00       226.24
  222.55        2957.50           1322          54.00       208.81
  222.58        2957.75           1326          48.00       182.65
  222.62        2958.00           1329          52.00       200.09
  222.65        2958.25           1332          54.00       208.81
  222.68        2958.50           1336          54.00       208.81
  222.71        2958.75           1339          54.00       208.81
  222.74        2959.00           1342          63.00       248.04
  222.77        2959.25           1346          62.00       243.68
  222.80        2959.50           1349          68.00       269.84
  222.83        2959.75           1352          74.00       295.99
  222.86        2960.00           1356         102.00       418.05
  222.90        2960.25           1359         127.00       527.04
  222.93        2960.50           1362         147.00       614.22
  222.96        2960.75           1366         194.00       819.11
  222.99        2961.00           1369         227.00       962.97
  223.02        2961.25           1372         262.00      1115.56
  223.05        2961.50           1376         342.00      1464.32
  223.08        2961.75           1379         500.00      2153.15
  223.11        2962.00           1382        1127.00      4886.94
  223.14        2962.25           1386        2466.00     10726.64
  223.17        2962.50           1389        3590.00     15630.26
  223.21        2962.75           1392        4895.00     21325.32
  223.24        2963.00           1396        6387.00     27838.85
  223.27        2963.25           1399        7623.00     33236.70
  223.30        2963.50           1402        8923.00     38915.94
  223.33        2963.75           1406       10542.00     45991.49
  223.36        2964.00           1409       11836.00     51648.85
  223.39        2964.25           1412       13156.00     57421.85
  223.42        2964.50           1416       14850.00     64833.48
  223.45        2964.75           1419       15970.00     69735.55
  223.49        2965.00           1422       17244.00     75313.40
  223.52        2965.25           1426       18956.00     82811.85
  223.55        2965.50           1429       19942.00     87132.00
  223.58        2965.75           1432       21193.00     92614.86
  223.61        2966.00           1436       22819.00     99743.97
  223.64        2966.25           1439       23944.00    104678.30
  223.67        2966.50           1442       25067.00    109605.20
  223.70        2966.75           1446       26001.00    113704.10
  223.73        2967.00           1449       26426.00    115569.60
  223.77        2967.25           1452       26248.00    114788.30
  223.80        2967.50           1456       26310.00    115060.40
  223.83        2967.75           1459       26250.00    114797.00
  223.86        2968.00           1462       26324.00    115121.80
  223.89        2968.25           1466       25009.00    109350.70
  223.92        2968.50           1469       23870.00    104353.70
  223.95        2968.75           1472       22792.00     99625.56
  223.98        2969.00           1476       21440.00     93697.62
  224.01        2969.25           1479       20093.00     87793.71
  224.05        2969.50           1482       19002.00     83013.37
  224.08        2969.75           1486       17289.00     75510.45
  224.11        2970.00           1489       16163.00     70580.41
  224.14        2970.25           1492       14740.00     64352.10
  224.17        2970.50           1496       13259.00     57872.41
  224.20        2970.75           1499       11902.00     51937.45
  224.23        2971.00           1502       10647.00     46450.48
  224.26        2971.25           1506        9034.00     39400.95
  224.29        2971.50           1509        7930.00     34577.70
  224.33        2971.75           1513        6326.00     27572.50
  224.36        2972.00           1516        5151.00     22442.74
  224.39        2972.25           1519        3983.00     17345.12
  224.42        2972.50           1523        2451.00     10661.21
  224.45        2972.75           1526        1234.00      5353.52
  224.48        2973.00           1529         588.00      2536.81
  224.51        2973.25           1533         310.00      1324.81
  224.54        2973.50           1536         244.00      1037.09
  224.57        2973.75           1539         221.00       936.82
  224.61        2974.00           1543         180.00       758.08
  224.64        2974.25           1546         147.00       614.22
  224.67        2974.50           1549         101.00       413.69
  224.70        2974.75           1553          72.00       287.27
  224.73        2975.00           1556          68.00       269.84
  224.76        2975.25           1559          57.00       221.88
  224.79        2975.50           1563          51.00       195.73
  224.82        2975.75           1566          59.00       230.60
  224.85        2976.00           1569          57.00       221.88
  224.88        2976.25           1573          55.00       213.17
  224.91        2976.50           1576          57.00       221.88
  224.95        2976.75           1579          56.00       217.53
  224.98        2977.00           1583          51.00       195.73
  225.01        2977.25           1586          44.00       165.21
  225.04        2977.50           1590          51.00       195.73
  225.07        2977.75           1593          52.00       200.09
  225.10        2978.00           1596          47.00       178.29
  225.13        2978.25           1600          49.00       187.01
  225.16        2978.50           1603          48.00       182.65
  225.19        2978.75           1606          50.00       191.37
  225.22        2979.00           1610          56.00       217.53
  225.26        2979.25           1613          53.00       204.45
  225.29        2979.50           1616          55.00       213.17
  225.32        2979.75           1620          53.00       204.45
  225.35        2980.00           1623          52.00       200.09
  225.38        2980.25           1626          57.00       221.88
  225.41        2980.50           1630          53.00       204.45
  225.44        2980.75           1633          53.00       204.45
  225.47        2981.00           1637          58.00       226.24
  225.50        2981.25           1640          54.00       208.81
  225.53        2981.50           1643          56.00       217.53
  225.56        2981.75           1647          53.00       204.45
  225.60        2982.00           1650          50.00       191.37
  225.63        2982.25           1653          53.00       204.45
  225.66        2982.50           1657          49.00       187.01
  225.69        2982.75           1660          62.00       243.68
  225.72        2983.00           1663          49.00       187.01
  225.75        2983.25           1667          45.00       169.57
  225.78        2983.50           1670          45.00       169.57
  225.81        2983.75           1673          43.00       160.86
  225.85        2984.00           1677          57.00       221.88
HS scan finished at 03:46:04
end
************************************************************
  HS Scan of (1) Internal mercury lamp
************************************************************
Integration time is 0.2294 seconds per sample
dh100319Manchester 53.47 2.23 2.804185pr1000
************************************************************
Dead Time -------------------------  3E-08 
Number of Cycles Used -------------  4 
Starting Wavelength (Angstroms) ---  2950 
Final Wavelength (Angstoms) -------  2984 
Wavelength Increment (Angstroms) --  .25 
Filter Wheel #1 Position ---------- (1) Ground quartz diffuser (ND=2.32)
Filter Wheel #2 Position ---------- (1) Neutral Density 0.494



************************************************************
HS scan start time = 19:12:12
Dark Count =  5.1 


Time (GMT)  Wavelength (Ang)  Step Number  Raw Counts  Counts/Second

 1152.58        2950.00           1222          50.00       195.73
 1152.64        2950.25           1226          53.00       208.81
 1152.67        2950.50           1229          46.00       178.29
 1152.70        2950.75           1232          57.00       226.24
 1152.73        2951.00           1236          54.00       213.17
 1152.77        2951.25           1239          50.00       195.73
 1152.80        2951.50           1242          57.00       226.24
 1152.83        2951.75           1246          50.00       195.73
 1152.86        2952.00           1249          55.00       217.53
 1152.89        2952.25           1252          52.00       204.45
 1152.92        2952.50           1256          51.00       200.09
 1152.95        2952.75           1259          57.00       226.24
 1152.98        2953.00           1262          54.00       213.17
 1153.01        2953.25           1266          59.00       234.96
 1153.04        2953.50           1269          54.00       213.17
 1153.07        2953.75           1272          60.00       239.32
 1153.10        2954.00           1276          69.00       278.56
 1153.13        2954.25           1279          52.00       204.45
 1153.16        2954.50           1282          52.00       204.45
 1153.20        2954.75           1286          54.00       213.17
 1153.23        2955.00           1289          60.00       239.32
 1153.26        2955.25           1292          57.00       226.24
 1153.29        2955.50           1296          62.00       248.04
 1153.32        2955.75           1299          50.00       195.73
 1153.35        2956.00           1302          53.00       208.81
 1153.38        2956.25           1306          60.00       239.32
 1153.41        2956.50           1309          56.00       221.88
 1153.44        2956.75           1312          56.00       221.88
 1153.47        2957.00           1316          49.00       191.37
 1153.50        2957.25           1319          65.00       261.12
 1153.53        2957.50           1322          64.00       256.76
 1153.57        2957.75           1326          57.00       226.24
 1153.60        2958.00           1329          55.00       217.53
 1153.63        2958.25           1332          55.00       217.53
 1153.66        2958.50           1336          55.00       217.53
 1153.69        2958.75           1339          55.00       217.53
 1153.72        2959.00           1342          58.00       230.60
 1153.75        2959.25           1346          57.00       226.24
 1153.78        2959.50           1349          58.00       230.60
 1153.81        2959.75           1352          57.00       226.24
 1153.84        2960.00           1356          80.00       326.51
 1153.88        2960.25           1359         101.00       418.05
 1153.91        2960.50           1362         125.00       522.68
 1153.94        2960.75           1366         153.00       644.74
 1153.97        2961.00           1369         206.00       875.79
 1154.00        2961.25           1372         234.00       997.85
 1154.03        2961.50           1376         315.00      1350.97
 1154.06        2961.75           1379         531.00      2292.66
 1154.09        2962.00           1382        1259.00      5466.90
 1154.12        2962.25           1386        2683.00     11677.59
 1154.16        2962.50           1389        3779.00     16459.30
 1154.19        2962.75           1392        5004.00     21805.45
 1154.22        2963.00           1396        6547.00     28541.87
 1154.25        2963.25           1399        7595.00     33118.77
 1154.28        2963.50           1402        8954.00     39055.76
 1154.31        2963.75           1406       10600.00     46249.40
 1154.34        2964.00           1409       11789.00     51447.70
 1154.37        2964.25           1412       13074.00     57067.55
 1154.40        2964.50           1416       14695.00     64159.56
 1154.44        2964.75           1419       15894.00     69407.23
 1154.47        2965.00           1422       17182.00     75046.28
 1154.50        2965.25           1426       18852.00     82360.61
 1154.53        2965.50           1429       20219.00     88350.27
 1154.56        2965.75           1432       21164.00     92492.12
 1154.59        2966.00           1436       22822.00     99761.51
 1154.62        2966.25           1439       23916.00    104559.80
 1154.65        2966.50           1442       24960.00    109140.10
 1154.69        2966.75           1446       25841.00    113006.30
 1154.72        2967.00           1449       26297.00    115007.70
 1154.75        2967.25           1452       26212.00    114634.60
 1154.78        2967.50           1456       26218.00    114661.00
 1154.81        2967.75           1459       26140.00    114318.60
 1154.84        2968.00           1462       25849.00    113041.40
 1154.87        2968.25           1466       25084.00    109684.20
 1154.90        2968.50           1469       23947.00    104695.80
 1154.93        2968.75           1472       22927.00    100222.00
 1154.97        2969.00           1476       21376.00     93421.44
 1155.00        2969.25           1479       20303.00     88718.38
 1155.03        2969.50           1482       19049.00     83223.66
 1155.06        2969.75           1486       17387.00     75943.98
 1155.09        2970.00           1489       16305.00     71206.44
 1155.12        2970.25           1492       15154.00     66168.27
 1155.15        2970.50           1496       13494.00     58904.79
 1155.18        2970.75           1499       12122.00     52903.87
 1155.21        2971.00           1502       10924.00     47665.76
 1155.25        2971.25           1506        9268.00     40427.82
 1155.28        2971.50           1509        8098.00     35315.95
 1155.31        2971.75           1513        6474.00     28223.10
 1155.34        2972.00           1516        5295.00     23075.69
 1155.37        2972.25           1519        4118.00     17938.60
 1155.40        2972.50           1523        2577.00     11215.19
 1155.43        2972.75           1526        1458.00      6334.68
 1155.46        2973.00           1529         713.00      3086.16
 1155.49        2973.25           1533         338.00      1451.24
 1155.52        2973.50           1536         271.00      1159.15
 1155.55        2973.75           1539         239.00      1019.65
 1155.58        2974.00           1543         211.00       897.58
 1155.62        2974.25           1546         152.00       640.38
 1155.65        2974.50           1549         126.00       527.04
 1155.68        2974.75           1553          89.00       365.74
 1155.71        2975.00           1556          66.00       265.48
 1155.74        2975.25           1559          59.00       234.96
 1155.77        2975.50           1563          56.00       221.88
 1155.80        2975.75           1566          63.00       252.40
 1155.83        2976.00           1569          44.00       169.57
 1155.86        2976.25           1573          53.00       208.81
 1155.89        2976.50           1576          56.00       221.88
 1155.93        2976.75           1579          52.00       204.45
 1155.96        2977.00           1583          48.00       187.01
 1155.99        2977.25           1586          60.00       239.32
 1156.02        2977.50           1590          54.00       213.17
 1156.05        2977.75           1593          58.00       230.60
 1156.08        2978.00           1596          50.00       195.73
 1156.11        2978.25           1600          61.00       243.68
 1156.14        2978.50           1603          49.00       191.37
 1156.17        2978.75           1606          50.00       195.73
 1156.20        2979.00           1610          52.00       204.45
 1156.23        2979.25           1613          46.00       178.29
 1156.27        2979.50           1616          61.00       243.68
 1156.30        2979.75           1620          50.00       195.73
 1156.33        2980.00           1623          51.00       200.09
 1156.36        2980.25           1626          49.00       191.37
 1156.39        2980.50           1630          51.00       200.09
 1156.42        2980.75           1633          52.00       204.45
 1156.45        2981.00           1637          53.00       208.81
 1156.48        2981.25           1640          49.00       191.37
 1156.51        2981.50           1643          49.00       191.37
 1156.54        2981.75           1647          47.00       182.65
 1156.57        2982.00           1650          46.00       178.29
 1156.60        2982.25           1653          52.00       204.45
 1156.64        2982.50           1657          51.00       200.09
 1156.67        2982.75           1660          47.00       182.65
 1156.70        2983.00           1663          49.00       191.37
 1156.73        2983.25           1667          46.00       178.29
 1156.76        2983.50           1670          42.00       160.86
 1156.79        2983.75           1673          50.00       195.73
 1156.82        2984.00           1677          52.00       204.45
HS scan finished at 19:17:02
end
