************************************************************
  HS Scan of (1) Internal mercury lamp
************************************************************
Integration time is 0.2294 seconds per sample
dh070319Manchester 53.47 2.23 2.804185pr1000
************************************************************
Dead Time -------------------------  3E-08 
Number of Cycles Used -------------  4 
Starting Wavelength (Angstroms) ---  2950 
Final Wavelength (Angstoms) -------  2984 
Wavelength Increment (Angstroms) --  .25 
Filter Wheel #1 Position ---------- (1) Ground quartz diffuser (ND=2.32)
Filter Wheel #2 Position ---------- (1) Neutral Density 0.494



************************************************************
HS scan start time = 03:50:41
Dark Count =  7.3 


Time (GMT)  Wavelength (Ang)  Step Number  Raw Counts  Counts/Second

  231.05        2950.00           1222          50.00       186.14
  231.12        2950.25           1226          50.00       186.14
  231.15        2950.50           1229          56.00       212.29
  231.18        2950.75           1232          58.00       221.01
  231.21        2951.00           1236          68.00       264.61
  231.24        2951.25           1239          56.00       212.29
  231.28        2951.50           1242          57.00       216.65
  231.31        2951.75           1246          56.00       212.29
  231.34        2952.00           1249          57.00       216.65
  231.37        2952.25           1252          54.00       203.58
  231.40        2952.50           1256          52.00       194.86
  231.43        2952.75           1259          47.00       173.06
  231.46        2953.00           1262          52.00       194.86
  231.49        2953.25           1266          64.00       247.17
  231.52        2953.50           1269          55.00       207.94
  231.55        2953.75           1272          50.00       186.14
  231.59        2954.00           1276          53.00       199.22
  231.62        2954.25           1279          57.00       216.65
  231.65        2954.50           1282          52.00       194.86
  231.68        2954.75           1286          55.00       207.94
  231.71        2955.00           1289          51.00       190.50
  231.74        2955.25           1292          53.00       199.22
  231.77        2955.50           1296          46.00       168.70
  231.80        2955.75           1299          61.00       234.09
  231.83        2956.00           1302          57.00       216.65
  231.86        2956.25           1306          58.00       221.01
  231.89        2956.50           1309          56.00       212.29
  231.93        2956.75           1312          61.00       234.09
  231.96        2957.00           1316          56.00       212.29
  231.99        2957.25           1319          52.00       194.86
  232.02        2957.50           1322          50.00       186.14
  232.05        2957.75           1326          60.00       229.73
  232.08        2958.00           1329          49.00       181.78
  232.11        2958.25           1332          59.00       225.37
  232.14        2958.50           1336          56.00       212.29
  232.17        2958.75           1339          48.00       177.42
  232.20        2959.00           1342          55.00       207.94
  232.24        2959.25           1346          56.00       212.29
  232.27        2959.50           1349          55.00       207.94
  232.30        2959.75           1352          68.00       264.61
  232.33        2960.00           1356          84.00       334.35
  232.36        2960.25           1359         109.00       443.34
  232.39        2960.50           1362         134.00       552.32
  232.42        2960.75           1366         164.00       683.10
  232.45        2961.00           1369         204.00       857.48
  232.48        2961.25           1372         253.00      1071.09
  232.51        2961.50           1376         292.00      1241.11
  232.54        2961.75           1379         374.00      1598.59
  232.58        2962.00           1382         644.00      2775.73
  232.61        2962.25           1386        1718.00      7458.95
  232.64        2962.50           1389        2853.00     12409.59
  232.67        2962.75           1392        4133.00     17994.46
  232.70        2963.00           1396        5628.00     24519.78
  232.73        2963.25           1399        6962.00     30344.53
  232.76        2963.50           1402        8210.00     35795.61
  232.79        2963.75           1406        9809.00     42782.42
  232.82        2964.00           1409       11191.00     48823.43
  232.86        2964.25           1412       12324.00     53777.63
  232.89        2964.50           1416       14139.00     61717.05
  232.92        2964.75           1419       15420.00     67322.85
  232.95        2965.00           1422       16716.00     72996.21
  232.98        2965.25           1426       18383.00     80296.51
  233.01        2965.50           1429       19512.00     85242.55
  233.04        2965.75           1432       20590.00     89966.55
  233.07        2966.00           1436       22324.00     97568.09
  233.10        2966.25           1439       23257.00    101659.60
  233.14        2966.50           1442       24531.00    107248.20
  233.17        2966.75           1446       26079.00    114041.20
  233.20        2967.00           1449       26394.00    115423.80
  233.23        2967.25           1452       26476.00    115783.80
  233.26        2967.50           1456       26494.00    115862.80
  233.29        2967.75           1459       26411.00    115498.50
  233.32        2968.00           1462       26514.00    115950.60
  233.35        2968.25           1466       25955.00    113497.00
  233.38        2968.50           1469       25176.00    110078.30
  233.42        2968.75           1472       24102.00    105366.10
  233.45        2969.00           1476       22449.00     98116.19
  233.48        2969.25           1479       21223.00     92741.11
  233.51        2969.50           1482       19915.00     87008.42
  233.54        2969.75           1486       18381.00     80287.75
  233.57        2970.00           1489       17094.00     74651.31
  233.60        2970.25           1492       16000.00     69861.61
  233.63        2970.50           1496       14348.00     62631.53
  233.66        2970.75           1499       13134.00     57320.38
  233.69        2971.00           1502       11844.00     51678.58
  233.73        2971.25           1506       10395.00     45343.69
  233.76        2971.50           1509        9080.00     39596.70
  233.79        2971.75           1513        7545.00     32890.77
  233.82        2972.00           1516        6318.00     27532.33
  233.85        2972.25           1519        5110.00     22258.54
  233.88        2972.50           1523        3499.00     15227.97
  233.91        2972.75           1526        2347.00     10202.34
  233.94        2973.00           1529        1248.00      5409.33
  233.97        2973.25           1533         460.00      1973.53
  234.01        2973.50           1536         297.00      1262.91
  234.04        2973.75           1539         263.00      1114.68
  234.07        2974.00           1543         208.00       874.91
  234.10        2974.25           1546         172.00       717.98
  234.13        2974.50           1549         136.00       561.04
  234.16        2974.75           1553          77.00       303.84
  234.19        2975.00           1556          70.00       273.32
  234.22        2975.25           1559          56.00       212.29
  234.25        2975.50           1563          56.00       212.29
  234.29        2975.75           1566          56.00       212.29
  234.32        2976.00           1569          44.00       159.98
  234.35        2976.25           1573          50.00       186.14
  234.38        2976.50           1576          54.00       203.58
  234.41        2976.75           1579          51.00       190.50
  234.44        2977.00           1583          47.00       173.06
  234.47        2977.25           1586          59.00       225.37
  234.50        2977.50           1590          50.00       186.14
  234.53        2977.75           1593          55.00       207.94
  234.56        2978.00           1596          53.00       199.22
  234.60        2978.25           1600          50.00       186.14
  234.63        2978.50           1603          52.00       194.86
  234.66        2978.75           1606          44.00       159.98
  234.69        2979.00           1610          52.00       194.86
  234.72        2979.25           1613          56.00       212.29
  234.75        2979.50           1616          58.00       221.01
  234.78        2979.75           1620          54.00       203.58
  234.81        2980.00           1623          52.00       194.86
  234.84        2980.25           1626          49.00       181.78
  234.88        2980.50           1630          48.00       177.42
  234.91        2980.75           1633          51.00       190.50
  234.94        2981.00           1637          46.00       168.70
  234.97        2981.25           1640          51.00       190.50
  235.00        2981.50           1643          46.00       168.70
  235.03        2981.75           1647          49.00       181.78
  235.06        2982.00           1650          51.00       190.50
  235.09        2982.25           1653          53.00       199.22
  235.12        2982.50           1657          53.00       199.22
  235.15        2982.75           1660          46.00       168.70
  235.18        2983.00           1663          54.00       203.58
  235.21        2983.25           1667          51.00       190.50
  235.24        2983.50           1670          47.00       173.06
  235.27        2983.75           1673          43.00       155.62
  235.31        2984.00           1677          50.00       186.14
HS scan finished at 03:55:31
end
************************************************************
  HS Scan of (1) Internal mercury lamp
************************************************************
Integration time is 0.2294 seconds per sample
dh070319Manchester 53.47 2.23 2.804185pr1000
************************************************************
Dead Time -------------------------  3E-08 
Number of Cycles Used -------------  4 
Starting Wavelength (Angstroms) ---  2950 
Final Wavelength (Angstoms) -------  2984 
Wavelength Increment (Angstroms) --  .25 
Filter Wheel #1 Position ---------- (1) Ground quartz diffuser (ND=2.32)
Filter Wheel #2 Position ---------- (1) Neutral Density 0.494



************************************************************
HS scan start time = 19:12:06
Dark Count =  4.9 


Time (GMT)  Wavelength (Ang)  Step Number  Raw Counts  Counts/Second

 1152.48        2950.00           1222          55.00       218.40
 1152.54        2950.25           1226          56.00       222.76
 1152.57        2950.50           1229          55.00       218.40
 1152.60        2950.75           1232          52.00       205.32
 1152.63        2951.00           1236          60.00       240.19
 1152.66        2951.25           1239          61.00       244.55
 1152.70        2951.50           1242          58.00       231.48
 1152.73        2951.75           1246          50.00       196.60
 1152.76        2952.00           1249          59.00       235.83
 1152.79        2952.25           1252          56.00       222.76
 1152.82        2952.50           1256          60.00       240.19
 1152.85        2952.75           1259          52.00       205.32
 1152.88        2953.00           1262          51.00       200.96
 1152.91        2953.25           1266          61.00       244.55
 1152.94        2953.50           1269          57.00       227.12
 1152.97        2953.75           1272          62.00       248.91
 1153.00        2954.00           1276          52.00       205.32
 1153.03        2954.25           1279          57.00       227.12
 1153.07        2954.50           1282          57.00       227.12
 1153.10        2954.75           1286          58.00       231.48
 1153.13        2955.00           1289          53.00       209.68
 1153.16        2955.25           1292          49.00       192.24
 1153.19        2955.50           1296          62.00       248.91
 1153.22        2955.75           1299          56.00       222.76
 1153.25        2956.00           1302          53.00       209.68
 1153.28        2956.25           1306          55.00       218.40
 1153.31        2956.50           1309          51.00       200.96
 1153.34        2956.75           1312          50.00       196.60
 1153.37        2957.00           1316          49.00       192.24
 1153.40        2957.25           1319          59.00       235.83
 1153.43        2957.50           1322          49.00       192.24
 1153.46        2957.75           1326          49.00       192.24
 1153.50        2958.00           1329          53.00       209.68
 1153.53        2958.25           1332          55.00       218.40
 1153.56        2958.50           1336          53.00       209.68
 1153.59        2958.75           1339          53.00       209.68
 1153.62        2959.00           1342          58.00       231.48
 1153.65        2959.25           1346          59.00       235.83
 1153.68        2959.50           1349          68.00       275.07
 1153.71        2959.75           1352          70.00       283.79
 1153.74        2960.00           1356          91.00       375.33
 1153.77        2960.25           1359         120.00       501.75
 1153.80        2960.50           1362         134.00       562.78
 1153.83        2960.75           1366         187.00       793.83
 1153.87        2961.00           1369         216.00       920.25
 1153.90        2961.25           1372         248.00      1059.75
 1153.93        2961.50           1376         318.00      1364.92
 1153.96        2961.75           1379         383.00      1648.29
 1153.99        2962.00           1382         661.00      2860.32
 1154.02        2962.25           1386        1857.00      8075.63
 1154.05        2962.50           1389        3009.00     13100.62
 1154.08        2962.75           1392        4211.00     18345.32
 1154.11        2963.00           1396        5708.00     24879.51
 1154.14        2963.25           1399        7000.00     30520.96
 1154.18        2963.50           1402        8271.00     36072.58
 1154.21        2963.75           1406        9974.00     43514.05
 1154.24        2964.00           1409       11207.00     48903.87
 1154.27        2964.25           1412       12604.00     55012.69
 1154.30        2964.50           1416       14321.00     62523.88
 1154.33        2964.75           1419       15399.00     67241.44
 1154.36        2965.00           1422       16638.00     72665.21
 1154.39        2965.25           1426       18407.00     80412.15
 1154.42        2965.50           1429       19604.00     85656.19
 1154.45        2965.75           1432       20639.00     90191.83
 1154.49        2966.00           1436       22217.00     97109.43
 1154.52        2966.25           1439       23514.00    102797.40
 1154.55        2966.50           1442       24491.00    107083.20
 1154.58        2966.75           1446       25906.00    113292.40
 1154.61        2967.00           1449       26217.00    114657.50
 1154.64        2967.25           1452       26405.00    115482.70
 1154.67        2967.50           1456       26352.00    115250.00
 1154.70        2967.75           1459       26348.00    115232.50
 1154.73        2968.00           1462       26250.00    114802.30
 1154.76        2968.25           1466       25603.00    111962.60
 1154.80        2968.50           1469       24591.00    107522.00
 1154.83        2968.75           1472       23515.00    102801.70
 1154.86        2969.00           1476       21880.00     95631.86
 1154.89        2969.25           1479       20628.00     90143.62
 1154.92        2969.50           1482       19341.00     84503.84
 1154.95        2969.75           1486       17962.00     78463.03
 1154.98        2970.00           1489       16750.00     73155.58
 1155.01        2970.25           1492       15560.00     67946.12
 1155.05        2970.50           1496       13857.00     60493.74
 1155.08        2970.75           1499       12732.00     55572.53
 1155.11        2971.00           1502       11510.00     50228.64
 1155.14        2971.25           1506        9895.00     43168.78
 1155.17        2971.50           1509        8690.00     37903.15
 1155.20        2971.75           1513        7146.00     31158.58
 1155.23        2972.00           1516        5850.00     25499.45
 1155.26        2972.25           1519        4667.00     20335.42
 1155.29        2972.50           1523        3250.00     14152.04
 1155.32        2972.75           1526        2076.00      9030.78
 1155.36        2973.00           1529        1001.00      4342.76
 1155.39        2973.25           1533         395.00      1700.61
 1155.42        2973.50           1536         278.00      1190.54
 1155.45        2973.75           1539         228.00       972.57
 1155.48        2974.00           1543         201.00       854.86
 1155.51        2974.25           1546         149.00       628.17
 1155.54        2974.50           1549         105.00       436.36
 1155.57        2974.75           1553          83.00       340.46
 1155.60        2975.00           1556          67.00       270.71
 1155.63        2975.25           1559          57.00       227.12
 1155.66        2975.50           1563          54.00       214.04
 1155.70        2975.75           1566          51.00       200.96
 1155.73        2976.00           1569          58.00       231.48
 1155.76        2976.25           1573          48.00       187.88
 1155.79        2976.50           1576          48.00       187.88
 1155.82        2976.75           1579          58.00       231.48
 1155.85        2977.00           1583          52.00       205.32
 1155.88        2977.25           1586          53.00       209.68
 1155.91        2977.50           1590          62.00       248.91
 1155.94        2977.75           1593          45.00       174.80
 1155.97        2978.00           1596          55.00       218.40
 1156.00        2978.25           1600          51.00       200.96
 1156.03        2978.50           1603          45.00       174.80
 1156.07        2978.75           1606          45.00       174.80
 1156.10        2979.00           1610          61.00       244.55
 1156.13        2979.25           1613          51.00       200.96
 1156.16        2979.50           1616          56.00       222.76
 1156.19        2979.75           1620          45.00       174.80
 1156.22        2980.00           1623          49.00       192.24
 1156.25        2980.25           1626          55.00       218.40
 1156.28        2980.50           1630          53.00       209.68
 1156.31        2980.75           1633          55.00       218.40
 1156.35        2981.00           1637          54.00       214.04
 1156.38        2981.25           1640          49.00       192.24
 1156.41        2981.50           1643          46.00       179.16
 1156.44        2981.75           1647          52.00       205.32
 1156.47        2982.00           1650          53.00       209.68
 1156.50        2982.25           1653          49.00       192.24
 1156.53        2982.50           1657          48.00       187.88
 1156.56        2982.75           1660          56.00       222.76
 1156.59        2983.00           1663          47.00       183.52
 1156.62        2983.25           1667          46.00       179.16
 1156.66        2983.50           1670          48.00       187.88
 1156.69        2983.75           1673          47.00       183.52
 1156.72        2984.00           1677          45.00       174.80
HS scan finished at 19:16:56
end
