************************************************************
  HS Scan of (1) Internal mercury lamp
************************************************************
Integration time is 0.2294 seconds per sample
dh010319Manchester 53.47 2.23 2.804185pr1000
************************************************************
Dead Time -------------------------  3E-08 
Number of Cycles Used -------------  4 
Starting Wavelength (Angstroms) ---  2950 
Final Wavelength (Angstoms) -------  2984 
Wavelength Increment (Angstroms) --  .25 
Filter Wheel #1 Position ---------- (1) Ground quartz diffuser (ND=2.32)
Filter Wheel #2 Position ---------- (1) Neutral Density 0.494



************************************************************
HS scan start time = 04:08:08
Dark Count =  5.4 


Time (GMT)  Wavelength (Ang)  Step Number  Raw Counts  Counts/Second

  248.50        2950.00           1222          54.00       211.86
  248.57        2950.25           1226          57.00       224.94
  248.60        2950.50           1229          51.00       198.78
  248.63        2950.75           1232          53.00       207.50
  248.66        2951.00           1236          60.00       238.01
  248.69        2951.25           1239          54.00       211.86
  248.72        2951.50           1242          55.00       216.22
  248.76        2951.75           1246          53.00       207.50
  248.79        2952.00           1249          70.00       281.61
  248.82        2952.25           1252          46.00       176.98
  248.85        2952.50           1256          58.00       229.30
  248.88        2952.75           1259          49.00       190.06
  248.91        2953.00           1262          54.00       211.86
  248.94        2953.25           1266          58.00       229.30
  248.97        2953.50           1269          54.00       211.86
  249.00        2953.75           1272          50.00       194.42
  249.03        2954.00           1276          60.00       238.01
  249.07        2954.25           1279          53.00       207.50
  249.10        2954.50           1282          58.00       229.30
  249.13        2954.75           1286          60.00       238.01
  249.16        2955.00           1289          58.00       229.30
  249.19        2955.25           1292          55.00       216.22
  249.22        2955.50           1296          51.00       198.78
  249.25        2955.75           1299          55.00       216.22
  249.28        2956.00           1302          52.00       203.14
  249.31        2956.25           1306          59.00       233.65
  249.34        2956.50           1309          53.00       207.50
  249.37        2956.75           1312          61.00       242.37
  249.40        2957.00           1316          56.00       220.58
  249.43        2957.25           1319          64.00       255.45
  249.47        2957.50           1322          52.00       203.14
  249.50        2957.75           1326          56.00       220.58
  249.53        2958.00           1329          59.00       233.65
  249.56        2958.25           1332          55.00       216.22
  249.59        2958.50           1336          54.00       211.86
  249.62        2958.75           1339          54.00       211.86
  249.65        2959.00           1342          50.00       194.42
  249.68        2959.25           1346          56.00       220.58
  249.71        2959.50           1349          86.00       351.36
  249.74        2959.75           1352          68.00       272.89
  249.77        2960.00           1356          85.00       347.00
  249.80        2960.25           1359         111.00       460.34
  249.83        2960.50           1362         172.00       726.26
  249.87        2960.75           1366         189.00       800.37
  249.90        2961.00           1369         201.00       852.68
  249.93        2961.25           1372         239.00      1018.34
  249.96        2961.50           1376         301.00      1288.63
  249.99        2961.75           1379         416.00      1789.98
  250.02        2962.00           1382         862.00      3734.51
  250.05        2962.25           1386        2099.00      9128.92
  250.08        2962.50           1389        3343.00     14555.61
  250.11        2962.75           1392        4437.00     19329.43
  250.14        2963.00           1396        6058.00     26405.39
  250.18        2963.25           1399        7179.00     31300.52
  250.21        2963.50           1402        8296.00     36179.62
  250.24        2963.75           1406        9935.00     43341.41
  250.27        2964.00           1409       11175.00     48761.78
  250.30        2964.25           1412       12418.00     54197.03
  250.33        2964.50           1416       14110.00     61598.47
  250.36        2964.75           1419       15219.00     66451.44
  250.39        2965.00           1422       16501.00     72063.21
  250.42        2965.25           1426       18250.00     79722.27
  250.45        2965.50           1429       19424.00     84865.31
  250.49        2965.75           1432       20523.00     89681.24
  250.52        2966.00           1436       22207.00     97063.39
  250.55        2966.25           1439       23413.00    102352.20
  250.58        2966.50           1442       24453.00    106914.30
  250.61        2966.75           1446       25631.00    112083.30
  250.64        2967.00           1449       25879.00    113171.70
  250.67        2967.25           1452       26051.00    113926.70
  250.70        2967.50           1456       25936.00    113421.90
  250.73        2967.75           1459       25928.00    113386.80
  250.77        2968.00           1462       25780.00    112737.20
  250.80        2968.25           1466       25236.00    110349.90
  250.83        2968.50           1469       24128.00    105488.50
  250.86        2968.75           1472       23038.00    100707.50
  250.89        2969.00           1476       21716.00     94910.66
  250.92        2969.25           1479       20461.00     89409.51
  250.95        2969.50           1482       19213.00     83940.84
  250.98        2969.75           1486       17553.00     76669.61
  251.01        2970.00           1489       16527.00     72177.04
  251.04        2970.25           1492       15309.00     66845.34
  251.08        2970.50           1496       13755.00     60045.30
  251.11        2970.75           1499       12514.00     54616.88
  251.14        2971.00           1502       11309.00     49347.64
  251.17        2971.25           1506        9657.00     42126.44
  251.20        2971.50           1509        8388.00     36581.54
  251.23        2971.75           1513        6821.00     29737.07
  251.26        2972.00           1516        5671.00     24715.79
  251.29        2972.25           1519        4618.00     20119.38
  251.32        2972.50           1523        3047.00     13264.22
  251.35        2972.75           1526        1891.00      8221.73
  251.38        2973.00           1529         879.00      3808.63
  251.42        2973.25           1533         383.00      1646.11
  251.45        2973.50           1536         273.00      1166.56
  251.48        2973.75           1539         245.00      1044.50
  251.51        2974.00           1543         211.00       896.28
  251.54        2974.25           1546         167.00       704.46
  251.57        2974.50           1549         122.00       508.29
  251.60        2974.75           1553          88.00       360.07
  251.63        2975.00           1556          69.00       277.25
  251.66        2975.25           1559          64.00       255.45
  251.69        2975.50           1563          57.00       224.94
  251.72        2975.75           1566          56.00       220.58
  251.76        2976.00           1569          54.00       211.86
  251.79        2976.25           1573          53.00       207.50
  251.82        2976.50           1576          45.00       172.63
  251.85        2976.75           1579          58.00       229.30
  251.88        2977.00           1583          48.00       185.70
  251.91        2977.25           1586          55.00       216.22
  251.94        2977.50           1590          44.00       168.27
  251.97        2977.75           1593          52.00       203.14
  252.00        2978.00           1596          55.00       216.22
  252.04        2978.25           1600          54.00       211.86
  252.07        2978.50           1603          61.00       242.37
  252.10        2978.75           1606          45.00       172.63
  252.13        2979.00           1610          48.00       185.70
  252.16        2979.25           1613          59.00       233.65
  252.19        2979.50           1616          48.00       185.70
  252.22        2979.75           1620          52.00       203.14
  252.25        2980.00           1623          49.00       190.06
  252.28        2980.25           1626          47.00       181.34
  252.31        2980.50           1630          52.00       203.14
  252.35        2980.75           1633          50.00       194.42
  252.38        2981.00           1637          53.00       207.50
  252.41        2981.25           1640          56.00       220.58
  252.44        2981.50           1643          48.00       185.70
  252.47        2981.75           1647          47.00       181.34
  252.50        2982.00           1650          59.00       233.65
  252.53        2982.25           1653          43.00       163.91
  252.56        2982.50           1657          44.00       168.27
  252.59        2982.75           1660          50.00       194.42
  252.62        2983.00           1663          47.00       181.34
  252.65        2983.25           1667          47.00       181.34
  252.68        2983.50           1670          58.00       229.30
  252.72        2983.75           1673          45.00       172.63
  252.75        2984.00           1677          48.00       185.70
HS scan finished at 04:12:58
end
************************************************************
  HS Scan of (1) Internal mercury lamp
************************************************************
Integration time is 0.2294 seconds per sample
dh010319Manchester 53.47 2.23 2.804185pr1000
************************************************************
Dead Time -------------------------  3E-08 
Number of Cycles Used -------------  4 
Starting Wavelength (Angstroms) ---  2950 
Final Wavelength (Angstoms) -------  2984 
Wavelength Increment (Angstroms) --  .25 
Filter Wheel #1 Position ---------- (1) Ground quartz diffuser (ND=2.32)
Filter Wheel #2 Position ---------- (1) Neutral Density 0.494



************************************************************
HS scan start time = 18:42:10
Dark Count =  5.7 


Time (GMT)  Wavelength (Ang)  Step Number  Raw Counts  Counts/Second

 1122.54        2950.00           1222          57.00       223.63
 1122.61        2950.25           1226          52.00       201.83
 1122.64        2950.50           1229          56.00       219.27
 1122.67        2950.75           1232          52.00       201.83
 1122.70        2951.00           1236          61.00       241.07
 1122.73        2951.25           1239          53.00       206.19
 1122.76        2951.50           1242          58.00       227.99
 1122.79        2951.75           1246          61.00       241.07
 1122.82        2952.00           1249          52.00       201.83
 1122.85        2952.25           1252          52.00       201.83
 1122.88        2952.50           1256          58.00       227.99
 1122.91        2952.75           1259          51.00       197.47
 1122.95        2953.00           1262          49.00       188.75
 1122.98        2953.25           1266          66.00       262.86
 1123.01        2953.50           1269          57.00       223.63
 1123.04        2953.75           1272          44.00       166.96
 1123.07        2954.00           1276          61.00       241.07
 1123.10        2954.25           1279          56.00       219.27
 1123.13        2954.50           1282          47.00       180.04
 1123.16        2954.75           1286          55.00       214.91
 1123.19        2955.00           1289          61.00       241.07
 1123.22        2955.25           1292          53.00       206.19
 1123.25        2955.50           1296          54.00       210.55
 1123.28        2955.75           1299          49.00       188.75
 1123.31        2956.00           1302          58.00       227.99
 1123.34        2956.25           1306          66.00       262.86
 1123.38        2956.50           1309          55.00       214.91
 1123.41        2956.75           1312          52.00       201.83
 1123.44        2957.00           1316          56.00       219.27
 1123.47        2957.25           1319          50.00       193.11
 1123.50        2957.50           1322          50.00       193.11
 1123.53        2957.75           1326          53.00       206.19
 1123.56        2958.00           1329          56.00       219.27
 1123.59        2958.25           1332          57.00       223.63
 1123.62        2958.50           1336          58.00       227.99
 1123.65        2958.75           1339          53.00       206.19
 1123.68        2959.00           1342          57.00       223.63
 1123.72        2959.25           1346          65.00       258.50
 1123.75        2959.50           1349          60.00       236.71
 1123.78        2959.75           1352          73.00       293.38
 1123.81        2960.00           1356          87.00       354.41
 1123.84        2960.25           1359         119.00       493.90
 1123.87        2960.50           1362         151.00       633.40
 1123.90        2960.75           1366         192.00       812.14
 1123.93        2961.00           1369         223.00       947.28
 1123.96        2961.25           1372         254.00      1082.42
 1123.99        2961.50           1376         286.00      1221.93
 1124.02        2961.75           1379         385.00      1653.53
 1124.06        2962.00           1382         787.00      3406.19
 1124.09        2962.25           1386        2086.00      9070.91
 1124.12        2962.50           1389        3263.00     14205.27
 1124.15        2962.75           1392        4308.00     18765.14
 1124.18        2963.00           1396        5906.00     25740.45
 1124.21        2963.25           1399        6988.00     30465.06
 1124.24        2963.50           1402        8162.00     35592.91
 1124.27        2963.75           1406        9840.00     42924.90
 1124.30        2964.00           1409       11148.00     48642.42
 1124.33        2964.25           1412       12392.00     54082.01
 1124.37        2964.50           1416       14195.00     61969.07
 1124.40        2964.75           1419       15211.00     66415.12
 1124.43        2965.00           1422       16507.00     72088.18
 1124.46        2965.25           1426       18071.00     78936.94
 1124.49        2965.50           1429       19416.00     84828.94
 1124.52        2965.75           1432       20416.00     89210.99
 1124.55        2966.00           1436       22118.00     96671.86
 1124.58        2966.25           1439       23212.00    101469.30
 1124.61        2966.50           1442       24226.00    105917.10
 1124.64        2966.75           1446       25530.00    111638.80
 1124.67        2967.00           1449       25844.00    113016.80
 1124.71        2967.25           1452       25827.00    112942.20
 1124.74        2967.50           1456       25734.00    112534.00
 1124.77        2967.75           1459       25815.00    112889.50
 1124.80        2968.00           1462       25859.00    113082.60
 1124.83        2968.25           1466       25135.00    109905.40
 1124.86        2968.50           1469       23854.00    104285.20
 1124.89        2968.75           1472       22904.00    100118.50
 1124.92        2969.00           1476       21335.00     93239.09
 1124.96        2969.25           1479       20155.00     88067.16
 1124.99        2969.50           1482       18999.00     83001.99
 1125.02        2969.75           1486       17479.00     76344.24
 1125.05        2970.00           1489       16214.00     70805.43
 1125.08        2970.25           1492       14993.00     65461.04
 1125.11        2970.50           1496       13671.00     59676.49
 1125.14        2970.75           1499       12208.00     53277.33
 1125.17        2971.00           1502       11103.00     48445.69
 1125.20        2971.25           1506        9368.00     40862.18
 1125.23        2971.50           1509        8177.00     35658.44
 1125.26        2971.75           1513        6797.00     29630.95
 1125.30        2972.00           1516        5621.00     24496.20
 1125.33        2972.25           1519        4436.00     19323.75
 1125.36        2972.50           1523        2858.00     12438.38
 1125.39        2972.75           1526        1795.00      7801.74
 1125.42        2973.00           1529         785.00      3397.47
 1125.45        2973.25           1533         342.00      1466.06
 1125.48        2973.50           1536         259.00      1104.22
 1125.51        2973.75           1539         216.00       916.76
 1125.54        2974.00           1543         175.00       738.03
 1125.57        2974.25           1546         140.00       585.45
 1125.60        2974.50           1549         101.00       415.44
 1125.64        2974.75           1553          73.00       293.38
 1125.67        2975.00           1556          74.00       297.74
 1125.70        2975.25           1559          56.00       219.27
 1125.73        2975.50           1563          57.00       223.63
 1125.76        2975.75           1566          47.00       180.04
 1125.79        2976.00           1569          55.00       214.91
 1125.82        2976.25           1573          58.00       227.99
 1125.85        2976.50           1576          55.00       214.91
 1125.88        2976.75           1579          53.00       206.19
 1125.91        2977.00           1583          49.00       188.75
 1125.94        2977.25           1586          52.00       201.83
 1125.97        2977.50           1590          49.00       188.75
 1126.01        2977.75           1593          53.00       206.19
 1126.04        2978.00           1596          49.00       188.75
 1126.07        2978.25           1600          56.00       219.27
 1126.10        2978.50           1603          54.00       210.55
 1126.13        2978.75           1606          54.00       210.55
 1126.16        2979.00           1610          51.00       197.47
 1126.19        2979.25           1613          51.00       197.47
 1126.22        2979.50           1616          55.00       214.91
 1126.25        2979.75           1620          53.00       206.19
 1126.28        2980.00           1623          53.00       206.19
 1126.31        2980.25           1626          55.00       214.91
 1126.34        2980.50           1630          52.00       201.83
 1126.38        2980.75           1633          54.00       210.55
 1126.41        2981.00           1637          51.00       197.47
 1126.44        2981.25           1640          45.00       171.32
 1126.47        2981.50           1643          52.00       201.83
 1126.50        2981.75           1647          52.00       201.83
 1126.53        2982.00           1650          47.00       180.04
 1126.56        2982.25           1653          54.00       210.55
 1126.59        2982.50           1657          49.00       188.75
 1126.62        2982.75           1660          47.00       180.04
 1126.66        2983.00           1663          49.00       188.75
 1126.69        2983.25           1667          53.00       206.19
 1126.72        2983.50           1670          48.00       184.40
 1126.75        2983.75           1673          48.00       184.40
 1126.78        2984.00           1677          41.00       153.88
HS scan finished at 18:47:00
end
