************************************************************
  HS Scan of (1) Internal mercury lamp
************************************************************
Integration time is 0.2294 seconds per sample
dh040317Manchester 53.47 2.23 2.804185pr1000
************************************************************
Dead Time -------------------------  3E-08 
Number of Cycles Used -------------  4 
Starting Wavelength (Angstroms) ---  2950 
Final Wavelength (Angstoms) -------  2984 
Wavelength Increment (Angstroms) --  .25 
Filter Wheel #1 Position ---------- (1) Ground quartz diffuser (ND=2.32)
Filter Wheel #2 Position ---------- (1) Neutral Density 0.494



************************************************************
HS scan start time = 03:58:12
Dark Count =  8.2 


Time (GMT)  Wavelength (Ang)  Step Number  Raw Counts  Counts/Second

  238.56        2950.00           1222          44.00       156.06
  238.63        2950.25           1226          51.00       186.57
  238.66        2950.50           1229          44.00       156.06
  238.69        2950.75           1232          42.00       147.34
  238.72        2951.00           1236          39.00       134.26
  238.76        2951.25           1239          47.00       169.14
  238.79        2951.50           1242          41.00       142.98
  238.82        2951.75           1246          47.00       169.14
  238.85        2952.00           1249          51.00       186.57
  238.88        2952.25           1252          47.00       169.14
  238.91        2952.50           1256          48.00       173.50
  238.94        2952.75           1259          51.00       186.57
  238.97        2953.00           1262          43.00       151.70
  239.00        2953.25           1266          48.00       173.50
  239.04        2953.50           1269          48.00       173.50
  239.07        2953.75           1272          42.00       147.34
  239.10        2954.00           1276          47.00       169.14
  239.13        2954.25           1279          49.00       177.86
  239.16        2954.50           1282          45.00       160.42
  239.19        2954.75           1286          40.00       138.62
  239.22        2955.00           1289          45.00       160.42
  239.25        2955.25           1292          52.00       190.93
  239.28        2955.50           1296          43.00       151.70
  239.31        2955.75           1299          44.00       156.06
  239.35        2956.00           1302          44.00       156.06
  239.38        2956.25           1306          52.00       190.93
  239.41        2956.50           1309          56.00       208.37
  239.44        2956.75           1312          47.00       169.14
  239.47        2957.00           1316          46.00       164.78
  239.50        2957.25           1319          49.00       177.86
  239.53        2957.50           1322          48.00       173.50
  239.56        2957.75           1326          56.00       208.37
  239.59        2958.00           1329          43.00       151.70
  239.62        2958.25           1332          44.00       156.06
  239.65        2958.50           1336          44.00       156.06
  239.69        2958.75           1339          48.00       173.50
  239.72        2959.00           1342          41.00       142.98
  239.75        2959.25           1346          55.00       204.01
  239.78        2959.50           1349          52.00       190.93
  239.81        2959.75           1352          67.00       256.32
  239.84        2960.00           1356          82.00       321.71
  239.87        2960.25           1359         125.00       509.16
  239.90        2960.50           1362         178.00       740.21
  239.93        2960.75           1366         221.00       927.66
  239.96        2961.00           1369         265.00      1119.48
  239.99        2961.25           1372         309.00      1311.30
  240.02        2961.50           1376         380.00      1620.83
  240.06        2961.75           1379         487.00      2087.31
  240.09        2962.00           1382         953.00      4119.08
  240.12        2962.25           1386        2304.00     10010.85
  240.15        2962.50           1389        3814.00     16598.50
  240.18        2962.75           1392        5452.00     23747.51
  240.21        2963.00           1396        7717.00     33638.11
  240.24        2963.25           1399        9203.00     40130.24
  240.27        2963.50           1402       10924.00     47652.21
  240.30        2963.75           1406       13151.00     57390.79
  240.33        2964.00           1409       14801.00     64609.85
  240.37        2964.25           1412       16600.00     72484.40
  240.40        2964.50           1416       18964.00     82837.70
  240.43        2964.75           1419       20688.00     90392.13
  240.46        2965.00           1422       22471.00     98208.71
  240.49        2965.25           1426       24644.00    107740.00
  240.52        2965.50           1429       26306.00    115033.60
  240.55        2965.75           1432       27995.00    122449.00
  240.58        2966.00           1436       30284.00    132503.90
  240.61        2966.25           1439       31570.00    138155.60
  240.64        2966.50           1442       33351.00    145985.80
  240.68        2966.75           1446       35172.00    153995.80
  240.71        2967.00           1449       35969.00    157502.70
  240.74        2967.25           1452       36255.00    158761.40
  240.77        2967.50           1456       36232.00    158660.10
  240.80        2967.75           1459       36284.00    158889.00
  240.83        2968.00           1462       36102.00    158088.00
  240.86        2968.25           1466       35403.00    155012.10
  240.89        2968.50           1469       34131.00    149416.30
  240.92        2968.75           1472       32879.00    143910.30
  240.96        2969.00           1476       30689.00    134283.60
  240.99        2969.25           1479       28994.00    126836.60
  241.02        2969.50           1482       27272.00    119274.30
  241.05        2969.75           1486       25296.00    110600.90
  241.08        2970.00           1489       23652.00    103388.20
  241.11        2970.25           1492       21875.00     95595.48
  241.14        2970.50           1496       19585.00     85558.47
  241.17        2970.75           1499       17810.00     77782.88
  241.20        2971.00           1502       16142.00     70479.29
  241.24        2971.25           1506       13912.00     60719.93
  241.27        2971.50           1509       12262.00     53502.55
  241.30        2971.75           1513       10152.00     44277.61
  241.33        2972.00           1516        8523.00     37159.10
  241.36        2972.25           1519        6919.00     30152.81
  241.39        2972.50           1523        4720.00     20552.34
  241.42        2972.75           1526        3048.00     13256.36
  241.45        2973.00           1529        1603.00      6953.50
  241.48        2973.25           1533         552.00      2370.70
  241.51        2973.50           1536         314.00      1333.10
  241.54        2973.75           1539         261.00      1102.04
  241.57        2974.00           1543         219.00       918.94
  241.60        2974.25           1546         169.00       700.97
  241.64        2974.50           1549         125.00       509.16
  241.67        2974.75           1553          89.00       352.23
  241.70        2975.00           1556          62.00       234.53
  241.73        2975.25           1559          63.00       238.89
  241.76        2975.50           1563          46.00       164.78
  241.79        2975.75           1566          48.00       173.50
  241.82        2976.00           1569          45.00       160.42
  241.85        2976.25           1573          56.00       208.37
  241.88        2976.50           1576          44.00       156.06
  241.91        2976.75           1579          45.00       160.42
  241.95        2977.00           1583          43.00       151.70
  241.98        2977.25           1586          47.00       169.14
  242.01        2977.50           1590          50.00       182.22
  242.04        2977.75           1593          48.00       173.50
  242.07        2978.00           1596          52.00       190.93
  242.10        2978.25           1600          36.00       121.19
  242.13        2978.50           1603          47.00       169.14
  242.16        2978.75           1606          44.00       156.06
  242.19        2979.00           1610          44.00       156.06
  242.22        2979.25           1613          50.00       182.22
  242.25        2979.50           1616          43.00       151.70
  242.28        2979.75           1620          48.00       173.50
  242.31        2980.00           1623          51.00       186.57
  242.35        2980.25           1626          41.00       142.98
  242.38        2980.50           1630          44.00       156.06
  242.41        2980.75           1633          49.00       177.86
  242.44        2981.00           1637          53.00       195.29
  242.47        2981.25           1640          52.00       190.93
  242.50        2981.50           1643          50.00       182.22
  242.53        2981.75           1647          45.00       160.42
  242.56        2982.00           1650          44.00       156.06
  242.59        2982.25           1653          32.00       103.75
  242.62        2982.50           1657          48.00       173.50
  242.65        2982.75           1660          42.00       147.34
  242.68        2983.00           1663          44.00       156.06
  242.72        2983.25           1667          44.00       156.06
  242.75        2983.50           1670          42.00       147.34
  242.78        2983.75           1673          52.00       190.93
  242.81        2984.00           1677          44.00       156.06
HS scan finished at 04:03:02
end
************************************************************
  HS Scan of (1) Internal mercury lamp
************************************************************
Integration time is 0.2294 seconds per sample
dh040317Manchester 53.47 2.23 2.804185pr1000
************************************************************
Dead Time -------------------------  3E-08 
Number of Cycles Used -------------  4 
Starting Wavelength (Angstroms) ---  2950 
Final Wavelength (Angstoms) -------  2984 
Wavelength Increment (Angstroms) --  .25 
Filter Wheel #1 Position ---------- (1) Ground quartz diffuser (ND=2.32)
Filter Wheel #2 Position ---------- (1) Neutral Density 0.494



************************************************************
HS scan start time = 18:41:59
Dark Count =  6.2 


Time (GMT)  Wavelength (Ang)  Step Number  Raw Counts  Counts/Second

 1122.35        2950.00           1222          47.00       177.86
 1122.41        2950.25           1226          49.00       186.57
 1122.45        2950.50           1229          46.00       173.50
 1122.48        2950.75           1232          45.00       169.14
 1122.51        2951.00           1236          52.00       199.65
 1122.54        2951.25           1239          48.00       182.22
 1122.57        2951.50           1242          44.00       164.78
 1122.60        2951.75           1246          43.00       160.42
 1122.63        2952.00           1249          44.00       164.78
 1122.66        2952.25           1252          53.00       204.01
 1122.69        2952.50           1256          46.00       173.50
 1122.72        2952.75           1259          56.00       217.09
 1122.76        2953.00           1262          52.00       199.65
 1122.79        2953.25           1266          45.00       169.14
 1122.82        2953.50           1269          45.00       169.14
 1122.85        2953.75           1272          40.00       147.34
 1122.88        2954.00           1276          46.00       173.50
 1122.91        2954.25           1279          43.00       160.42
 1122.94        2954.50           1282          46.00       173.50
 1122.97        2954.75           1286          48.00       182.22
 1123.00        2955.00           1289          36.00       129.90
 1123.03        2955.25           1292          48.00       182.22
 1123.06        2955.50           1296          57.00       221.45
 1123.10        2955.75           1299          42.00       156.06
 1123.13        2956.00           1302          44.00       164.78
 1123.16        2956.25           1306          46.00       173.50
 1123.19        2956.50           1309          35.00       125.55
 1123.22        2956.75           1312          54.00       208.37
 1123.25        2957.00           1316          48.00       182.22
 1123.28        2957.25           1319          41.00       151.70
 1123.31        2957.50           1322          46.00       173.50
 1123.34        2957.75           1326          48.00       182.22
 1123.37        2958.00           1329          46.00       173.50
 1123.40        2958.25           1332          49.00       186.57
 1123.43        2958.50           1336          44.00       164.78
 1123.47        2958.75           1339          48.00       182.22
 1123.50        2959.00           1342          47.00       177.86
 1123.53        2959.25           1346          52.00       199.65
 1123.56        2959.50           1349          50.00       190.93
 1123.59        2959.75           1352          62.00       243.25
 1123.62        2960.00           1356          93.00       378.38
 1123.65        2960.25           1359         123.00       509.16
 1123.68        2960.50           1362         171.00       718.41
 1123.71        2960.75           1366         217.00       918.94
 1123.74        2961.00           1369         266.00      1132.56
 1123.78        2961.25           1372         322.00      1376.69
 1123.81        2961.50           1376         392.00      1681.86
 1123.84        2961.75           1379         561.00      2418.66
 1123.87        2962.00           1382        1128.00      4890.87
 1123.90        2962.25           1386        2750.00     11965.06
 1123.93        2962.50           1389        4314.00     18789.14
 1123.96        2962.75           1392        5886.00     25650.94
 1123.99        2963.00           1396        7849.00     34223.44
 1124.02        2963.25           1399        9464.00     41279.51
 1124.05        2963.50           1402       11085.00     48364.81
 1124.09        2963.75           1406       13275.00     57941.96
 1124.12        2964.00           1409       15072.00     65804.59
 1124.15        2964.25           1412       16963.00     74082.52
 1124.18        2964.50           1416       19161.00     83709.53
 1124.21        2964.75           1419       20917.00     91404.62
 1124.24        2965.00           1422       22422.00     98002.62
 1124.27        2965.25           1426       24743.00    108183.10
 1124.30        2965.50           1429       26291.00    114976.60
 1124.33        2965.75           1432       27942.00    122225.00
 1124.36        2966.00           1436       30232.00    132284.20
 1124.40        2966.25           1439       31906.00    139641.30
 1124.43        2966.50           1442       33421.00    146302.50
 1124.46        2966.75           1446       35351.00    154792.10
 1124.49        2967.00           1449       35692.00    156292.60
 1124.52        2967.25           1452       35975.00    157537.90
 1124.55        2967.50           1456       35844.00    156961.40
 1124.58        2967.75           1459       35910.00    157251.90
 1124.61        2968.00           1462       35655.00    156129.80
 1124.64        2968.25           1466       34967.00    153102.60
 1124.67        2968.50           1469       33828.00    148092.40
 1124.71        2968.75           1472       32080.00    140406.20
 1124.74        2969.00           1476       30266.00    132433.60
 1124.77        2969.25           1479       28468.00    124535.00
 1124.80        2969.50           1482       27188.00    118914.30
 1124.83        2969.75           1486       24953.00    109104.60
 1124.86        2970.00           1489       23196.00    101396.90
 1124.89        2970.25           1492       21535.00     94113.65
 1124.92        2970.50           1496       19326.00     84432.43
 1124.95        2970.75           1499       17866.00     78036.90
 1124.98        2971.00           1502       16218.00     70820.76
 1125.01        2971.25           1506       13864.00     60518.67
 1125.05        2971.50           1509       12229.00     53366.98
 1125.08        2971.75           1513       10003.00     43635.12
 1125.11        2972.00           1516        8509.00     37106.67
 1125.14        2972.25           1519        6829.00     29768.51
 1125.17        2972.50           1523        4851.00     21132.84
 1125.20        2972.75           1526        3360.00     14626.30
 1125.23        2973.00           1529        1781.00      7738.50
 1125.26        2973.25           1533         641.00      2767.45
 1125.29        2973.50           1536         380.00      1629.55
 1125.33        2973.75           1539         300.00      1280.78
 1125.36        2974.00           1543         269.00      1145.64
 1125.39        2974.25           1546         176.00       740.21
 1125.42        2974.50           1549         160.00       670.46
 1125.45        2974.75           1553         104.00       426.34
 1125.48        2975.00           1556          71.00       282.48
 1125.51        2975.25           1559          61.00       238.89
 1125.54        2975.50           1563          45.00       169.14
 1125.57        2975.75           1566          57.00       221.45
 1125.60        2976.00           1569          47.00       177.86
 1125.63        2976.25           1573          48.00       182.22
 1125.67        2976.50           1576          49.00       186.57
 1125.70        2976.75           1579          51.00       195.29
 1125.73        2977.00           1583          49.00       186.57
 1125.76        2977.25           1586          43.00       160.42
 1125.79        2977.50           1590          45.00       169.14
 1125.82        2977.75           1593          48.00       182.22
 1125.85        2978.00           1596          42.00       156.06
 1125.88        2978.25           1600          48.00       182.22
 1125.91        2978.50           1603          45.00       169.14
 1125.94        2978.75           1606          41.00       151.70
 1125.97        2979.00           1610          60.00       234.53
 1126.01        2979.25           1613          41.00       151.70
 1126.04        2979.50           1616          47.00       177.86
 1126.07        2979.75           1620          46.00       173.50
 1126.10        2980.00           1623          44.00       164.78
 1126.13        2980.25           1626          46.00       173.50
 1126.16        2980.50           1630          46.00       173.50
 1126.19        2980.75           1633          52.00       199.65
 1126.22        2981.00           1637          46.00       173.50
 1126.25        2981.25           1640          44.00       164.78
 1126.28        2981.50           1643          45.00       169.14
 1126.31        2981.75           1647          44.00       164.78
 1126.34        2982.00           1650          38.00       138.62
 1126.38        2982.25           1653          38.00       138.62
 1126.41        2982.50           1657          43.00       160.42
 1126.44        2982.75           1660          51.00       195.29
 1126.47        2983.00           1663          46.00       173.50
 1126.50        2983.25           1667          45.00       169.14
 1126.53        2983.50           1670          49.00       186.57
 1126.56        2983.75           1673          35.00       125.55
 1126.59        2984.00           1677          46.00       173.50
HS scan finished at 18:46:48
end
