************************************************************
  HS Scan of (1) Internal mercury lamp
************************************************************
Integration time is 0.2294 seconds per sample
dh080317Manchester 53.47 2.23 2.804185pr1000
************************************************************
Dead Time -------------------------  3E-08 
Number of Cycles Used -------------  4 
Starting Wavelength (Angstroms) ---  2950 
Final Wavelength (Angstoms) -------  2984 
Wavelength Increment (Angstroms) --  .25 
Filter Wheel #1 Position ---------- (1) Ground quartz diffuser (ND=2.32)
Filter Wheel #2 Position ---------- (1) Neutral Density 0.494



************************************************************
HS scan start time = 03:45:58
Dark Count =  6.5 


Time (GMT)  Wavelength (Ang)  Step Number  Raw Counts  Counts/Second

  226.33        2950.00           1222          45.00       167.83
  226.40        2950.25           1226          42.00       154.75
  226.43        2950.50           1229          52.00       198.34
  226.46        2950.75           1232          47.00       176.55
  226.49        2951.00           1236          45.00       167.83
  226.52        2951.25           1239          48.00       180.91
  226.55        2951.50           1242          45.00       167.83
  226.58        2951.75           1246          47.00       176.55
  226.61        2952.00           1249          51.00       193.99
  226.64        2952.25           1252          53.00       202.70
  226.68        2952.50           1256          42.00       154.75
  226.71        2952.75           1259          40.00       146.03
  226.74        2953.00           1262          49.00       185.27
  226.77        2953.25           1266          47.00       176.55
  226.80        2953.50           1269          44.00       163.47
  226.83        2953.75           1272          51.00       193.99
  226.86        2954.00           1276          53.00       202.70
  226.89        2954.25           1279          48.00       180.91
  226.92        2954.50           1282          46.00       172.19
  226.95        2954.75           1286          50.00       189.63
  226.98        2955.00           1289          44.00       163.47
  227.01        2955.25           1292          56.00       215.78
  227.04        2955.50           1296          45.00       167.83
  227.07        2955.75           1299          43.00       159.11
  227.10        2956.00           1302          42.00       154.75
  227.14        2956.25           1306          54.00       207.06
  227.17        2956.50           1309          42.00       154.75
  227.20        2956.75           1312          50.00       189.63
  227.23        2957.00           1316          43.00       159.11
  227.26        2957.25           1319          45.00       167.83
  227.29        2957.50           1322          53.00       202.70
  227.32        2957.75           1326          44.00       163.47
  227.35        2958.00           1329          48.00       180.91
  227.38        2958.25           1332          44.00       163.47
  227.41        2958.50           1336          49.00       185.27
  227.44        2958.75           1339          51.00       193.99
  227.47        2959.00           1342          50.00       189.63
  227.50        2959.25           1346          44.00       163.47
  227.53        2959.50           1349          50.00       189.63
  227.56        2959.75           1352          61.00       237.58
  227.59        2960.00           1356          79.00       316.04
  227.63        2960.25           1359         103.00       420.67
  227.66        2960.50           1362         161.00       673.51
  227.69        2960.75           1366         200.00       843.53
  227.72        2961.00           1369         233.00       987.39
  227.75        2961.25           1372         271.00      1153.05
  227.78        2961.50           1376         394.00      1689.27
  227.81        2961.75           1379         623.00      2687.66
  227.84        2962.00           1382        1348.00      5848.89
  227.87        2962.25           1386        3095.00     13468.82
  227.91        2962.50           1389        4751.00     20695.06
  227.94        2962.75           1392        6320.00     27544.55
  227.97        2963.00           1396        8533.00     37210.22
  228.00        2963.25           1399       10107.00     44088.36
  228.03        2963.50           1402       11637.00     50776.94
  228.06        2963.75           1406       14001.00     61116.76
  228.09        2964.00           1409       15646.00     68315.55
  228.12        2964.25           1412       17242.00     75302.88
  228.15        2964.50           1416       19543.00     85381.89
  228.19        2964.75           1419       21282.00     93003.25
  228.22        2965.00           1422       23051.00    100759.70
  228.25        2965.25           1426       25153.00    109980.90
  228.28        2965.50           1429       26608.00    116366.70
  228.31        2965.75           1432       28572.00    124990.50
  228.34        2966.00           1436       30740.00    134515.10
  228.37        2966.25           1439       32291.00    141332.50
  228.40        2966.50           1442       33918.00    148486.90
  228.43        2966.75           1446       35319.00    154650.00
  228.47        2967.00           1449       35844.00    156960.10
  228.50        2967.25           1452       36162.00    158359.50
  228.53        2967.50           1456       35877.00    157105.30
  228.56        2967.75           1459       35872.00    157083.30
  228.59        2968.00           1462       35685.00    156260.50
  228.62        2968.25           1466       34742.00    152111.50
  228.65        2968.50           1469       33386.00    146147.20
  228.68        2968.75           1472       31761.00    139002.60
  228.71        2969.00           1476       29709.00    129985.00
  228.75        2969.25           1479       28284.00    123725.60
  228.78        2969.50           1482       26486.00    115831.20
  228.81        2969.75           1486       24317.00    106312.80
  228.84        2970.00           1489       22816.00     99729.06
  228.87        2970.25           1492       21152.00     92433.38
  228.90        2970.50           1496       18783.00     82052.22
  228.93        2970.75           1499       17107.00     74711.74
  228.96        2971.00           1502       15479.00     67584.58
  228.99        2971.25           1506       13237.00     57774.42
  229.03        2971.50           1509       11394.00     49714.46
  229.06        2971.75           1513        9188.00     40072.12
  229.09        2972.00           1516        7591.00     33095.18
  229.12        2972.25           1519        6073.00     26466.08
  229.15        2972.50           1523        3907.00     17011.73
  229.18        2972.75           1526        2416.00     10506.80
  229.21        2973.00           1529        1234.00      5351.78
  229.24        2973.25           1533         508.00      2186.28
  229.27        2973.50           1536         361.00      1545.41
  229.30        2973.75           1539         304.00      1296.91
  229.34        2974.00           1543         236.00      1000.47
  229.37        2974.25           1546         195.00       821.73
  229.40        2974.50           1549         152.00       634.28
  229.43        2974.75           1553          99.00       403.23
  229.46        2975.00           1556          83.00       333.48
  229.49        2975.25           1559          57.00       220.14
  229.52        2975.50           1563          55.00       211.42
  229.55        2975.75           1566          47.00       176.55
  229.58        2976.00           1569          44.00       163.47
  229.61        2976.25           1573          51.00       193.99
  229.64        2976.50           1576          43.00       159.11
  229.67        2976.75           1579          47.00       176.55
  229.71        2977.00           1583          47.00       176.55
  229.74        2977.25           1586          43.00       159.11
  229.77        2977.50           1590          44.00       163.47
  229.80        2977.75           1593          45.00       167.83
  229.83        2978.00           1596          54.00       207.06
  229.86        2978.25           1600          46.00       172.19
  229.89        2978.50           1603          46.00       172.19
  229.92        2978.75           1606          43.00       159.11
  229.95        2979.00           1610          50.00       189.63
  229.98        2979.25           1613          46.00       172.19
  230.01        2979.50           1616          55.00       211.42
  230.04        2979.75           1620          46.00       172.19
  230.08        2980.00           1623          46.00       172.19
  230.11        2980.25           1626          46.00       172.19
  230.14        2980.50           1630          43.00       159.11
  230.17        2980.75           1633          41.00       150.39
  230.20        2981.00           1637          46.00       172.19
  230.23        2981.25           1640          43.00       159.11
  230.26        2981.50           1643          43.00       159.11
  230.29        2981.75           1647          44.00       163.47
  230.32        2982.00           1650          40.00       146.03
  230.35        2982.25           1653          39.00       141.67
  230.39        2982.50           1657          42.00       154.75
  230.42        2982.75           1660          54.00       207.06
  230.45        2983.00           1663          44.00       163.47
  230.48        2983.25           1667          45.00       167.83
  230.51        2983.50           1670          43.00       159.11
  230.54        2983.75           1673          38.00       137.32
  230.57        2984.00           1677          45.00       167.83
HS scan finished at 03:50:47
end
************************************************************
  HS Scan of (1) Internal mercury lamp
************************************************************
Integration time is 0.2294 seconds per sample
dh080317Manchester 53.47 2.23 2.804185pr1000
************************************************************
Dead Time -------------------------  3E-08 
Number of Cycles Used -------------  4 
Starting Wavelength (Angstroms) ---  2950 
Final Wavelength (Angstoms) -------  2984 
Wavelength Increment (Angstroms) --  .25 
Filter Wheel #1 Position ---------- (1) Ground quartz diffuser (ND=2.32)
Filter Wheel #2 Position ---------- (1) Neutral Density 0.494



************************************************************
HS scan start time = 19:12:04
Dark Count =  5.3 


Time (GMT)  Wavelength (Ang)  Step Number  Raw Counts  Counts/Second

 1152.44        2950.00           1222          48.00       186.14
 1152.50        2950.25           1226          48.00       186.14
 1152.53        2950.50           1229          50.00       194.86
 1152.57        2950.75           1232          47.00       181.78
 1152.60        2951.00           1236          47.00       181.78
 1152.63        2951.25           1239          48.00       186.14
 1152.66        2951.50           1242          46.00       177.42
 1152.69        2951.75           1246          47.00       181.78
 1152.72        2952.00           1249          45.00       173.06
 1152.75        2952.25           1252          47.00       181.78
 1152.78        2952.50           1256          51.00       199.22
 1152.81        2952.75           1259          46.00       177.42
 1152.84        2953.00           1262          50.00       194.86
 1152.88        2953.25           1266          47.00       181.78
 1152.91        2953.50           1269          48.00       186.14
 1152.94        2953.75           1272          41.00       155.62
 1152.97        2954.00           1276          46.00       177.42
 1153.00        2954.25           1279          46.00       177.42
 1153.03        2954.50           1282          51.00       199.22
 1153.06        2954.75           1286          53.00       207.94
 1153.09        2955.00           1289          47.00       181.78
 1153.12        2955.25           1292          48.00       186.14
 1153.15        2955.50           1296          48.00       186.14
 1153.18        2955.75           1299          50.00       194.86
 1153.21        2956.00           1302          43.00       164.34
 1153.24        2956.25           1306          44.00       168.70
 1153.27        2956.50           1309          52.00       203.58
 1153.30        2956.75           1312          39.00       146.91
 1153.34        2957.00           1316          50.00       194.86
 1153.37        2957.25           1319          50.00       194.86
 1153.40        2957.50           1322          45.00       173.06
 1153.43        2957.75           1326          44.00       168.70
 1153.46        2958.00           1329          44.00       168.70
 1153.49        2958.25           1332          54.00       212.29
 1153.52        2958.50           1336          41.00       155.62
 1153.55        2958.75           1339          47.00       181.78
 1153.58        2959.00           1342          52.00       203.58
 1153.61        2959.25           1346          47.00       181.78
 1153.64        2959.50           1349          64.00       255.89
 1153.67        2959.75           1352          62.00       247.17
 1153.70        2960.00           1356          99.00       408.46
 1153.74        2960.25           1359         144.00       604.63
 1153.77        2960.50           1362         158.00       665.66
 1153.80        2960.75           1366         221.00       940.31
 1153.83        2961.00           1369         265.00      1132.12
 1153.86        2961.25           1372         313.00      1341.38
 1153.89        2961.50           1376         407.00      1751.18
 1153.92        2961.75           1379         549.00      2370.26
 1153.95        2962.00           1382        1060.00      4598.28
 1153.98        2962.25           1386        2733.00     11894.83
 1154.01        2962.50           1389        4429.00     19294.95
 1154.04        2962.75           1392        5979.00     26060.91
 1154.07        2963.00           1396        8218.00     35839.30
 1154.11        2963.25           1399        9781.00     42668.80
 1154.14        2963.50           1402       11455.00     49986.42
 1154.17        2963.75           1406       13766.00     60093.86
 1154.20        2964.00           1409       15117.00     66005.46
 1154.23        2964.25           1412       17121.00     74778.29
 1154.26        2964.50           1416       19296.00     84304.93
 1154.29        2964.75           1419       20938.00     91500.61
 1154.32        2965.00           1422       22613.00     98844.11
 1154.35        2965.25           1426       24797.00    108424.00
 1154.38        2965.50           1429       26758.00    117030.50
 1154.41        2965.75           1432       28256.00    123607.90
 1154.45        2966.00           1436       30260.00    132411.20
 1154.48        2966.25           1439       32111.00    140546.40
 1154.51        2966.50           1442       33315.00    145840.30
 1154.54        2966.75           1446       35109.00    153731.30
 1154.57        2967.00           1449       35604.00    155909.30
 1154.60        2967.25           1452       35549.00    155667.30
 1154.63        2967.50           1456       35757.00    156582.60
 1154.66        2967.75           1459       35694.00    156305.40
 1154.69        2968.00           1462       35618.00    155970.90
 1154.72        2968.25           1466       34563.00    151329.30
 1154.76        2968.50           1469       33326.00    145888.70
 1154.79        2968.75           1472       31741.00    138920.00
 1154.82        2969.00           1476       29649.00    129726.60
 1154.85        2969.25           1479       27767.00    121460.50
 1154.88        2969.50           1482       26344.00    115213.20
 1154.91        2969.75           1486       24274.00    106129.40
 1154.94        2970.00           1489       22464.00     98190.74
 1154.97        2970.25           1492       21107.00     92241.38
 1155.00        2970.50           1496       18933.00     82714.59
 1155.04        2970.75           1499       17402.00     76008.78
 1155.07        2971.00           1502       15618.00     68198.24
 1155.10        2971.25           1506       13355.00     58295.85
 1155.13        2971.50           1509       11539.00     50353.69
 1155.16        2971.75           1513        9392.00     40968.81
 1155.19        2972.00           1516        7851.00     34236.11
 1155.22        2972.25           1519        6262.00     27296.54
 1155.25        2972.50           1523        4231.00     18430.85
 1155.28        2972.75           1526        2782.00     12108.58
 1155.32        2973.00           1529        1431.00      6216.07
 1155.35        2973.25           1533         517.00      2230.75
 1155.38        2973.50           1536         348.00      1493.96
 1155.41        2973.75           1539         296.00      1267.27
 1155.44        2974.00           1543         235.00      1001.34
 1155.47        2974.25           1546         183.00       774.65
 1155.50        2974.50           1549         143.00       600.27
 1155.53        2974.75           1553         105.00       434.62
 1155.56        2975.00           1556          66.00       264.61
 1155.60        2975.25           1559          51.00       199.22
 1155.63        2975.50           1563          45.00       173.06
 1155.66        2975.75           1566          43.00       164.34
 1155.69        2976.00           1569          50.00       194.86
 1155.72        2976.25           1573          50.00       194.86
 1155.75        2976.50           1576          42.00       159.98
 1155.78        2976.75           1579          46.00       177.42
 1155.81        2977.00           1583          45.00       173.06
 1155.84        2977.25           1586          56.00       221.01
 1155.87        2977.50           1590          38.00       142.55
 1155.90        2977.75           1593          45.00       173.06
 1155.93        2978.00           1596          47.00       181.78
 1155.97        2978.25           1600          45.00       173.06
 1156.00        2978.50           1603          43.00       164.34
 1156.03        2978.75           1606          43.00       164.34
 1156.06        2979.00           1610          44.00       168.70
 1156.09        2979.25           1613          46.00       177.42
 1156.12        2979.50           1616          46.00       177.42
 1156.15        2979.75           1620          50.00       194.86
 1156.18        2980.00           1623          47.00       181.78
 1156.21        2980.25           1626          51.00       199.22
 1156.24        2980.50           1630          50.00       194.86
 1156.27        2980.75           1633          49.00       190.50
 1156.30        2981.00           1637          47.00       181.78
 1156.33        2981.25           1640          50.00       194.86
 1156.36        2981.50           1643          46.00       177.42
 1156.39        2981.75           1647          42.00       159.98
 1156.42        2982.00           1650          42.00       159.98
 1156.46        2982.25           1653          44.00       168.70
 1156.49        2982.50           1657          47.00       181.78
 1156.52        2982.75           1660          42.00       159.98
 1156.55        2983.00           1663          52.00       203.58
 1156.58        2983.25           1667          40.00       151.26
 1156.61        2983.50           1670          45.00       173.06
 1156.64        2983.75           1673          46.00       177.42
 1156.67        2984.00           1677          49.00       190.50
HS scan finished at 19:16:53
end
