************************************************************
  HS Scan of (1) Internal mercury lamp
************************************************************
Integration time is 0.2294 seconds per sample
dh100317Manchester 53.47 2.23 2.804185pr1000
************************************************************
Dead Time -------------------------  3E-08 
Number of Cycles Used -------------  4 
Starting Wavelength (Angstroms) ---  2950 
Final Wavelength (Angstoms) -------  2984 
Wavelength Increment (Angstroms) --  .25 
Filter Wheel #1 Position ---------- (1) Ground quartz diffuser (ND=2.32)
Filter Wheel #2 Position ---------- (1) Neutral Density 0.494



************************************************************
HS scan start time = 03:39:29
Dark Count =  6.3 


Time (GMT)  Wavelength (Ang)  Step Number  Raw Counts  Counts/Second

  219.86        2950.00           1222          48.00       181.78
  219.93        2950.25           1226          53.00       203.58
  219.96        2950.50           1229          49.00       186.14
  219.99        2950.75           1232          52.00       199.22
  220.02        2951.00           1236          47.00       177.42
  220.05        2951.25           1239          43.00       159.98
  220.08        2951.50           1242          46.00       173.06
  220.11        2951.75           1246          48.00       181.78
  220.14        2952.00           1249          56.00       216.65
  220.17        2952.25           1252          42.00       155.62
  220.20        2952.50           1256          47.00       177.42
  220.23        2952.75           1259          41.00       151.26
  220.27        2953.00           1262          49.00       186.14
  220.30        2953.25           1266          41.00       151.26
  220.33        2953.50           1269          43.00       159.98
  220.36        2953.75           1272          50.00       190.50
  220.39        2954.00           1276          44.00       164.34
  220.42        2954.25           1279          52.00       199.22
  220.45        2954.50           1282          47.00       177.42
  220.48        2954.75           1286          50.00       190.50
  220.51        2955.00           1289          45.00       168.70
  220.54        2955.25           1292          49.00       186.14
  220.57        2955.50           1296          46.00       173.06
  220.61        2955.75           1299          45.00       168.70
  220.64        2956.00           1302          47.00       177.42
  220.67        2956.25           1306          52.00       199.22
  220.70        2956.50           1309          48.00       181.78
  220.73        2956.75           1312          43.00       159.98
  220.76        2957.00           1316          45.00       168.70
  220.79        2957.25           1319          40.00       146.91
  220.82        2957.50           1322          43.00       159.98
  220.85        2957.75           1326          52.00       199.22
  220.88        2958.00           1329          41.00       151.26
  220.91        2958.25           1332          46.00       173.06
  220.94        2958.50           1336          43.00       159.98
  220.98        2958.75           1339          56.00       216.65
  221.01        2959.00           1342          48.00       181.78
  221.04        2959.25           1346          56.00       216.65
  221.07        2959.50           1349          52.00       199.22
  221.10        2959.75           1352          57.00       221.01
  221.13        2960.00           1356          85.00       343.07
  221.16        2960.25           1359          98.00       399.74
  221.19        2960.50           1362         134.00       556.68
  221.22        2960.75           1366         183.00       770.29
  221.25        2961.00           1369         250.00      1062.37
  221.29        2961.25           1372         302.00      1289.06
  221.32        2961.50           1376         349.00      1493.96
  221.35        2961.75           1379         484.00      2082.52
  221.38        2962.00           1382         877.00      3795.99
  221.41        2962.25           1386        2255.00      9805.41
  221.44        2962.50           1389        3708.00     16144.26
  221.47        2962.75           1392        5251.00     22878.39
  221.50        2963.00           1396        7406.00     32288.02
  221.53        2963.25           1399        9164.00     39968.13
  221.56        2963.50           1402       10860.00     47380.73
  221.59        2963.75           1406       13278.00     57954.64
  221.62        2964.00           1409       15013.00     65545.94
  221.66        2964.25           1412       16511.00     72103.05
  221.69        2964.50           1416       18817.00     82202.03
  221.72        2964.75           1419       20661.00     90282.12
  221.75        2965.00           1422       22208.00     97063.84
  221.78        2965.25           1426       24453.00    106910.40
  221.81        2965.50           1429       26068.00    113997.30
  221.84        2965.75           1432       27661.00    120990.70
  221.87        2966.00           1436       30024.00    131369.80
  221.90        2966.25           1439       31884.00    139544.20
  221.93        2966.50           1442       33293.00    145739.10
  221.96        2966.75           1446       34926.00    152921.80
  222.00        2967.00           1449       35679.00    156234.90
  222.03        2967.25           1452       35726.00    156441.70
  222.06        2967.50           1456       35673.00    156208.50
  222.09        2967.75           1459       35879.00    157115.00
  222.12        2968.00           1462       35762.00    156600.10
  222.15        2968.25           1466       35181.00    154043.70
  222.18        2968.50           1469       34119.00    149371.90
  222.21        2968.75           1472       32690.00    143087.60
  222.24        2969.00           1476       30241.00    132323.30
  222.27        2969.25           1479       28642.00    125298.80
  222.30        2969.50           1482       27130.00    118659.20
  222.34        2969.75           1486       24744.00    108187.10
  222.37        2970.00           1489       23221.00    101506.10
  222.40        2970.25           1492       21569.00     94262.26
  222.43        2970.50           1496       19467.00     85049.77
  222.46        2970.75           1499       17867.00     78040.83
  222.49        2971.00           1502       16265.00     71026.07
  222.52        2971.25           1506       14170.00     61857.06
  222.55        2971.50           1509       12428.00     54236.83
  222.58        2971.75           1513       10182.00     44417.04
  222.62        2972.00           1516        8562.00     37337.79
  222.65        2972.25           1519        6732.00     29344.48
  222.68        2972.50           1523        4626.00     20150.37
  222.71        2972.75           1526        3072.00     13369.35
  222.74        2973.00           1529        1681.00      7301.95
  222.77        2973.25           1533         630.00      2719.05
  222.80        2973.50           1536         411.00      1764.26
  222.83        2973.75           1539         312.00      1332.66
  222.86        2974.00           1543         253.00      1075.45
  222.90        2974.25           1546         196.00       826.96
  222.93        2974.50           1549         154.00       643.87
  222.96        2974.75           1553          98.00       399.74
  222.99        2975.00           1556          65.00       255.89
  223.02        2975.25           1559          62.00       242.81
  223.05        2975.50           1563          48.00       181.78
  223.08        2975.75           1566          40.00       146.91
  223.11        2976.00           1569          46.00       173.06
  223.14        2976.25           1573          47.00       177.42
  223.17        2976.50           1576          44.00       164.34
  223.20        2976.75           1579          51.00       194.86
  223.23        2977.00           1583          48.00       181.78
  223.26        2977.25           1586          47.00       177.42
  223.30        2977.50           1590          43.00       159.98
  223.33        2977.75           1593          47.00       177.42
  223.36        2978.00           1596          44.00       164.34
  223.39        2978.25           1600          45.00       168.70
  223.42        2978.50           1603          41.00       151.26
  223.45        2978.75           1606          38.00       138.19
  223.48        2979.00           1610          52.00       199.22
  223.51        2979.25           1613          56.00       216.65
  223.54        2979.50           1616          40.00       146.91
  223.57        2979.75           1620          45.00       168.70
  223.60        2980.00           1623          45.00       168.70
  223.64        2980.25           1626          39.00       142.55
  223.67        2980.50           1630          47.00       177.42
  223.70        2980.75           1633          47.00       177.42
  223.73        2981.00           1637          50.00       190.50
  223.76        2981.25           1640          51.00       194.86
  223.79        2981.50           1643          42.00       155.62
  223.82        2981.75           1647          42.00       155.62
  223.85        2982.00           1650          50.00       190.50
  223.88        2982.25           1653          45.00       168.70
  223.91        2982.50           1657          44.00       164.34
  223.95        2982.75           1660          45.00       168.70
  223.98        2983.00           1663          46.00       173.06
  224.01        2983.25           1667          45.00       168.70
  224.04        2983.50           1670          45.00       168.70
  224.07        2983.75           1673          43.00       159.98
  224.10        2984.00           1677          48.00       181.78
HS scan finished at 03:44:19
end
************************************************************
  HS Scan of (1) Internal mercury lamp
************************************************************
Integration time is 0.2294 seconds per sample
dh100317Manchester 53.47 2.23 2.804185pr1000
************************************************************
Dead Time -------------------------  3E-08 
Number of Cycles Used -------------  4 
Starting Wavelength (Angstroms) ---  2950 
Final Wavelength (Angstoms) -------  2984 
Wavelength Increment (Angstroms) --  .25 
Filter Wheel #1 Position ---------- (1) Ground quartz diffuser (ND=2.32)
Filter Wheel #2 Position ---------- (1) Neutral Density 0.494



************************************************************
HS scan start time = 19:12:01
Dark Count =  7.7 


Time (GMT)  Wavelength (Ang)  Step Number  Raw Counts  Counts/Second

 1152.39        2950.00           1222          43.00       153.88
 1152.46        2950.25           1226          47.00       171.32
 1152.49        2950.50           1229          46.00       166.96
 1152.52        2950.75           1232          53.00       197.47
 1152.55        2951.00           1236          45.00       162.60
 1152.58        2951.25           1239          46.00       166.96
 1152.61        2951.50           1242          46.00       166.96
 1152.64        2951.75           1246          41.00       145.16
 1152.67        2952.00           1249          39.00       136.44
 1152.70        2952.25           1252          40.00       140.80
 1152.73        2952.50           1256          47.00       171.32
 1152.77        2952.75           1259          44.00       158.24
 1152.80        2953.00           1262          48.00       175.68
 1152.83        2953.25           1266          48.00       175.68
 1152.86        2953.50           1269          46.00       166.96
 1152.89        2953.75           1272          55.00       206.19
 1152.92        2954.00           1276          47.00       171.32
 1152.95        2954.25           1279          52.00       193.11
 1152.98        2954.50           1282          43.00       153.88
 1153.01        2954.75           1286          44.00       158.24
 1153.04        2955.00           1289          46.00       166.96
 1153.07        2955.25           1292          40.00       140.80
 1153.10        2955.50           1296          55.00       206.19
 1153.13        2955.75           1299          51.00       188.75
 1153.17        2956.00           1302          51.00       188.75
 1153.20        2956.25           1306          40.00       140.80
 1153.23        2956.50           1309          50.00       184.40
 1153.26        2956.75           1312          44.00       158.24
 1153.29        2957.00           1316          51.00       188.75
 1153.32        2957.25           1319          38.00       132.08
 1153.35        2957.50           1322          47.00       171.32
 1153.38        2957.75           1326          52.00       193.11
 1153.41        2958.00           1329          45.00       162.60
 1153.44        2958.25           1332          43.00       153.88
 1153.47        2958.50           1336          45.00       162.60
 1153.50        2958.75           1339          44.00       158.24
 1153.54        2959.00           1342          45.00       162.60
 1153.57        2959.25           1346          47.00       171.32
 1153.60        2959.50           1349          56.00       210.55
 1153.63        2959.75           1352          75.00       293.38
 1153.66        2960.00           1356         111.00       450.31
 1153.69        2960.25           1359         151.00       624.68
 1153.72        2960.50           1362         184.00       768.54
 1153.75        2960.75           1366         257.00      1086.78
 1153.78        2961.00           1369         290.00      1230.65
 1153.81        2961.25           1372         330.00      1405.03
 1153.84        2961.50           1376         451.00      1932.54
 1153.88        2961.75           1379         814.00      3515.19
 1153.91        2962.00           1382        1598.00      6933.87
 1153.94        2962.25           1386        3552.00     15457.47
 1153.97        2962.50           1389        5231.00     22784.97
 1154.00        2962.75           1392        6836.00     29792.53
 1154.03        2963.00           1396        9052.00     39472.61
 1154.06        2963.25           1399       10561.00     46067.55
 1154.09        2963.50           1402       12411.00     54156.36
 1154.12        2963.75           1406       14604.00     63749.97
 1154.15        2964.00           1409       16312.00     71225.71
 1154.19        2964.25           1412       17920.00     78266.83
 1154.22        2964.50           1416       20206.00     88281.89
 1154.25        2964.75           1419       21818.00     95347.77
 1154.28        2965.00           1422       23466.00    102574.50
 1154.31        2965.25           1426       25665.00    112222.40
 1154.34        2965.50           1429       27322.00    119496.10
 1154.37        2965.75           1432       28819.00    126070.10
 1154.40        2966.00           1436       31253.00    136764.40
 1154.43        2966.25           1439       32799.00    143560.70
 1154.46        2966.50           1442       34200.00    149722.00
 1154.49        2966.75           1446       35522.00    155538.00
 1154.53        2967.00           1449       35786.00    156699.60
 1154.56        2967.25           1452       35578.00    155784.40
 1154.59        2967.50           1456       35810.00    156805.20
 1154.62        2967.75           1459       35695.00    156299.20
 1154.65        2968.00           1462       35103.00    153694.40
 1154.68        2968.25           1466       33834.00    148112.20
 1154.71        2968.50           1469       32421.00    141898.80
 1154.74        2968.75           1472       30789.00    134725.20
 1154.77        2969.00           1476       28587.00    125051.10
 1154.80        2969.25           1479       27064.00    118363.30
 1154.83        2969.50           1482       25245.00    110379.30
 1154.87        2969.75           1486       23112.00    101021.90
 1154.90        2970.00           1489       21491.00     93914.19
 1154.93        2970.25           1492       19983.00     87304.66
 1154.96        2970.50           1496       17936.00     78336.90
 1154.99        2970.75           1499       16220.00     70822.94
 1155.02        2971.00           1502       14732.00     64310.10
 1155.05        2971.25           1506       12455.00     54348.79
 1155.08        2971.50           1509       10669.00     46539.65
 1155.11        2971.75           1513        8478.00     36964.68
 1155.15        2972.00           1516        6879.00     29980.31
 1155.18        2972.25           1519        5146.00     22413.94
 1155.21        2972.50           1523        3045.00     13245.46
 1155.24        2972.75           1526        1679.00      7287.12
 1155.27        2973.00           1529         707.00      3048.67
 1155.30        2973.25           1533         394.00      1684.04
 1155.33        2973.50           1536         318.00      1352.71
 1155.36        2973.75           1539         277.00      1173.97
 1155.39        2974.00           1543         234.00       986.52
 1155.42        2974.25           1546         160.00       663.92
 1155.45        2974.50           1549         120.00       489.55
 1155.48        2974.75           1553          85.00       336.97
 1155.51        2975.00           1556          63.00       241.07
 1155.55        2975.25           1559          52.00       193.11
 1155.58        2975.50           1563          46.00       166.96
 1155.61        2975.75           1566          42.00       149.52
 1155.64        2976.00           1569          43.00       153.88
 1155.67        2976.25           1573          46.00       166.96
 1155.70        2976.50           1576          41.00       145.16
 1155.73        2976.75           1579          47.00       171.32
 1155.76        2977.00           1583          51.00       188.75
 1155.79        2977.25           1586          49.00       180.04
 1155.82        2977.50           1590          49.00       180.04
 1155.85        2977.75           1593          46.00       166.96
 1155.88        2978.00           1596          48.00       175.68
 1155.91        2978.25           1600          46.00       166.96
 1155.95        2978.50           1603          46.00       166.96
 1155.98        2978.75           1606          57.00       214.91
 1156.01        2979.00           1610          52.00       193.11
 1156.04        2979.25           1613          42.00       149.52
 1156.07        2979.50           1616          41.00       145.16
 1156.10        2979.75           1620          46.00       166.96
 1156.13        2980.00           1623          42.00       149.52
 1156.16        2980.25           1626          45.00       162.60
 1156.19        2980.50           1630          45.00       162.60
 1156.22        2980.75           1633          37.00       127.72
 1156.25        2981.00           1637          40.00       140.80
 1156.28        2981.25           1640          48.00       175.68
 1156.31        2981.50           1643          46.00       166.96
 1156.34        2981.75           1647          45.00       162.60
 1156.38        2982.00           1650          46.00       166.96
 1156.41        2982.25           1653          51.00       188.75
 1156.44        2982.50           1657          42.00       149.52
 1156.47        2982.75           1660          47.00       171.32
 1156.50        2983.00           1663          45.00       162.60
 1156.53        2983.25           1667          42.00       149.52
 1156.56        2983.50           1670          52.00       193.11
 1156.59        2983.75           1673          39.00       136.44
 1156.62        2984.00           1677          38.00       132.08
HS scan finished at 19:16:50
end
