************************************************************
  HS Scan of (1) Internal mercury lamp
************************************************************
Integration time is 0.2294 seconds per sample
dh070317Manchester 53.47 2.23 2.750537pr1000
************************************************************
Dead Time -------------------------  3E-08 
Number of Cycles Used -------------  4 
Starting Wavelength (Angstroms) ---  2950 
Final Wavelength (Angstoms) -------  2984 
Wavelength Increment (Angstroms) --  .25 
Filter Wheel #1 Position ---------- (1) Ground quartz diffuser (ND=2.32)
Filter Wheel #2 Position ---------- (1) Neutral Density 0.494



************************************************************
HS scan start time = 03:49:09
Dark Count =  4.9 


Time (GMT)  Wavelength (Ang)  Step Number  Raw Counts  Counts/Second

  229.51        2950.00           1222          47.00       183.52
  229.58        2950.25           1226          51.00       200.96
  229.61        2950.50           1229          55.00       218.40
  229.64        2950.75           1232          47.00       183.52
  229.67        2951.00           1236          48.00       187.88
  229.70        2951.25           1239          48.00       187.88
  229.73        2951.50           1242          48.00       187.88
  229.76        2951.75           1246          53.00       209.68
  229.79        2952.00           1249          42.00       161.73
  229.83        2952.25           1252          46.00       179.16
  229.86        2952.50           1256          52.00       205.32
  229.89        2952.75           1259          49.00       192.24
  229.92        2953.00           1262          42.00       161.73
  229.95        2953.25           1266          44.00       170.45
  229.98        2953.50           1269          39.00       148.65
  230.01        2953.75           1272          44.00       170.45
  230.04        2954.00           1276          45.00       174.80
  230.07        2954.25           1279          46.00       179.16
  230.10        2954.50           1282          50.00       196.60
  230.13        2954.75           1286          47.00       183.52
  230.16        2955.00           1289          48.00       187.88
  230.20        2955.25           1292          48.00       187.88
  230.23        2955.50           1296          49.00       192.24
  230.26        2955.75           1299          44.00       170.45
  230.29        2956.00           1302          44.00       170.45
  230.32        2956.25           1306          41.00       157.37
  230.35        2956.50           1309          40.00       153.01
  230.38        2956.75           1312          52.00       205.32
  230.41        2957.00           1316          50.00       196.60
  230.44        2957.25           1319          44.00       170.45
  230.48        2957.50           1322          46.00       179.16
  230.51        2957.75           1326          52.00       205.32
  230.54        2958.00           1329          42.00       161.73
  230.57        2958.25           1332          54.00       214.04
  230.60        2958.50           1336          37.00       139.93
  230.63        2958.75           1339          48.00       187.88
  230.66        2959.00           1342          51.00       200.96
  230.69        2959.25           1346          47.00       183.52
  230.72        2959.50           1349          50.00       196.60
  230.76        2959.75           1352          60.00       240.19
  230.79        2960.00           1356          88.00       362.25
  230.82        2960.25           1359         111.00       462.52
  230.85        2960.50           1362         159.00       671.77
  230.88        2960.75           1366         218.00       928.97
  230.91        2961.00           1369         270.00      1155.66
  230.94        2961.25           1372         305.00      1308.25
  230.97        2961.50           1376         364.00      1565.46
  231.00        2961.75           1379         529.00      2284.81
  231.03        2962.00           1382        1009.00      4377.65
  231.06        2962.25           1386        2670.00     11621.75
  231.09        2962.50           1389        4259.00     18554.79
  231.12        2962.75           1392        5843.00     25468.89
  231.16        2963.00           1396        7846.00     34216.01
  231.19        2963.25           1399        9502.00     41451.25
  231.22        2963.50           1402       11127.00     48554.11
  231.25        2963.75           1406       13342.00     58240.73
  231.28        2964.00           1409       15054.00     65731.50
  231.31        2964.25           1412       17039.00     74420.99
  231.34        2964.50           1416       19244.00     84078.86
  231.37        2964.75           1419       20823.00     90998.31
  231.40        2965.00           1422       22551.00     98573.99
  231.44        2965.25           1426       24736.00    108158.10
  231.47        2965.50           1429       26541.00    116079.60
  231.50        2965.75           1432       28083.00    122849.90
  231.53        2966.00           1436       30459.00    133287.40
  231.56        2966.25           1439       31500.00    137862.40
  231.59        2966.50           1442       33258.00    145591.40
  231.62        2966.75           1446       35110.00    153737.50
  231.65        2967.00           1449       35652.00    156122.30
  231.68        2967.25           1452       35918.00    157292.80
  231.71        2967.50           1456       35973.00    157534.90
  231.75        2967.75           1459       35950.00    157433.60
  231.78        2968.00           1462       35784.00    156703.10
  231.81        2968.25           1466       34886.00    152752.00
  231.84        2968.50           1469       33572.00    146972.20
  231.87        2968.75           1472       32310.00    141423.10
  231.90        2969.00           1476       30259.00    132408.50
  231.93        2969.25           1479       28539.00    124852.60
  231.96        2969.50           1482       26595.00    116316.70
  231.99        2969.75           1486       24420.00    106771.70
  232.02        2970.00           1489       22777.00     99565.05
  232.06        2970.25           1492       21128.00     92335.19
  232.09        2970.50           1496       18982.00     82931.01
  232.12        2970.75           1499       17277.00     75463.15
  232.15        2971.00           1502       15719.00     68642.08
  232.18        2971.25           1506       13517.00     59006.28
  232.21        2971.50           1509       11818.00     51575.38
  232.24        2971.75           1513        9516.00     41512.43
  232.27        2972.00           1516        8000.00     34888.72
  232.31        2972.25           1519        6227.00     27145.47
  232.34        2972.50           1523        4236.00     18454.42
  232.37        2972.75           1526        2578.00     11220.43
  232.40        2973.00           1529        1332.00      5786.10
  232.43        2973.25           1533         510.00      2201.98
  232.46        2973.50           1536         349.00      1500.07
  232.49        2973.75           1539         310.00      1330.04
  232.52        2974.00           1543         257.00      1098.99
  232.55        2974.25           1546         201.00       854.86
  232.58        2974.50           1549         151.00       636.89
  232.61        2974.75           1553         103.00       427.64
  232.64        2975.00           1556          75.00       305.58
  232.68        2975.25           1559          56.00       222.76
  232.71        2975.50           1563          59.00       235.83
  232.74        2975.75           1566          48.00       187.88
  232.77        2976.00           1569          47.00       183.52
  232.80        2976.25           1573          43.00       166.09
  232.83        2976.50           1576          50.00       196.60
  232.86        2976.75           1579          40.00       153.01
  232.89        2977.00           1583          38.00       144.29
  232.92        2977.25           1586          47.00       183.52
  232.95        2977.50           1590          48.00       187.88
  232.98        2977.75           1593          49.00       192.24
  233.01        2978.00           1596          48.00       187.88
  233.05        2978.25           1600          44.00       170.45
  233.08        2978.50           1603          40.00       153.01
  233.11        2978.75           1606          37.00       139.93
  233.14        2979.00           1610          46.00       179.16
  233.17        2979.25           1613          42.00       161.73
  233.20        2979.50           1616          59.00       235.83
  233.23        2979.75           1620          39.00       148.65
  233.26        2980.00           1623          43.00       166.09
  233.29        2980.25           1626          39.00       148.65
  233.32        2980.50           1630          42.00       161.73
  233.35        2980.75           1633          41.00       157.37
  233.39        2981.00           1637          38.00       144.29
  233.42        2981.25           1640          43.00       166.09
  233.45        2981.50           1643          54.00       214.04
  233.48        2981.75           1647          47.00       183.52
  233.51        2982.00           1650          42.00       161.73
  233.54        2982.25           1653          48.00       187.88
  233.57        2982.50           1657          41.00       157.37
  233.60        2982.75           1660          43.00       166.09
  233.63        2983.00           1663          42.00       161.73
  233.66        2983.25           1667          47.00       183.52
  233.69        2983.50           1670          41.00       157.37
  233.72        2983.75           1673          44.00       170.45
  233.75        2984.00           1677          52.00       205.32
HS scan finished at 03:53:58
end
************************************************************
  HS Scan of (1) Internal mercury lamp
************************************************************
Integration time is 0.2294 seconds per sample
dh070317Manchester 53.47 2.23 2.804185pr1000
************************************************************
Dead Time -------------------------  3E-08 
Number of Cycles Used -------------  4 
Starting Wavelength (Angstroms) ---  2950 
Final Wavelength (Angstoms) -------  2984 
Wavelength Increment (Angstroms) --  .25 
Filter Wheel #1 Position ---------- (1) Ground quartz diffuser (ND=2.32)
Filter Wheel #2 Position ---------- (1) Neutral Density 0.494



************************************************************
HS scan start time = 19:12:02
Dark Count =  6.7 


Time (GMT)  Wavelength (Ang)  Step Number  Raw Counts  Counts/Second

 1152.41        2950.00           1222          42.00       153.88
 1152.48        2950.25           1226          44.00       162.60
 1152.51        2950.50           1229          43.00       158.24
 1152.54        2950.75           1232          51.00       193.11
 1152.57        2951.00           1236          45.00       166.96
 1152.60        2951.25           1239          49.00       184.40
 1152.63        2951.50           1242          43.00       158.24
 1152.66        2951.75           1246          47.00       175.68
 1152.69        2952.00           1249          44.00       162.60
 1152.72        2952.25           1252          52.00       197.47
 1152.75        2952.50           1256          46.00       171.32
 1152.78        2952.75           1259          39.00       140.80
 1152.82        2953.00           1262          45.00       166.96
 1152.85        2953.25           1266          42.00       153.88
 1152.88        2953.50           1269          47.00       175.68
 1152.91        2953.75           1272          42.00       153.88
 1152.94        2954.00           1276          46.00       171.32
 1152.97        2954.25           1279          47.00       175.68
 1153.00        2954.50           1282          45.00       166.96
 1153.03        2954.75           1286          53.00       201.83
 1153.06        2955.00           1289          46.00       171.32
 1153.10        2955.25           1292          40.00       145.16
 1153.13        2955.50           1296          45.00       166.96
 1153.16        2955.75           1299          41.00       149.52
 1153.19        2956.00           1302          50.00       188.75
 1153.22        2956.25           1306          40.00       145.16
 1153.25        2956.50           1309          47.00       175.68
 1153.28        2956.75           1312          48.00       180.04
 1153.31        2957.00           1316          46.00       171.32
 1153.34        2957.25           1319          53.00       201.83
 1153.38        2957.50           1322          49.00       184.40
 1153.41        2957.75           1326          49.00       184.40
 1153.44        2958.00           1329          47.00       175.68
 1153.47        2958.25           1332          52.00       197.47
 1153.50        2958.50           1336          51.00       193.11
 1153.53        2958.75           1339          48.00       180.04
 1153.56        2959.00           1342          49.00       184.40
 1153.59        2959.25           1346          40.00       145.16
 1153.62        2959.50           1349          44.00       162.60
 1153.65        2959.75           1352          64.00       249.78
 1153.68        2960.00           1356          84.00       336.97
 1153.71        2960.25           1359         107.00       437.23
 1153.75        2960.50           1362         152.00       633.40
 1153.78        2960.75           1366         208.00       877.53
 1153.81        2961.00           1369         252.00      1069.35
 1153.84        2961.25           1372         290.00      1235.01
 1153.87        2961.50           1376         383.00      1640.45
 1153.90        2961.75           1379         599.00      2582.15
 1153.93        2962.00           1382        1202.00      5211.36
 1153.96        2962.25           1386        2879.00     12525.63
 1153.99        2962.50           1389        4433.00     19306.30
 1154.02        2962.75           1392        5991.00     26107.19
 1154.05        2963.00           1396        8281.00     36108.41
 1154.08        2963.25           1399        9812.00     42798.16
 1154.11        2963.50           1402       11496.00     50159.56
 1154.15        2963.75           1406       13638.00     59527.75
 1154.18        2964.00           1409       15327.00     66918.43
 1154.21        2964.25           1412       17149.00     74894.78
 1154.24        2964.50           1416       19341.00     84495.96
 1154.27        2964.75           1419       21074.00     92090.60
 1154.30        2965.00           1422       22743.00     99408.06
 1154.33        2965.25           1426       24917.00    108944.40
 1154.36        2965.50           1429       26676.00    116664.40
 1154.39        2965.75           1432       28487.00    124616.30
 1154.43        2966.00           1436       30635.00    134052.90
 1154.46        2966.25           1439       32236.00    141089.90
 1154.49        2966.50           1442       33750.00    147747.20
 1154.52        2966.75           1446       35268.00    154424.80
 1154.55        2967.00           1449       35652.00    156114.40
 1154.58        2967.25           1452       35429.00    155133.10
 1154.61        2967.50           1456       35524.00    155551.10
 1154.64        2967.75           1459       35460.00    155269.50
 1154.67        2968.00           1462       35299.00    154561.10
 1154.70        2968.25           1466       34441.00    150786.50
 1154.74        2968.50           1469       32994.00    144422.60
 1154.77        2968.75           1472       31424.00    137520.40
 1154.80        2969.00           1476       29248.00    127958.90
 1154.83        2969.25           1479       27479.00    120189.80
 1154.86        2969.50           1482       25928.00    113381.10
 1154.89        2969.75           1486       23887.00    104425.60
 1154.92        2970.00           1489       22265.00     97312.02
 1154.95        2970.25           1492       20583.00     89938.51
 1154.98        2970.50           1496       18663.00     81525.66
 1155.02        2970.75           1499       16885.00     73738.80
 1155.05        2971.00           1502       15318.00     66879.04
 1155.08        2971.25           1506       13164.00     57454.22
 1155.11        2971.50           1509       11604.00     50631.78
 1155.14        2971.75           1513        9159.00     39944.52
 1155.17        2972.00           1516        7603.00     33146.72
 1155.20        2972.25           1519        5980.00     26059.16
 1155.23        2972.50           1523        3830.00     16674.86
 1155.26        2972.75           1526        2328.00     10122.08
 1155.30        2973.00           1529        1206.00      5228.81
 1155.33        2973.25           1533         499.00      2146.17
 1155.36        2973.50           1536         360.00      1540.18
 1155.39        2973.75           1539         303.00      1291.68
 1155.42        2974.00           1543         252.00      1069.35
 1155.45        2974.25           1546         195.00       820.86
 1155.48        2974.50           1549         152.00       633.40
 1155.51        2974.75           1553         108.00       441.59
 1155.54        2975.00           1556          70.00       275.94
 1155.57        2975.25           1559          61.00       236.71
 1155.60        2975.50           1563          54.00       206.19
 1155.63        2975.75           1566          51.00       193.11
 1155.67        2976.00           1569          54.00       206.19
 1155.70        2976.25           1573          54.00       206.19
 1155.73        2976.50           1576          56.00       214.91
 1155.76        2976.75           1579          42.00       153.88
 1155.79        2977.00           1583          40.00       145.16
 1155.82        2977.25           1586          48.00       180.04
 1155.85        2977.50           1590          48.00       180.04
 1155.88        2977.75           1593          49.00       184.40
 1155.91        2978.00           1596          50.00       188.75
 1155.94        2978.25           1600          46.00       171.32
 1155.97        2978.50           1603          41.00       149.52
 1156.01        2978.75           1606          46.00       171.32
 1156.04        2979.00           1610          43.00       158.24
 1156.07        2979.25           1613          44.00       162.60
 1156.10        2979.50           1616          42.00       153.88
 1156.13        2979.75           1620          50.00       188.75
 1156.16        2980.00           1623          44.00       162.60
 1156.19        2980.25           1626          52.00       197.47
 1156.22        2980.50           1630          42.00       153.88
 1156.25        2980.75           1633          46.00       171.32
 1156.28        2981.00           1637          44.00       162.60
 1156.31        2981.25           1640          47.00       175.68
 1156.35        2981.50           1643          44.00       162.60
 1156.38        2981.75           1647          44.00       162.60
 1156.41        2982.00           1650          44.00       162.60
 1156.44        2982.25           1653          41.00       149.52
 1156.47        2982.50           1657          46.00       171.32
 1156.50        2982.75           1660          42.00       153.88
 1156.53        2983.00           1663          47.00       175.68
 1156.56        2983.25           1667          47.00       175.68
 1156.59        2983.50           1670          44.00       162.60
 1156.62        2983.75           1673          49.00       184.40
 1156.65        2984.00           1677          45.00       166.96
HS scan finished at 19:16:52
end
