************************************************************
  HS Scan of (1) Internal mercury lamp
************************************************************
Integration time is 0.2294 seconds per sample
dh090319Manchester 53.47 2.23 2.804185pr1000
************************************************************
Dead Time -------------------------  3E-08 
Number of Cycles Used -------------  4 
Starting Wavelength (Angstroms) ---  2950 
Final Wavelength (Angstoms) -------  2984 
Wavelength Increment (Angstroms) --  .25 
Filter Wheel #1 Position ---------- (1) Ground quartz diffuser (ND=2.32)
Filter Wheel #2 Position ---------- (1) Neutral Density 0.494



************************************************************
HS scan start time = 03:44:35
Dark Count =  3.9 


Time (GMT)  Wavelength (Ang)  Step Number  Raw Counts  Counts/Second

  224.96        2950.00           1222          60.00       244.55
  225.02        2950.25           1226          58.00       235.83
  225.05        2950.50           1229          55.00       222.76
  225.09        2950.75           1232          55.00       222.76
  225.12        2951.00           1236          61.00       248.91
  225.15        2951.25           1239          51.00       205.32
  225.18        2951.50           1242          51.00       205.32
  225.21        2951.75           1246          56.00       227.12
  225.24        2952.00           1249          53.00       214.04
  225.27        2952.25           1252          49.00       196.60
  225.30        2952.50           1256          53.00       214.04
  225.34        2952.75           1259          49.00       196.60
  225.37        2953.00           1262          57.00       231.48
  225.40        2953.25           1266          57.00       231.48
  225.43        2953.50           1269          54.00       218.40
  225.46        2953.75           1272          51.00       205.32
  225.49        2954.00           1276          54.00       218.40
  225.52        2954.25           1279          49.00       196.60
  225.55        2954.50           1282          52.00       209.68
  225.58        2954.75           1286          55.00       222.76
  225.61        2955.00           1289          53.00       214.04
  225.65        2955.25           1292          51.00       205.32
  225.68        2955.50           1296          58.00       235.83
  225.71        2955.75           1299          57.00       231.48
  225.74        2956.00           1302          52.00       209.68
  225.77        2956.25           1306          51.00       205.32
  225.80        2956.50           1309          52.00       209.68
  225.83        2956.75           1312          57.00       231.48
  225.86        2957.00           1316          58.00       235.83
  225.89        2957.25           1319          52.00       209.68
  225.92        2957.50           1322          50.00       200.96
  225.96        2957.75           1326          53.00       214.04
  225.99        2958.00           1329          60.00       244.55
  226.02        2958.25           1332          51.00       205.32
  226.05        2958.50           1336          57.00       231.48
  226.08        2958.75           1339          57.00       231.48
  226.11        2959.00           1342          56.00       227.12
  226.14        2959.25           1346          53.00       214.04
  226.17        2959.50           1349          64.00       261.99
  226.20        2959.75           1352          68.00       279.43
  226.23        2960.00           1356          79.00       327.38
  226.26        2960.25           1359         114.00       479.95
  226.30        2960.50           1362         147.00       623.81
  226.33        2960.75           1366         179.00       763.31
  226.36        2961.00           1369         217.00       928.97
  226.39        2961.25           1372         251.00      1077.19
  226.42        2961.50           1376         290.00      1247.21
  226.45        2961.75           1379         371.00      1600.34
  226.48        2962.00           1382         719.00      3117.55
  226.51        2962.25           1386        1848.00      8040.74
  226.54        2962.50           1389        2966.00     12917.39
  226.58        2962.75           1392        4129.00     17991.84
  226.61        2963.00           1396        5686.00     24787.83
  226.64        2963.25           1399        6865.00     29935.77
  226.67        2963.50           1402        8185.00     35701.25
  226.70        2963.75           1406        9820.00     42845.36
  226.73        2964.00           1409       11121.00     48532.24
  226.76        2964.25           1412       12307.00     53718.15
  226.79        2964.50           1416       14101.00     61565.65
  226.82        2964.75           1419       15201.00     66379.22
  226.86        2965.00           1422       16249.00     70966.53
  226.89        2965.25           1426       18045.00     78830.94
  226.92        2965.50           1429       19247.00     84096.38
  226.95        2965.75           1432       20345.00     88907.71
  226.98        2966.00           1436       22189.00     96991.05
  227.01        2966.25           1439       23215.00    101490.30
  227.04        2966.50           1442       24437.00    106850.70
  227.07        2966.75           1446       25678.00    112296.20
  227.10        2967.00           1449       26368.00    115324.60
  227.14        2967.25           1452       26521.00    115996.20
  227.17        2967.50           1456       26429.00    115592.40
  227.20        2967.75           1459       26509.00    115943.60
  227.23        2968.00           1462       26294.00    114999.80
  227.26        2968.25           1466       26003.00    113722.60
  227.29        2968.50           1469       25047.00    109527.10
  227.32        2968.75           1472       23908.00    104530.00
  227.35        2969.00           1476       22449.00     98131.10
  227.38        2969.25           1479       21288.00     93040.94
  227.42        2969.50           1482       20104.00     87851.55
  227.45        2969.75           1486       18277.00     79847.10
  227.48        2970.00           1489       17077.00     74591.76
  227.51        2970.25           1492       15946.00     69640.11
  227.54        2970.50           1496       14534.00     63460.29
  227.57        2970.75           1499       13252.00     57851.40
  227.60        2971.00           1502       12053.00     52607.38
  227.63        2971.25           1506       10472.00     45695.12
  227.66        2971.50           1509        9262.00     40406.85
  227.70        2971.75           1513        7630.00     33276.89
  227.73        2972.00           1516        6406.00     27931.42
  227.76        2972.25           1519        5086.00     22168.62
  227.79        2972.50           1523        3592.00     15648.58
  227.82        2972.75           1526        2446.00     10649.00
  227.85        2973.00           1529        1258.00      5467.77
  227.88        2973.25           1533         416.00      1796.52
  227.91        2973.50           1536         300.00      1290.81
  227.94        2973.75           1539         243.00      1042.32
  227.98        2974.00           1543         228.00       976.92
  228.01        2974.25           1546         147.00       623.81
  228.04        2974.50           1549         110.00       462.52
  228.07        2974.75           1553          89.00       370.97
  228.10        2975.00           1556          77.00       318.66
  228.13        2975.25           1559          62.00       253.27
  228.16        2975.50           1563          54.00       218.40
  228.19        2975.75           1566          60.00       244.55
  228.22        2976.00           1569          40.00       157.37
  228.25        2976.25           1573          54.00       218.40
  228.28        2976.50           1576          50.00       200.96
  228.31        2976.75           1579          58.00       235.83
  228.34        2977.00           1583          51.00       205.32
  228.38        2977.25           1586          48.00       192.24
  228.41        2977.50           1590          48.00       192.24
  228.44        2977.75           1593          44.00       174.80
  228.47        2978.00           1596          49.00       196.60
  228.50        2978.25           1600          49.00       196.60
  228.53        2978.50           1603          58.00       235.83
  228.56        2978.75           1606          56.00       227.12
  228.59        2979.00           1610          51.00       205.32
  228.62        2979.25           1613          47.00       187.88
  228.65        2979.50           1616          54.00       218.40
  228.68        2979.75           1620          56.00       227.12
  228.72        2980.00           1623          49.00       196.60
  228.75        2980.25           1626          54.00       218.40
  228.78        2980.50           1630          45.00       179.16
  228.81        2980.75           1633          50.00       200.96
  228.84        2981.00           1637          51.00       205.32
  228.87        2981.25           1640          54.00       218.40
  228.90        2981.50           1643          53.00       214.04
  228.93        2981.75           1647          58.00       235.83
  228.96        2982.00           1650          48.00       192.24
  228.99        2982.25           1653          50.00       200.96
  229.03        2982.50           1657          43.00       170.45
  229.06        2982.75           1660          50.00       200.96
  229.09        2983.00           1663          57.00       231.48
  229.12        2983.25           1667          52.00       209.68
  229.15        2983.50           1670          50.00       200.96
  229.18        2983.75           1673          49.00       196.60
  229.21        2984.00           1677          49.00       196.60
HS scan finished at 03:49:26
end
************************************************************
  HS Scan of (1) Internal mercury lamp
************************************************************
Integration time is 0.2294 seconds per sample
dh090319Manchester 53.47 2.23 2.804185pr1000
************************************************************
Dead Time -------------------------  3E-08 
Number of Cycles Used -------------  4 
Starting Wavelength (Angstroms) ---  2950 
Final Wavelength (Angstoms) -------  2984 
Wavelength Increment (Angstroms) --  .25 
Filter Wheel #1 Position ---------- (1) Ground quartz diffuser (ND=2.32)
Filter Wheel #2 Position ---------- (1) Neutral Density 0.494



************************************************************
HS scan start time = 19:12:06
Dark Count =  5.4 


Time (GMT)  Wavelength (Ang)  Step Number  Raw Counts  Counts/Second

 1152.47        2950.00           1222          61.00       242.37
 1152.53        2950.25           1226          55.00       216.22
 1152.56        2950.50           1229          53.00       207.50
 1152.59        2950.75           1232          55.00       216.22
 1152.62        2951.00           1236          60.00       238.01
 1152.66        2951.25           1239          50.00       194.42
 1152.69        2951.50           1242          51.00       198.78
 1152.72        2951.75           1246          70.00       281.61
 1152.75        2952.00           1249          50.00       194.42
 1152.78        2952.25           1252          54.00       211.86
 1152.81        2952.50           1256          62.00       246.73
 1152.84        2952.75           1259          58.00       229.30
 1152.87        2953.00           1262          54.00       211.86
 1152.90        2953.25           1266          59.00       233.65
 1152.93        2953.50           1269          54.00       211.86
 1152.97        2953.75           1272          52.00       203.14
 1153.00        2954.00           1276          60.00       238.01
 1153.03        2954.25           1279          52.00       203.14
 1153.06        2954.50           1282          58.00       229.30
 1153.09        2954.75           1286          51.00       198.78
 1153.12        2955.00           1289          59.00       233.65
 1153.15        2955.25           1292          52.00       203.14
 1153.18        2955.50           1296          50.00       194.42
 1153.21        2955.75           1299          55.00       216.22
 1153.24        2956.00           1302          63.00       251.09
 1153.27        2956.25           1306          55.00       216.22
 1153.31        2956.50           1309          50.00       194.42
 1153.34        2956.75           1312          54.00       211.86
 1153.37        2957.00           1316          52.00       203.14
 1153.40        2957.25           1319          55.00       216.22
 1153.43        2957.50           1322          52.00       203.14
 1153.46        2957.75           1326          61.00       242.37
 1153.49        2958.00           1329          59.00       233.65
 1153.52        2958.25           1332          62.00       246.73
 1153.55        2958.50           1336          56.00       220.58
 1153.58        2958.75           1339          57.00       224.94
 1153.61        2959.00           1342          55.00       216.22
 1153.64        2959.25           1346          58.00       229.30
 1153.67        2959.50           1349          58.00       229.30
 1153.71        2959.75           1352          68.00       272.89
 1153.74        2960.00           1356          79.00       320.84
 1153.77        2960.25           1359          98.00       403.67
 1153.80        2960.50           1362         117.00       486.49
 1153.83        2960.75           1366         168.00       708.82
 1153.86        2961.00           1369         211.00       896.28
 1153.89        2961.25           1372         231.00       983.46
 1153.92        2961.50           1376         285.00      1218.88
 1153.95        2961.75           1379         379.00      1628.68
 1153.99        2962.00           1382         695.00      3006.37
 1154.02        2962.25           1386        1867.00      8117.06
 1154.05        2962.50           1389        3049.00     13272.94
 1154.08        2962.75           1392        4154.00     18094.39
 1154.11        2963.00           1396        5733.00     24986.46
 1154.14        2963.25           1399        6922.00     30178.14
 1154.17        2963.50           1402        8123.00     35423.85
 1154.20        2963.75           1406        9863.00     43026.74
 1154.23        2964.00           1409       11204.00     48888.57
 1154.27        2964.25           1412       12427.00     54236.39
 1154.30        2964.50           1416       14006.00     61143.44
 1154.33        2964.75           1419       15342.00     66989.77
 1154.36        2965.00           1422       16478.00     71962.52
 1154.39        2965.25           1426       18115.00     79130.96
 1154.42        2965.50           1429       19464.00     85040.56
 1154.45        2965.75           1432       20510.00     89624.26
 1154.49        2966.00           1436       22302.00     97479.94
 1154.52        2966.25           1439       23431.00    102431.10
 1154.55        2966.50           1442       24395.00    106659.90
 1154.58        2966.75           1446       25799.00    112820.60
 1154.61        2967.00           1449       26052.00    113931.00
 1154.64        2967.25           1452       26133.00    114286.60
 1154.67        2967.50           1456       26243.00    114769.40
 1154.70        2967.75           1459       26159.00    114400.70
 1154.73        2968.00           1462       26153.00    114374.30
 1154.77        2968.25           1466       25362.00    110902.80
 1154.80        2968.50           1469       24560.00    107383.80
 1154.83        2968.75           1472       23505.00    102755.70
 1154.86        2969.00           1476       21881.00     95634.06
 1154.89        2969.25           1479       20573.00     89900.38
 1154.92        2969.50           1482       19458.00     85014.28
 1154.95        2969.75           1486       17699.00     77309.00
 1154.98        2970.00           1489       16528.00     72181.43
 1155.01        2970.25           1492       15465.00     67528.11
 1155.04        2970.50           1496       13901.00     60684.05
 1155.08        2970.75           1499       12640.00     55167.96
 1155.11        2971.00           1502       11463.00     50020.96
 1155.14        2971.25           1506       10003.00     43638.61
 1155.17        2971.50           1509        8741.00     38123.79
 1155.20        2971.75           1513        7240.00     31566.94
 1155.23        2972.00           1516        6080.00     26501.45
 1155.26        2972.25           1519        4803.00     20926.82
 1155.29        2972.50           1523        3280.00     14280.75
 1155.32        2972.75           1526        2100.00      9133.28
 1155.36        2973.00           1529        1043.00      4523.72
 1155.39        2973.25           1533         432.00      1859.74
 1155.42        2973.50           1536         291.00      1245.03
 1155.45        2973.75           1539         244.00      1040.14
 1155.48        2974.00           1543         194.00       822.17
 1155.51        2974.25           1546         163.00       687.02
 1155.54        2974.50           1549         125.00       521.37
 1155.57        2974.75           1553          93.00       381.87
 1155.60        2975.00           1556          66.00       264.17
 1155.63        2975.25           1559          61.00       242.37
 1155.66        2975.50           1563          51.00       198.78
 1155.70        2975.75           1566          55.00       216.22
 1155.73        2976.00           1569          57.00       224.94
 1155.76        2976.25           1573          53.00       207.50
 1155.79        2976.50           1576          47.00       181.34
 1155.82        2976.75           1579          52.00       203.14
 1155.85        2977.00           1583          56.00       220.58
 1155.88        2977.25           1586          59.00       233.65
 1155.91        2977.50           1590          49.00       190.06
 1155.94        2977.75           1593          53.00       207.50
 1155.97        2978.00           1596          53.00       207.50
 1156.00        2978.25           1600          47.00       181.34
 1156.03        2978.50           1603          49.00       190.06
 1156.06        2978.75           1606          48.00       185.70
 1156.09        2979.00           1610          61.00       242.37
 1156.12        2979.25           1613          50.00       194.42
 1156.16        2979.50           1616          52.00       203.14
 1156.19        2979.75           1620          51.00       198.78
 1156.22        2980.00           1623          50.00       194.42
 1156.25        2980.25           1626          54.00       211.86
 1156.28        2980.50           1630          48.00       185.70
 1156.31        2980.75           1633          47.00       181.34
 1156.34        2981.00           1637          46.00       176.98
 1156.37        2981.25           1640          49.00       190.06
 1156.40        2981.50           1643          52.00       203.14
 1156.44        2981.75           1647          52.00       203.14
 1156.47        2982.00           1650          50.00       194.42
 1156.50        2982.25           1653          47.00       181.34
 1156.53        2982.50           1657          56.00       220.58
 1156.56        2982.75           1660          51.00       198.78
 1156.59        2983.00           1663          50.00       194.42
 1156.62        2983.25           1667          58.00       229.30
 1156.65        2983.50           1670          54.00       211.86
 1156.68        2983.75           1673          51.00       198.78
 1156.71        2984.00           1677          57.00       224.94
HS scan finished at 19:16:56
end
