************************************************************
  HS Scan of (1) Internal mercury lamp
************************************************************
Integration time is 0.2294 seconds per sample
dh030319Manchester 53.47 2.23 2.804185pr1000
************************************************************
Dead Time -------------------------  3E-08 
Number of Cycles Used -------------  4 
Starting Wavelength (Angstroms) ---  2950 
Final Wavelength (Angstoms) -------  2984 
Wavelength Increment (Angstroms) --  .25 
Filter Wheel #1 Position ---------- (1) Ground quartz diffuser (ND=2.32)
Filter Wheel #2 Position ---------- (1) Neutral Density 0.494



************************************************************
HS scan start time = 04:02:35
Dark Count =  7.4 


Time (GMT)  Wavelength (Ang)  Step Number  Raw Counts  Counts/Second

  242.95        2950.00           1222          62.00       238.01
  243.02        2950.25           1226          67.00       259.81
  243.05        2950.50           1229          61.00       233.65
  243.08        2950.75           1232          56.00       211.86
  243.11        2951.00           1236          54.00       203.14
  243.14        2951.25           1239          76.00       299.04
  243.17        2951.50           1242          52.00       194.42
  243.20        2951.75           1246          49.00       181.34
  243.23        2952.00           1249          55.00       207.50
  243.26        2952.25           1252          56.00       211.86
  243.29        2952.50           1256          55.00       207.50
  243.32        2952.75           1259          61.00       233.65
  243.36        2953.00           1262          56.00       211.86
  243.39        2953.25           1266          50.00       185.70
  243.42        2953.50           1269          60.00       229.30
  243.45        2953.75           1272          53.00       198.78
  243.48        2954.00           1276          51.00       190.06
  243.51        2954.25           1279          55.00       207.50
  243.54        2954.50           1282          54.00       203.14
  243.57        2954.75           1286          48.00       176.98
  243.60        2955.00           1289          55.00       207.50
  243.63        2955.25           1292          58.00       220.58
  243.66        2955.50           1296          60.00       229.30
  243.70        2955.75           1299          52.00       194.42
  243.73        2956.00           1302          56.00       211.86
  243.76        2956.25           1306          52.00       194.42
  243.79        2956.50           1309          55.00       207.50
  243.82        2956.75           1312          52.00       194.42
  243.85        2957.00           1316          48.00       176.98
  243.88        2957.25           1319          62.00       238.01
  243.91        2957.50           1322          62.00       238.01
  243.94        2957.75           1326          53.00       198.78
  243.97        2958.00           1329          54.00       203.14
  244.01        2958.25           1332          59.00       224.94
  244.04        2958.50           1336          47.00       172.63
  244.07        2958.75           1339          50.00       185.70
  244.10        2959.00           1342          49.00       181.34
  244.13        2959.25           1346          58.00       220.58
  244.16        2959.50           1349          67.00       259.81
  244.19        2959.75           1352          75.00       294.68
  244.22        2960.00           1356          91.00       364.43
  244.25        2960.25           1359         119.00       486.49
  244.28        2960.50           1362         147.00       608.56
  244.31        2960.75           1366         188.00       787.29
  244.34        2961.00           1369         211.00       887.56
  244.37        2961.25           1372         251.00      1061.93
  244.41        2961.50           1376         326.00      1388.90
  244.44        2961.75           1379         458.00      1964.37
  244.47        2962.00           1382        1005.00      4349.30
  244.50        2962.25           1386        2399.00     10428.72
  244.53        2962.50           1389        3573.00     15550.41
  244.56        2962.75           1392        4767.00     20760.97
  244.59        2963.00           1396        6366.00     27741.47
  244.62        2963.25           1399        7476.00     32588.95
  244.66        2963.50           1402        8681.00     37852.90
  244.69        2963.75           1406       10318.00     45006.67
  244.72        2964.00           1409       11534.00     50322.65
  244.75        2964.25           1412       12833.00     56003.35
  244.78        2964.50           1416       14486.00     63234.93
  244.81        2964.75           1419       15746.00     68749.32
  244.84        2965.00           1422       16949.00     74015.96
  244.87        2965.25           1426       18729.00     81811.71
  244.90        2965.50           1429       19796.00     86486.52
  244.94        2965.75           1432       21047.00     91969.19
  244.97        2966.00           1436       22704.00     99233.94
  245.00        2966.25           1439       23831.00    104176.90
  245.03        2966.50           1442       24849.00    108643.00
  245.06        2966.75           1446       25944.00    113448.20
  245.09        2967.00           1449       26320.00    115098.60
  245.12        2967.25           1452       26262.00    114844.00
  245.15        2967.50           1456       26247.00    114778.20
  245.18        2967.75           1459       26234.00    114721.10
  245.21        2968.00           1462       26045.00    113891.50
  245.25        2968.25           1466       25298.00    110613.20
  245.28        2968.50           1469       24191.00    105756.10
  245.31        2968.75           1472       23037.00    100694.30
  245.34        2969.00           1476       21471.00     93827.82
  245.37        2969.25           1479       20510.00     89615.50
  245.40        2969.50           1482       19249.00     84089.81
  245.43        2969.75           1486       17691.00     77265.21
  245.46        2970.00           1489       16396.00     71594.76
  245.49        2970.25           1492       15305.00     66819.07
  245.53        2970.50           1496       13568.00     59218.45
  245.56        2970.75           1499       12332.00     53812.17
  245.59        2971.00           1502       11075.00     48315.85
  245.62        2971.25           1506        9528.00     41553.95
  245.65        2971.50           1509        8174.00     35637.91
  245.68        2971.75           1513        6577.00     28662.82
  245.71        2972.00           1516        5386.00     23462.89
  245.74        2972.25           1519        4290.00     18679.17
  245.77        2972.50           1523        2715.00     11807.15
  245.80        2972.75           1526        1641.00      7122.71
  245.84        2973.00           1529         723.00      3119.73
  245.87        2973.25           1533         366.00      1563.28
  245.90        2973.50           1536         265.00      1122.97
  245.93        2973.75           1539         245.00      1035.78
  245.96        2974.00           1543         194.00       813.45
  245.99        2974.25           1546         138.00       569.32
  246.02        2974.50           1549         112.00       455.98
  246.05        2974.75           1553          90.00       360.07
  246.08        2975.00           1556          74.00       290.33
  246.11        2975.25           1559          57.00       216.22
  246.14        2975.50           1563          53.00       198.78
  246.18        2975.75           1566          58.00       220.58
  246.21        2976.00           1569          51.00       190.06
  246.24        2976.25           1573          50.00       185.70
  246.27        2976.50           1576          56.00       211.86
  246.30        2976.75           1579          57.00       216.22
  246.33        2977.00           1583          55.00       207.50
  246.36        2977.25           1586          46.00       168.27
  246.39        2977.50           1590          47.00       172.63
  246.42        2977.75           1593          47.00       172.63
  246.45        2978.00           1596          48.00       176.98
  246.48        2978.25           1600          54.00       203.14
  246.52        2978.50           1603          54.00       203.14
  246.55        2978.75           1606          47.00       172.63
  246.58        2979.00           1610          48.00       176.98
  246.61        2979.25           1613          52.00       194.42
  246.64        2979.50           1616          47.00       172.63
  246.67        2979.75           1620          53.00       198.78
  246.70        2980.00           1623          54.00       203.14
  246.73        2980.25           1626          51.00       190.06
  246.76        2980.50           1630          45.00       163.91
  246.79        2980.75           1633          62.00       238.01
  246.82        2981.00           1637          51.00       190.06
  246.86        2981.25           1640          50.00       185.70
  246.89        2981.50           1643          45.00       163.91
  246.92        2981.75           1647          53.00       198.78
  246.95        2982.00           1650          48.00       176.98
  246.98        2982.25           1653          52.00       194.42
  247.01        2982.50           1657          51.00       190.06
  247.04        2982.75           1660          47.00       172.63
  247.07        2983.00           1663          55.00       207.50
  247.10        2983.25           1667          52.00       194.42
  247.14        2983.50           1670          47.00       172.63
  247.17        2983.75           1673          47.00       172.63
  247.20        2984.00           1677          45.00       163.91
HS scan finished at 04:07:25
end
