************************************************************
  HS Scan of (1) Internal mercury lamp
************************************************************
Integration time is 0.2294 seconds per sample
dh040319Manchester 53.47 2.23 2.804185pr1000
************************************************************
Dead Time -------------------------  3E-08 
Number of Cycles Used -------------  4 
Starting Wavelength (Angstroms) ---  2950 
Final Wavelength (Angstoms) -------  2984 
Wavelength Increment (Angstroms) --  .25 
Filter Wheel #1 Position ---------- (1) Ground quartz diffuser (ND=2.32)
Filter Wheel #2 Position ---------- (1) Neutral Density 0.494



************************************************************
HS scan start time = 18:42:09
Dark Count =  4.6 


Time (GMT)  Wavelength (Ang)  Step Number  Raw Counts  Counts/Second

 1122.52        2950.00           1222          51.00       202.27
 1122.59        2950.25           1226          50.00       197.91
 1122.62        2950.50           1229          54.00       215.35
 1122.65        2950.75           1232          60.00       241.50
 1122.68        2951.00           1236          64.00       258.94
 1122.71        2951.25           1239          53.00       210.99
 1122.75        2951.50           1242          57.00       228.42
 1122.78        2951.75           1246          56.00       224.06
 1122.81        2952.00           1249          54.00       215.35
 1122.84        2952.25           1252          51.00       202.27
 1122.87        2952.50           1256          64.00       258.94
 1122.90        2952.75           1259          53.00       210.99
 1122.93        2953.00           1262          56.00       224.06
 1122.96        2953.25           1266          58.00       232.78
 1122.99        2953.50           1269          57.00       228.42
 1123.03        2953.75           1272          48.00       189.19
 1123.06        2954.00           1276          51.00       202.27
 1123.09        2954.25           1279          57.00       228.42
 1123.12        2954.50           1282          52.00       206.63
 1123.15        2954.75           1286          57.00       228.42
 1123.18        2955.00           1289          51.00       202.27
 1123.21        2955.25           1292          49.00       193.55
 1123.25        2955.50           1296          62.00       250.22
 1123.28        2955.75           1299          48.00       189.19
 1123.31        2956.00           1302          55.00       219.71
 1123.34        2956.25           1306          57.00       228.42
 1123.37        2956.50           1309          50.00       197.91
 1123.40        2956.75           1312          61.00       245.86
 1123.43        2957.00           1316          54.00       215.35
 1123.46        2957.25           1319          62.00       250.22
 1123.49        2957.50           1322          57.00       228.42
 1123.53        2957.75           1326          50.00       197.91
 1123.56        2958.00           1329          66.00       267.66
 1123.59        2958.25           1332          52.00       206.63
 1123.62        2958.50           1336          55.00       219.71
 1123.65        2958.75           1339          48.00       189.19
 1123.68        2959.00           1342          56.00       224.06
 1123.71        2959.25           1346          55.00       219.71
 1123.74        2959.50           1349          56.00       224.06
 1123.77        2959.75           1352          71.00       289.45
 1123.80        2960.00           1356          89.00       367.92
 1123.83        2960.25           1359         107.00       446.39
 1123.86        2960.50           1362         144.00       607.68
 1123.90        2960.75           1366         181.00       768.98
 1123.93        2961.00           1369         209.00       891.04
 1123.96        2961.25           1372         256.00      1095.94
 1123.99        2961.50           1376         282.00      1209.29
 1124.02        2961.75           1379         381.00      1640.88
 1124.05        2962.00           1382         702.00      3040.38
 1124.08        2962.25           1386        1889.00      8216.50
 1124.11        2962.50           1389        3028.00     13184.81
 1124.14        2962.75           1392        4173.00     18180.80
 1124.18        2963.00           1396        5597.00     24396.23
 1124.21        2963.25           1399        6915.00     30151.06
 1124.24        2963.50           1402        8089.00     35278.82
 1124.27        2963.75           1406        9598.00     41872.10
 1124.30        2964.00           1409       10931.00     47698.55
 1124.33        2964.25           1412       12256.00     53492.06
 1124.36        2964.50           1416       13786.00     60184.42
 1124.39        2964.75           1419       15078.00     65837.85
 1124.42        2965.00           1422       16262.00     71020.38
 1124.46        2965.25           1426       18030.00     78762.18
 1124.49        2965.50           1429       19151.00     83672.72
 1124.52        2965.75           1432       20447.00     89351.66
 1124.55        2966.00           1436       22140.00     96773.13
 1124.58        2966.25           1439       23232.00    101561.80
 1124.61        2966.50           1442       24396.00    106667.70
 1124.64        2966.75           1446       25611.00    111999.10
 1124.67        2967.00           1449       26097.00    114132.10
 1124.70        2967.25           1452       26099.00    114140.80
 1124.74        2967.50           1456       26205.00    114606.10
 1124.77        2967.75           1459       26204.00    114601.70
 1124.80        2968.00           1462       26052.00    113934.60
 1124.83        2968.25           1466       25634.00    112100.00
 1124.86        2968.50           1469       24686.00    107940.10
 1124.89        2968.75           1472       23728.00    103737.30
 1124.92        2969.00           1476       22176.00     96930.99
 1124.95        2969.25           1479       20922.00     91433.56
 1124.99        2969.50           1482       19960.00     87217.46
 1125.02        2969.75           1486       18190.00     79462.96
 1125.05        2970.00           1489       17040.00     74426.68
 1125.08        2970.25           1492       15803.00     69011.09
 1125.11        2970.50           1496       14296.00     62415.81
 1125.14        2970.75           1499       13117.00     57257.82
 1125.17        2971.00           1502       11910.00     51978.99
 1125.20        2971.25           1506       10345.00     45136.93
 1125.23        2971.50           1509        9025.00     39368.18
 1125.26        2971.75           1513        7491.00     32666.70
 1125.30        2972.00           1516        6221.00     27120.58
 1125.33        2972.25           1519        5152.00     22453.66
 1125.36        2972.50           1523        3735.00     16269.49
 1125.39        2972.75           1526        2517.00     10955.65
 1125.42        2973.00           1529        1342.00      5831.01
 1125.45        2973.25           1533         470.00      2028.89
 1125.48        2973.50           1536         302.00      1296.48
 1125.51        2973.75           1539         244.00      1043.62
 1125.54        2974.00           1543         201.00       856.17
 1125.57        2974.25           1546         170.00       721.03
 1125.61        2974.50           1549         123.00       516.14
 1125.64        2974.75           1553          95.00       394.08
 1125.67        2975.00           1556          73.00       298.17
 1125.70        2975.25           1559          68.00       276.38
 1125.73        2975.50           1563          53.00       210.99
 1125.76        2975.75           1566          57.00       228.42
 1125.79        2976.00           1569          54.00       215.35
 1125.82        2976.25           1573          50.00       197.91
 1125.85        2976.50           1576          49.00       193.55
 1125.89        2976.75           1579          51.00       202.27
 1125.92        2977.00           1583          55.00       219.71
 1125.95        2977.25           1586          55.00       219.71
 1125.98        2977.50           1590          71.00       289.45
 1126.01        2977.75           1593          51.00       202.27
 1126.04        2978.00           1596          52.00       206.63
 1126.07        2978.25           1600          55.00       219.71
 1126.10        2978.50           1603          52.00       206.63
 1126.13        2978.75           1606          44.00       171.75
 1126.16        2979.00           1610          62.00       250.22
 1126.19        2979.25           1613          53.00       210.99
 1126.22        2979.50           1616          56.00       224.06
 1126.26        2979.75           1620          53.00       210.99
 1126.29        2980.00           1623          48.00       189.19
 1126.32        2980.25           1626          51.00       202.27
 1126.35        2980.50           1630          46.00       180.47
 1126.38        2980.75           1633          52.00       206.63
 1126.41        2981.00           1637          51.00       202.27
 1126.44        2981.25           1640          58.00       232.78
 1126.47        2981.50           1643          56.00       224.06
 1126.50        2981.75           1647          57.00       228.42
 1126.53        2982.00           1650          50.00       197.91
 1126.56        2982.25           1653          57.00       228.42
 1126.59        2982.50           1657          52.00       206.63
 1126.62        2982.75           1660          47.00       184.83
 1126.65        2983.00           1663          49.00       193.55
 1126.69        2983.25           1667          51.00       202.27
 1126.72        2983.50           1670          47.00       184.83
 1126.75        2983.75           1673          63.00       254.58
 1126.78        2984.00           1677          47.00       184.83
HS scan finished at 18:47:00
end
