************************************************************
  HS Scan of (1) Internal mercury lamp
************************************************************
Integration time is 0.2294 seconds per sample
dh090317Manchester 53.47 2.23 2.804185pr1000
************************************************************
Dead Time -------------------------  3E-08 
Number of Cycles Used -------------  4 
Starting Wavelength (Angstroms) ---  2950 
Final Wavelength (Angstoms) -------  2984 
Wavelength Increment (Angstroms) --  .25 
Filter Wheel #1 Position ---------- (1) Ground quartz diffuser (ND=2.32)
Filter Wheel #2 Position ---------- (1) Neutral Density 0.494



************************************************************
HS scan start time = 03:42:44
Dark Count =  5.6 


Time (GMT)  Wavelength (Ang)  Step Number  Raw Counts  Counts/Second

  223.10        2950.00           1222          47.00       180.47
  223.17        2950.25           1226          43.00       163.03
  223.20        2950.50           1229          52.00       202.27
  223.23        2950.75           1232          40.00       149.96
  223.26        2951.00           1236          50.00       193.55
  223.29        2951.25           1239          48.00       184.83
  223.32        2951.50           1242          44.00       167.39
  223.35        2951.75           1246          49.00       189.19
  223.38        2952.00           1249          55.00       215.35
  223.42        2952.25           1252          50.00       193.55
  223.45        2952.50           1256          43.00       163.03
  223.48        2952.75           1259          44.00       167.39
  223.51        2953.00           1262          49.00       189.19
  223.54        2953.25           1266          53.00       206.63
  223.57        2953.50           1269          38.00       141.24
  223.60        2953.75           1272          57.00       224.06
  223.63        2954.00           1276          47.00       180.47
  223.66        2954.25           1279          52.00       202.27
  223.69        2954.50           1282          43.00       163.03
  223.72        2954.75           1286          41.00       154.32
  223.75        2955.00           1289          45.00       171.75
  223.78        2955.25           1292          48.00       184.83
  223.81        2955.50           1296          49.00       189.19
  223.84        2955.75           1299          42.00       158.68
  223.88        2956.00           1302          48.00       184.83
  223.91        2956.25           1306          42.00       158.68
  223.94        2956.50           1309          51.00       197.91
  223.97        2956.75           1312          53.00       206.63
  224.00        2957.00           1316          57.00       224.06
  224.03        2957.25           1319          60.00       237.14
  224.06        2957.50           1322          48.00       184.83
  224.09        2957.75           1326          46.00       176.11
  224.12        2958.00           1329          47.00       180.47
  224.15        2958.25           1332          52.00       202.27
  224.18        2958.50           1336          41.00       154.32
  224.21        2958.75           1339          46.00       176.11
  224.24        2959.00           1342          47.00       180.47
  224.27        2959.25           1346          54.00       210.99
  224.31        2959.50           1349          56.00       219.71
  224.34        2959.75           1352          64.00       254.58
  224.37        2960.00           1356         101.00       415.87
  224.40        2960.25           1359         121.00       503.06
  224.43        2960.50           1362         171.00       721.03
  224.46        2960.75           1366         230.00       978.23
  224.49        2961.00           1369         276.00      1178.77
  224.52        2961.25           1372         309.00      1322.63
  224.55        2961.50           1376         403.00      1732.44
  224.58        2961.75           1379         544.00      2347.16
  224.61        2962.00           1382         971.00      4208.90
  224.64        2962.25           1386        2479.00     10785.53
  224.67        2962.50           1389        3960.00     17246.93
  224.70        2962.75           1392        5452.00     23758.86
  224.73        2963.00           1396        7591.00     33099.11
  224.76        2963.25           1399        9380.00     40915.06
  224.80        2963.50           1402       11087.00     48376.18
  224.83        2963.75           1406       13201.00     57620.88
  224.86        2964.00           1409       14930.00     65185.78
  224.89        2964.25           1412       16935.00     73962.54
  224.92        2964.50           1416       19265.00     84167.80
  224.95        2964.75           1419       20826.00     91008.38
  224.98        2965.00           1422       22361.00     97737.78
  225.01        2965.25           1426       24730.00    108128.70
  225.04        2965.50           1429       26185.00    114513.90
  225.07        2965.75           1432       27799.00    121599.70
  225.11        2966.00           1436       30113.00    131764.00
  225.14        2966.25           1439       31705.00    138760.40
  225.17        2966.50           1442       33447.00    146419.40
  225.20        2966.75           1446       35038.00    153417.60
  225.23        2967.00           1449       35924.00    157316.10
  225.26        2967.25           1452       35878.00    157113.70
  225.29        2967.50           1456       36116.00    158161.10
  225.32        2967.75           1459       35934.00    157360.10
  225.36        2968.00           1462       35771.00    156642.80
  225.39        2968.25           1466       35458.00    155265.60
  225.42        2968.50           1469       34250.00    149951.10
  225.45        2968.75           1472       32683.00    143059.90
  225.48        2969.00           1476       30350.00    132805.30
  225.51        2969.25           1479       29025.00    126984.20
  225.54        2969.50           1482       27049.00    118306.70
  225.57        2969.75           1486       24806.00    108462.20
  225.60        2970.00           1489       23111.00    101026.80
  225.64        2970.25           1492       21481.00     93879.56
  225.67        2970.50           1496       19394.00     84732.99
  225.70        2970.75           1499       17952.00     78416.16
  225.73        2971.00           1502       16286.00     71121.07
  225.76        2971.25           1506       14034.00     61265.08
  225.79        2971.50           1509       12433.00     54261.76
  225.82        2971.75           1513       10136.00     44219.04
  225.85        2972.00           1516        8529.00     37196.68
  225.88        2972.25           1519        6922.00     30177.27
  225.91        2972.50           1523        4807.00     20943.41
  225.94        2972.75           1526        3207.00     13961.38
  225.97        2973.00           1529        1788.00      7771.65
  226.01        2973.25           1533         615.00      2656.71
  226.04        2973.50           1536         364.00      1562.41
  226.07        2973.75           1539         304.00      1300.84
  226.10        2974.00           1543         260.00      1109.02
  226.13        2974.25           1546         180.00       760.26
  226.16        2974.50           1549         141.00       590.25
  226.19        2974.75           1553          97.00       398.44
  226.22        2975.00           1556          68.00       272.02
  226.25        2975.25           1559          60.00       237.14
  226.28        2975.50           1563          49.00       189.19
  226.31        2975.75           1566          43.00       163.03
  226.35        2976.00           1569          46.00       176.11
  226.38        2976.25           1573          60.00       237.14
  226.41        2976.50           1576          45.00       171.75
  226.44        2976.75           1579          45.00       171.75
  226.47        2977.00           1583          47.00       180.47
  226.50        2977.25           1586          50.00       193.55
  226.53        2977.50           1590          50.00       193.55
  226.56        2977.75           1593          50.00       193.55
  226.59        2978.00           1596          44.00       167.39
  226.62        2978.25           1600          45.00       171.75
  226.65        2978.50           1603          42.00       158.68
  226.68        2978.75           1606          48.00       184.83
  226.72        2979.00           1610          43.00       163.03
  226.75        2979.25           1613          53.00       206.63
  226.78        2979.50           1616          42.00       158.68
  226.81        2979.75           1620          39.00       145.60
  226.84        2980.00           1623          46.00       176.11
  226.87        2980.25           1626          42.00       158.68
  226.90        2980.50           1630          44.00       167.39
  226.93        2980.75           1633          48.00       184.83
  226.96        2981.00           1637          52.00       202.27
  226.99        2981.25           1640          42.00       158.68
  227.02        2981.50           1643          45.00       171.75
  227.05        2981.75           1647          36.00       132.52
  227.08        2982.00           1650          50.00       193.55
  227.11        2982.25           1653          44.00       167.39
  227.14        2982.50           1657          48.00       184.83
  227.17        2982.75           1660          46.00       176.11
  227.21        2983.00           1663          38.00       141.24
  227.24        2983.25           1667          41.00       154.32
  227.27        2983.50           1670          40.00       149.96
  227.30        2983.75           1673          42.00       158.68
  227.33        2984.00           1677          48.00       184.83
HS scan finished at 03:47:33
end
************************************************************
  HS Scan of (1) Internal mercury lamp
************************************************************
Integration time is 0.2294 seconds per sample
dh090317Manchester 53.47 2.23 2.804185pr1000
************************************************************
Dead Time -------------------------  3E-08 
Number of Cycles Used -------------  4 
Starting Wavelength (Angstroms) ---  2950 
Final Wavelength (Angstoms) -------  2984 
Wavelength Increment (Angstroms) --  .25 
Filter Wheel #1 Position ---------- (1) Ground quartz diffuser (ND=2.32)
Filter Wheel #2 Position ---------- (1) Neutral Density 0.494



************************************************************
HS scan start time = 19:12:01
Dark Count =  7.3 


Time (GMT)  Wavelength (Ang)  Step Number  Raw Counts  Counts/Second

 1152.39        2950.00           1222          42.00       151.26
 1152.46        2950.25           1226          50.00       186.14
 1152.49        2950.50           1229          41.00       146.91
 1152.52        2950.75           1232          47.00       173.06
 1152.55        2951.00           1236          41.00       146.91
 1152.58        2951.25           1239          47.00       173.06
 1152.61        2951.50           1242          44.00       159.98
 1152.64        2951.75           1246          61.00       234.09
 1152.67        2952.00           1249          50.00       186.14
 1152.70        2952.25           1252          41.00       146.91
 1152.73        2952.50           1256          37.00       129.47
 1152.77        2952.75           1259          55.00       207.94
 1152.80        2953.00           1262          56.00       212.29
 1152.83        2953.25           1266          43.00       155.62
 1152.86        2953.50           1269          49.00       181.78
 1152.89        2953.75           1272          42.00       151.26
 1152.92        2954.00           1276          44.00       159.98
 1152.95        2954.25           1279          41.00       146.91
 1152.98        2954.50           1282          45.00       164.34
 1153.01        2954.75           1286          49.00       181.78
 1153.04        2955.00           1289          44.00       159.98
 1153.08        2955.25           1292          47.00       173.06
 1153.11        2955.50           1296          43.00       155.62
 1153.14        2955.75           1299          45.00       164.34
 1153.17        2956.00           1302          47.00       173.06
 1153.20        2956.25           1306          43.00       155.62
 1153.23        2956.50           1309          43.00       155.62
 1153.26        2956.75           1312          49.00       181.78
 1153.29        2957.00           1316          48.00       177.42
 1153.32        2957.25           1319          53.00       199.22
 1153.35        2957.50           1322          48.00       177.42
 1153.38        2957.75           1326          49.00       181.78
 1153.42        2958.00           1329          46.00       168.70
 1153.45        2958.25           1332          46.00       168.70
 1153.48        2958.50           1336          46.00       168.70
 1153.51        2958.75           1339          47.00       173.06
 1153.54        2959.00           1342          48.00       177.42
 1153.57        2959.25           1346          42.00       151.26
 1153.60        2959.50           1349          56.00       212.29
 1153.63        2959.75           1352          67.00       260.25
 1153.66        2960.00           1356         106.00       430.26
 1153.69        2960.25           1359         138.00       569.76
 1153.72        2960.50           1362         164.00       683.10
 1153.76        2960.75           1366         209.00       879.27
 1153.79        2961.00           1369         280.00      1188.80
 1153.82        2961.25           1372         321.00      1367.54
 1153.85        2961.50           1376         455.00      1951.73
 1153.88        2961.75           1379         755.00      3259.69
 1153.91        2962.00           1382        1563.00      6782.98
 1153.94        2962.25           1386        3623.00     15769.01
 1153.97        2962.50           1389        5142.00     22398.22
 1154.00        2962.75           1392        6767.00     29492.95
 1154.03        2963.00           1396        8855.00     38613.58
 1154.06        2963.25           1399       10618.00     46318.47
 1154.09        2963.50           1402       12387.00     54053.15
 1154.12        2963.75           1406       14636.00     63891.75
 1154.16        2964.00           1409       16309.00     71214.32
 1154.19        2964.25           1412       18101.00     79061.31
 1154.22        2964.50           1416       20254.00     88494.00
 1154.25        2964.75           1419       21840.00     95445.97
 1154.28        2965.00           1422       23345.00    102045.60
 1154.31        2965.25           1426       25719.00    112461.20
 1154.34        2965.50           1429       27384.00    119770.00
 1154.37        2965.75           1432       29259.00    128004.60
 1154.40        2966.00           1436       31323.00    137073.90
 1154.44        2966.25           1439       32856.00    143813.10
 1154.47        2966.50           1442       34247.00    149930.50
 1154.50        2966.75           1446       35665.00    156168.90
 1154.53        2967.00           1449       35714.00    156384.60
 1154.56        2967.25           1452       35637.00    156045.70
 1154.59        2967.50           1456       35838.00    156930.20
 1154.62        2967.75           1459       35552.00    155671.70
 1154.65        2968.00           1462       35290.00    154518.90
 1154.68        2968.25           1466       33853.00    148197.50
 1154.71        2968.50           1469       32452.00    142036.80
 1154.74        2968.75           1472       31003.00    135667.40
 1154.78        2969.00           1476       28655.00    125351.50
 1154.81        2969.25           1479       26873.00    117526.60
 1154.84        2969.50           1482       25405.00    111083.20
 1154.87        2969.75           1486       23343.00    102036.80
 1154.90        2970.00           1489       21687.00     94775.19
 1154.93        2970.25           1492       20228.00     88380.05
 1154.96        2970.50           1496       17956.00     78426.25
 1154.99        2970.75           1499       16282.00     71096.12
 1155.02        2971.00           1502       14803.00     64622.55
 1155.05        2971.25           1506       12353.00     53904.45
 1155.09        2971.50           1509       10687.00     46620.09
 1155.12        2971.75           1513        8512.00     37114.97
 1155.15        2972.00           1516        6973.00     30392.57
 1155.18        2972.25           1519        5365.00     23371.66
 1155.21        2972.50           1523        3090.00     13443.52
 1155.24        2972.75           1526        1770.00      7685.73
 1155.27        2973.00           1529         798.00      3447.17
 1155.30        2973.25           1533         422.00      1807.86
 1155.33        2973.50           1536         343.00      1463.45
 1155.36        2973.75           1539         276.00      1171.36
 1155.39        2974.00           1543         241.00      1018.78
 1155.42        2974.25           1546         171.00       713.62
 1155.46        2974.50           1549         132.00       543.60
 1155.49        2974.75           1553          92.00       369.23
 1155.52        2975.00           1556          74.00       290.76
 1155.55        2975.25           1559          50.00       186.14
 1155.58        2975.50           1563          52.00       194.86
 1155.61        2975.75           1566          50.00       186.14
 1155.64        2976.00           1569          55.00       207.94
 1155.67        2976.25           1573          46.00       168.70
 1155.70        2976.50           1576          47.00       173.06
 1155.73        2976.75           1579          45.00       164.34
 1155.76        2977.00           1583          46.00       168.70
 1155.80        2977.25           1586          51.00       190.50
 1155.83        2977.50           1590          54.00       203.58
 1155.86        2977.75           1593          40.00       142.55
 1155.89        2978.00           1596          45.00       164.34
 1155.92        2978.25           1600          48.00       177.42
 1155.95        2978.50           1603          43.00       155.62
 1155.98        2978.75           1606          41.00       146.91
 1156.01        2979.00           1610          50.00       186.14
 1156.04        2979.25           1613          46.00       168.70
 1156.07        2979.50           1616          41.00       146.91
 1156.10        2979.75           1620          51.00       190.50
 1156.13        2980.00           1623          42.00       151.26
 1156.16        2980.25           1626          52.00       194.86
 1156.20        2980.50           1630          50.00       186.14
 1156.23        2980.75           1633          48.00       177.42
 1156.26        2981.00           1637          44.00       159.98
 1156.29        2981.25           1640          41.00       146.91
 1156.32        2981.50           1643          38.00       133.83
 1156.35        2981.75           1647          42.00       151.26
 1156.38        2982.00           1650          42.00       151.26
 1156.41        2982.25           1653          47.00       173.06
 1156.44        2982.50           1657          41.00       146.91
 1156.47        2982.75           1660          51.00       190.50
 1156.50        2983.00           1663          47.00       173.06
 1156.53        2983.25           1667          39.00       138.19
 1156.57        2983.50           1670          46.00       168.70
 1156.60        2983.75           1673          39.00       138.19
 1156.63        2984.00           1677          49.00       181.78
HS scan finished at 19:16:51
end
