************************************************************
  HS Scan of (1) Internal mercury lamp
************************************************************
Integration time is 0.2294 seconds per sample
dh080319Manchester 53.47 2.23 2.804185pr1000
************************************************************
Dead Time -------------------------  3E-08 
Number of Cycles Used -------------  4 
Starting Wavelength (Angstroms) ---  2950 
Final Wavelength (Angstoms) -------  2984 
Wavelength Increment (Angstroms) --  .25 
Filter Wheel #1 Position ---------- (1) Ground quartz diffuser (ND=2.32)
Filter Wheel #2 Position ---------- (1) Neutral Density 0.494



************************************************************
HS scan start time = 03:47:38
Dark Count =  6.1 


Time (GMT)  Wavelength (Ang)  Step Number  Raw Counts  Counts/Second

  227.99        2950.00           1222          51.00       195.73
  228.06        2950.25           1226          58.00       226.24
  228.09        2950.50           1229          63.00       248.04
  228.12        2950.75           1232          55.00       213.17
  228.16        2951.00           1236          53.00       204.45
  228.19        2951.25           1239          51.00       195.73
  228.22        2951.50           1242          57.00       221.88
  228.25        2951.75           1246          55.00       213.17
  228.28        2952.00           1249          51.00       195.73
  228.31        2952.25           1252          56.00       217.53
  228.34        2952.50           1256          48.00       182.65
  228.37        2952.75           1259          55.00       213.17
  228.40        2953.00           1262          67.00       265.48
  228.43        2953.25           1266          60.00       234.96
  228.46        2953.50           1269          51.00       195.73
  228.50        2953.75           1272          59.00       230.60
  228.53        2954.00           1276          58.00       226.24
  228.56        2954.25           1279          55.00       213.17
  228.59        2954.50           1282          58.00       226.24
  228.62        2954.75           1286          60.00       234.96
  228.65        2955.00           1289          57.00       221.88
  228.68        2955.25           1292          49.00       187.01
  228.71        2955.50           1296          52.00       200.09
  228.74        2955.75           1299          51.00       195.73
  228.77        2956.00           1302          49.00       187.01
  228.80        2956.25           1306          53.00       204.45
  228.83        2956.50           1309          53.00       204.45
  228.87        2956.75           1312          56.00       217.53
  228.90        2957.00           1316          52.00       200.09
  228.93        2957.25           1319          58.00       226.24
  228.96        2957.50           1322          51.00       195.73
  228.99        2957.75           1326          58.00       226.24
  229.02        2958.00           1329          53.00       204.45
  229.05        2958.25           1332          46.00       173.93
  229.08        2958.50           1336          53.00       204.45
  229.11        2958.75           1339          52.00       200.09
  229.14        2959.00           1342          51.00       195.73
  229.18        2959.25           1346          53.00       204.45
  229.21        2959.50           1349          53.00       204.45
  229.24        2959.75           1352          66.00       261.12
  229.27        2960.00           1356          90.00       365.74
  229.30        2960.25           1359         105.00       431.13
  229.33        2960.50           1362         138.00       574.99
  229.36        2960.75           1366         188.00       792.96
  229.39        2961.00           1369         207.00       875.79
  229.42        2961.25           1372         250.00      1063.24
  229.45        2961.50           1376         311.00      1329.17
  229.49        2961.75           1379         394.00      1691.02
  229.52        2962.00           1382         791.00      3421.89
  229.55        2962.25           1386        2151.00      9352.67
  229.58        2962.50           1389        3199.00     13924.30
  229.61        2962.75           1392        4377.00     19064.52
  229.64        2963.00           1396        5980.00     26061.78
  229.67        2963.25           1399        7153.00     31183.91
  229.70        2963.50           1402        8351.00     36416.84
  229.73        2963.75           1406        9918.00     43264.06
  229.76        2964.00           1409       11216.00     48937.98
  229.80        2964.25           1412       12618.00     55068.67
  229.83        2964.50           1416       14151.00     61774.81
  229.86        2964.75           1419       15449.00     67455.03
  229.89        2965.00           1422       16732.00     73071.53
  229.92        2965.25           1426       18397.00     80363.09
  229.95        2965.50           1429       19555.00     85436.22
  229.98        2965.75           1432       20702.00     90462.71
  230.01        2966.00           1436       22249.00     97244.49
  230.04        2966.25           1439       23394.00    102265.80
  230.08        2966.50           1442       24506.00    107143.80
  230.11        2966.75           1446       25835.00    112975.50
  230.14        2967.00           1449       26383.00    115380.80
  230.17        2967.25           1452       26202.00    114586.30
  230.20        2967.50           1456       26313.00    115073.60
  230.23        2967.75           1459       26343.00    115205.30
  230.26        2968.00           1462       26181.00    114494.20
  230.29        2968.25           1466       25497.00    111492.20
  230.32        2968.50           1469       24429.00    106805.90
  230.36        2968.75           1472       23422.00    102388.60
  230.39        2969.00           1476       21897.00     95701.14
  230.42        2969.25           1479       20596.00     89998.11
  230.45        2969.50           1482       19343.00     84507.35
  230.48        2969.75           1486       17718.00     77389.15
  230.51        2970.00           1489       16638.00     72659.96
  230.54        2970.25           1492       15377.00     67139.90
  230.57        2970.50           1496       13793.00     60208.49
  230.61        2970.75           1499       12620.00     55077.42
  230.64        2971.00           1502       11354.00     49541.33
  230.67        2971.25           1506        9593.00     41843.69
  230.70        2971.50           1509        8440.00     36805.67
  230.73        2971.75           1513        6866.00     29930.53
  230.76        2972.00           1516        5662.00     24673.45
  230.79        2972.25           1519        4533.00     19745.35
  230.82        2972.50           1523        2976.00     12951.41
  230.85        2972.75           1526        1919.00      8340.80
  230.89        2973.00           1529         914.00      3958.19
  230.92        2973.25           1533         375.00      1608.19
  230.95        2973.50           1536         293.00      1250.70
  230.98        2973.75           1539         241.00      1024.01
  231.01        2974.00           1543         218.00       923.74
  231.04        2974.25           1546         164.00       688.33
  231.07        2974.50           1549         133.00       553.19
  231.10        2974.75           1553          86.00       348.30
  231.13        2975.00           1556          62.00       243.68
  231.16        2975.25           1559          55.00       213.17
  231.20        2975.50           1563          53.00       204.45
  231.23        2975.75           1566          54.00       208.81
  231.26        2976.00           1569          54.00       208.81
  231.29        2976.25           1573          55.00       213.17
  231.32        2976.50           1576          56.00       217.53
  231.35        2976.75           1579          57.00       221.88
  231.38        2977.00           1583          50.00       191.37
  231.41        2977.25           1586          48.00       182.65
  231.44        2977.50           1590          51.00       195.73
  231.47        2977.75           1593          55.00       213.17
  231.50        2978.00           1596          52.00       200.09
  231.54        2978.25           1600          49.00       187.01
  231.57        2978.50           1603          51.00       195.73
  231.60        2978.75           1606          55.00       213.17
  231.63        2979.00           1610          46.00       173.93
  231.66        2979.25           1613          57.00       221.88
  231.69        2979.50           1616          52.00       200.09
  231.72        2979.75           1620          47.00       178.29
  231.75        2980.00           1623          61.00       239.32
  231.78        2980.25           1626          53.00       204.45
  231.81        2980.50           1630          55.00       213.17
  231.85        2980.75           1633          53.00       204.45
  231.88        2981.00           1637          48.00       182.65
  231.91        2981.25           1640          51.00       195.73
  231.94        2981.50           1643          44.00       165.21
  231.97        2981.75           1647          58.00       226.24
  232.00        2982.00           1650          55.00       213.17
  232.03        2982.25           1653          55.00       213.17
  232.06        2982.50           1657          45.00       169.57
  232.09        2982.75           1660          44.00       165.21
  232.13        2983.00           1663          41.00       152.14
  232.16        2983.25           1667          49.00       187.01
  232.19        2983.50           1670          51.00       195.73
  232.22        2983.75           1673          54.00       208.81
  232.25        2984.00           1677          58.00       226.24
HS scan finished at 03:52:28
end
************************************************************
  HS Scan of (1) Internal mercury lamp
************************************************************
Integration time is 0.2294 seconds per sample
dh080319Manchester 53.47 2.23 2.804185pr1000
************************************************************
Dead Time -------------------------  3E-08 
Number of Cycles Used -------------  4 
Starting Wavelength (Angstroms) ---  2950 
Final Wavelength (Angstoms) -------  2984 
Wavelength Increment (Angstroms) --  .25 
Filter Wheel #1 Position ---------- (1) Ground quartz diffuser (ND=2.32)
Filter Wheel #2 Position ---------- (1) Neutral Density 0.494



************************************************************
HS scan start time = 19:12:05
Dark Count =  6 


Time (GMT)  Wavelength (Ang)  Step Number  Raw Counts  Counts/Second

 1152.46        2950.00           1222          68.00       270.27
 1152.52        2950.25           1226          54.00       209.24
 1152.56        2950.50           1229          49.00       187.45
 1152.59        2950.75           1232          54.00       209.24
 1152.62        2951.00           1236          45.00       170.01
 1152.65        2951.25           1239          60.00       235.40
 1152.68        2951.50           1242          58.00       226.68
 1152.71        2951.75           1246          60.00       235.40
 1152.74        2952.00           1249          60.00       235.40
 1152.77        2952.25           1252          51.00       196.17
 1152.80        2952.50           1256          52.00       200.52
 1152.84        2952.75           1259          54.00       209.24
 1152.87        2953.00           1262          56.00       217.96
 1152.90        2953.25           1266          59.00       231.04
 1152.93        2953.50           1269          48.00       183.09
 1152.96        2953.75           1272          59.00       231.04
 1152.99        2954.00           1276          59.00       231.04
 1153.02        2954.25           1279          58.00       226.68
 1153.05        2954.50           1282          54.00       209.24
 1153.08        2954.75           1286          48.00       183.09
 1153.11        2955.00           1289          47.00       178.73
 1153.14        2955.25           1292          51.00       196.17
 1153.17        2955.50           1296          67.00       265.91
 1153.20        2955.75           1299          62.00       244.12
 1153.24        2956.00           1302          52.00       200.52
 1153.27        2956.25           1306          56.00       217.96
 1153.30        2956.50           1309          49.00       187.45
 1153.33        2956.75           1312          47.00       178.73
 1153.36        2957.00           1316          51.00       196.17
 1153.39        2957.25           1319          50.00       191.81
 1153.42        2957.50           1322          54.00       209.24
 1153.45        2957.75           1326          52.00       200.52
 1153.48        2958.00           1329          51.00       196.17
 1153.51        2958.25           1332          59.00       231.04
 1153.54        2958.50           1336          59.00       231.04
 1153.57        2958.75           1339          59.00       231.04
 1153.60        2959.00           1342          62.00       244.12
 1153.63        2959.25           1346          53.00       204.88
 1153.67        2959.50           1349          66.00       261.55
 1153.70        2959.75           1352          66.00       261.55
 1153.73        2960.00           1356          83.00       335.66
 1153.76        2960.25           1359         115.00       475.16
 1153.79        2960.50           1362         125.00       518.75
 1153.82        2960.75           1366         188.00       793.39
 1153.85        2961.00           1369         201.00       850.07
 1153.88        2961.25           1372         240.00      1020.08
 1153.91        2961.50           1376         286.00      1220.62
 1153.94        2961.75           1379         414.00      1778.65
 1153.97        2962.00           1382         723.00      3125.84
 1154.01        2962.25           1386        1844.00      8014.13
 1154.04        2962.50           1389        2984.00     12986.75
 1154.07        2962.75           1392        4126.00     17969.58
 1154.10        2963.00           1396        5598.00     24394.48
 1154.13        2963.25           1399        6871.00     29952.80
 1154.16        2963.50           1402        8056.00     35128.54
 1154.19        2963.75           1406        9807.00     42779.37
 1154.22        2964.00           1409       11025.00     48103.37
 1154.25        2964.25           1412       12457.00     54364.98
 1154.29        2964.50           1416       14008.00     61149.57
 1154.32        2964.75           1419       15155.00     66168.71
 1154.35        2965.00           1422       16460.00     71881.08
 1154.38        2965.25           1426       18194.00     79474.35
 1154.41        2965.50           1429       19571.00     85506.78
 1154.44        2965.75           1432       20692.00     90419.31
 1154.47        2966.00           1436       22316.00     97538.71
 1154.50        2966.25           1439       23581.00    103086.40
 1154.53        2966.50           1442       24608.00    107591.70
 1154.57        2966.75           1446       25766.00    112673.20
 1154.60        2967.00           1449       26364.00    115297.90
 1154.63        2967.25           1452       26242.00    114762.40
 1154.66        2967.50           1456       26312.00    115069.60
 1154.69        2967.75           1459       26265.00    114863.30
 1154.72        2968.00           1462       26210.00    114621.90
 1154.75        2968.25           1466       25574.00    111830.50
 1154.78        2968.50           1469       24703.00    108008.50
 1154.81        2968.75           1472       23481.00    102647.80
 1154.85        2969.00           1476       22104.00     96609.15
 1154.88        2969.25           1479       20870.00     91199.49
 1154.91        2969.50           1482       19609.00     85673.28
 1154.94        2969.75           1486       18042.00     78808.60
 1154.97        2970.00           1489       16661.00     72761.10
 1155.00        2970.25           1492       15677.00     68453.43
 1155.03        2970.50           1496       13912.00     60729.55
 1155.06        2970.75           1499       12864.00     56145.06
 1155.09        2971.00           1502       11618.00     50696.06
 1155.13        2971.25           1506        9999.00     43618.51
 1155.16        2971.50           1509        8871.00     38689.17
 1155.19        2971.75           1513        7231.00     31525.01
 1155.22        2972.00           1516        6047.00     26354.75
 1155.25        2972.25           1519        4921.00     21439.25
 1155.28        2972.50           1523        3365.00     14648.98
 1155.31        2972.75           1526        2175.00      9457.78
 1155.34        2973.00           1529        1083.00      4695.52
 1155.37        2973.25           1533         415.00      1783.01
 1155.40        2973.50           1536         306.00      1307.81
 1155.44        2973.75           1539         232.00       985.21
 1155.47        2974.00           1543         209.00       884.94
 1155.50        2974.25           1546         168.00       706.21
 1155.53        2974.50           1549         126.00       523.11
 1155.56        2974.75           1553          88.00       357.46
 1155.59        2975.00           1556          70.00       278.99
 1155.62        2975.25           1559          64.00       252.84
 1155.65        2975.50           1563          47.00       178.73
 1155.68        2975.75           1566          61.00       239.76
 1155.72        2976.00           1569          57.00       222.32
 1155.75        2976.25           1573          56.00       217.96
 1155.78        2976.50           1576          53.00       204.88
 1155.81        2976.75           1579          55.00       213.60
 1155.84        2977.00           1583          50.00       191.81
 1155.87        2977.25           1586          54.00       209.24
 1155.90        2977.50           1590          52.00       200.52
 1155.93        2977.75           1593          55.00       213.60
 1155.96        2978.00           1596          57.00       222.32
 1155.99        2978.25           1600          52.00       200.52
 1156.02        2978.50           1603          54.00       209.24
 1156.06        2978.75           1606          50.00       191.81
 1156.09        2979.00           1610          50.00       191.81
 1156.12        2979.25           1613          44.00       165.65
 1156.15        2979.50           1616          47.00       178.73
 1156.18        2979.75           1620          50.00       191.81
 1156.21        2980.00           1623          52.00       200.52
 1156.24        2980.25           1626          47.00       178.73
 1156.27        2980.50           1630          48.00       183.09
 1156.30        2980.75           1633          48.00       183.09
 1156.33        2981.00           1637          53.00       204.88
 1156.37        2981.25           1640          44.00       165.65
 1156.40        2981.50           1643          56.00       217.96
 1156.43        2981.75           1647          50.00       191.81
 1156.46        2982.00           1650          48.00       183.09
 1156.49        2982.25           1653          43.00       161.29
 1156.52        2982.50           1657          51.00       196.17
 1156.55        2982.75           1660          54.00       209.24
 1156.58        2983.00           1663          49.00       187.45
 1156.61        2983.25           1667          51.00       196.17
 1156.64        2983.50           1670          48.00       183.09
 1156.68        2983.75           1673          56.00       217.96
 1156.71        2984.00           1677          56.00       217.96
HS scan finished at 19:16:55
end
