************************************************************
  HS Scan of (1) Internal mercury lamp
************************************************************
Integration time is 0.2294 seconds per sample
dh100318Manchester 53.47 2.23 2.804185pr1000
************************************************************
Dead Time -------------------------  3E-08 
Number of Cycles Used -------------  4 
Starting Wavelength (Angstroms) ---  2950 
Final Wavelength (Angstoms) -------  2984 
Wavelength Increment (Angstroms) --  .25 
Filter Wheel #1 Position ---------- (1) Ground quartz diffuser (ND=2.32)
Filter Wheel #2 Position ---------- (1) Neutral Density 0.494



************************************************************
HS scan start time = 03:40:20
Dark Count =  6.6 


Time (GMT)  Wavelength (Ang)  Step Number  Raw Counts  Counts/Second

  220.70        2950.00           1222          55.00       210.99
  220.76        2950.25           1226          65.00       254.58
  220.79        2950.50           1229          61.00       237.14
  220.82        2950.75           1232          53.00       202.27
  220.85        2951.00           1236          59.00       228.42
  220.89        2951.25           1239          63.00       245.86
  220.92        2951.50           1242          63.00       245.86
  220.95        2951.75           1246          52.00       197.91
  220.98        2952.00           1249          61.00       237.14
  221.01        2952.25           1252          58.00       224.06
  221.04        2952.50           1256          65.00       254.58
  221.07        2952.75           1259          64.00       250.22
  221.10        2953.00           1262          59.00       228.42
  221.13        2953.25           1266          59.00       228.42
  221.16        2953.50           1269          59.00       228.42
  221.19        2953.75           1272          61.00       237.14
  221.23        2954.00           1276          54.00       206.63
  221.26        2954.25           1279          52.00       197.91
  221.29        2954.50           1282          54.00       206.63
  221.32        2954.75           1286          48.00       180.47
  221.35        2955.00           1289          64.00       250.22
  221.38        2955.25           1292          48.00       180.47
  221.41        2955.50           1296          59.00       228.42
  221.44        2955.75           1299          60.00       232.78
  221.47        2956.00           1302          63.00       245.86
  221.50        2956.25           1306          58.00       224.06
  221.53        2956.50           1309          62.00       241.50
  221.57        2956.75           1312          58.00       224.06
  221.60        2957.00           1316          52.00       197.91
  221.63        2957.25           1319          60.00       232.78
  221.66        2957.50           1322          58.00       224.06
  221.69        2957.75           1326          68.00       267.66
  221.72        2958.00           1329          66.00       258.94
  221.75        2958.25           1332          58.00       224.06
  221.78        2958.50           1336          60.00       232.78
  221.81        2958.75           1339          60.00       232.78
  221.84        2959.00           1342          59.00       228.42
  221.87        2959.25           1346          64.00       250.22
  221.90        2959.50           1349          69.00       272.02
  221.93        2959.75           1352          82.00       328.69
  221.96        2960.00           1356         115.00       472.54
  222.00        2960.25           1359         136.00       564.09
  222.03        2960.50           1362         183.00       768.98
  222.06        2960.75           1366         230.00       973.87
  222.09        2961.00           1369         273.00      1161.33
  222.12        2961.25           1372         312.00      1331.35
  222.15        2961.50           1376         366.00      1566.77
  222.18        2961.75           1379         462.00      1985.30
  222.21        2962.00           1382         748.00      3232.22
  222.24        2962.25           1386        2188.00      9511.87
  222.27        2962.50           1389        3525.00     15344.46
  222.31        2962.75           1392        5002.00     21790.18
  222.34        2963.00           1396        7023.00     30613.98
  222.37        2963.25           1399        8446.00     36829.69
  222.40        2963.50           1402        9915.00     43248.76
  222.43        2963.75           1406       12018.00     52442.52
  222.46        2964.00           1409       13491.00     58885.10
  222.49        2964.25           1412       14954.00     65286.43
  222.52        2964.50           1416       16938.00     73971.30
  222.55        2964.75           1419       18360.00     80198.84
  222.58        2965.00           1422       20066.00     87673.19
  222.61        2965.25           1426       21970.00     96019.01
  222.64        2965.50           1429       23594.00    103140.80
  222.68        2965.75           1432       25033.00    109453.90
  222.71        2966.00           1436       27019.00    118170.60
  222.74        2966.25           1439       28285.00    123729.60
  222.77        2966.50           1442       29778.00    130287.70
  222.80        2966.75           1446       31431.00    137551.60
  222.83        2967.00           1449       32073.00    140373.70
  222.86        2967.25           1452       32291.00    141332.10
  222.89        2967.50           1456       32220.00    141019.90
  222.92        2967.75           1459       32375.00    141701.40
  222.95        2968.00           1462       32452.00    142039.90
  222.99        2968.25           1466       31619.00    138378.00
  223.02        2968.50           1469       30456.00    133266.70
  223.05        2968.75           1472       29244.00    127941.70
  223.08        2969.00           1476       27263.00    119241.90
  223.11        2969.25           1479       25915.00    113324.50
  223.14        2969.50           1482       24518.00    107194.20
  223.17        2969.75           1486       22529.00     98470.06
  223.20        2970.00           1489       21057.00     92016.53
  223.23        2970.25           1492       19609.00     85670.64
  223.26        2970.50           1496       17448.00     76204.53
  223.29        2970.75           1499       15995.00     69842.79
  223.33        2971.00           1502       14364.00     62704.60
  223.36        2971.25           1506       12398.00     54104.32
  223.39        2971.50           1509       10885.00     47488.71
  223.42        2971.75           1513        9057.00     39499.27
  223.45        2972.00           1516        7580.00     33046.70
  223.48        2972.25           1519        6143.00     26771.28
  223.51        2972.50           1523        4221.00     18381.54
  223.54        2972.75           1526        2887.00     12560.97
  223.57        2973.00           1529        1489.00      6463.33
  223.60        2973.25           1533         489.00      2103.01
  223.63        2973.50           1536         314.00      1340.07
  223.67        2973.75           1539         260.00      1104.66
  223.70        2974.00           1543         206.00       869.25
  223.73        2974.25           1546         144.00       598.96
  223.76        2974.50           1549         124.00       511.78
  223.79        2974.75           1553          90.00       363.56
  223.82        2975.00           1556          72.00       285.09
  223.85        2975.25           1559          62.00       241.50
  223.88        2975.50           1563          61.00       237.14
  223.91        2975.75           1566          60.00       232.78
  223.94        2976.00           1569          58.00       224.06
  223.97        2976.25           1573          59.00       228.42
  224.00        2976.50           1576          51.00       193.55
  224.03        2976.75           1579          57.00       219.71
  224.06        2977.00           1583          61.00       237.14
  224.10        2977.25           1586          56.00       215.35
  224.13        2977.50           1590          52.00       197.91
  224.16        2977.75           1593          57.00       219.71
  224.19        2978.00           1596          56.00       215.35
  224.22        2978.25           1600          54.00       206.63
  224.25        2978.50           1603          59.00       228.42
  224.28        2978.75           1606          61.00       237.14
  224.31        2979.00           1610          55.00       210.99
  224.34        2979.25           1613          53.00       202.27
  224.37        2979.50           1616          65.00       254.58
  224.40        2979.75           1620          61.00       237.14
  224.44        2980.00           1623          53.00       202.27
  224.47        2980.25           1626          53.00       202.27
  224.50        2980.50           1630          63.00       245.86
  224.53        2980.75           1633          50.00       189.19
  224.56        2981.00           1637          49.00       184.83
  224.59        2981.25           1640          49.00       184.83
  224.62        2981.50           1643          59.00       228.42
  224.65        2981.75           1647          53.00       202.27
  224.68        2982.00           1650          56.00       215.35
  224.71        2982.25           1653          54.00       206.63
  224.74        2982.50           1657          52.00       197.91
  224.77        2982.75           1660          51.00       193.55
  224.80        2983.00           1663          55.00       210.99
  224.83        2983.25           1667          62.00       241.50
  224.86        2983.50           1670          51.00       193.55
  224.90        2983.75           1673          58.00       224.06
  224.93        2984.00           1677          47.00       176.11
HS scan finished at 03:45:08
end
************************************************************
  HS Scan of (1) Internal mercury lamp
************************************************************
Integration time is 0.2294 seconds per sample
dh100318Manchester 53.47 2.23 2.804185pr1000
************************************************************
Dead Time -------------------------  3E-08 
Number of Cycles Used -------------  4 
Starting Wavelength (Angstroms) ---  2950 
Final Wavelength (Angstoms) -------  2984 
Wavelength Increment (Angstroms) --  .25 
Filter Wheel #1 Position ---------- (1) Ground quartz diffuser (ND=2.32)
Filter Wheel #2 Position ---------- (1) Neutral Density 0.494



************************************************************
HS scan start time = 19:12:04
Dark Count =  5.8 


Time (GMT)  Wavelength (Ang)  Step Number  Raw Counts  Counts/Second

 1152.44        2950.00           1222          65.00       258.07
 1152.51        2950.25           1226          66.00       262.43
 1152.54        2950.50           1229          63.00       249.35
 1152.57        2950.75           1232          56.00       218.83
 1152.60        2951.00           1236          61.00       240.63
 1152.63        2951.25           1239          59.00       231.91
 1152.66        2951.50           1242          61.00       240.63
 1152.69        2951.75           1246          55.00       214.47
 1152.73        2952.00           1249          61.00       240.63
 1152.76        2952.25           1252          60.00       236.27
 1152.79        2952.50           1256          52.00       201.40
 1152.82        2952.75           1259          59.00       231.91
 1152.85        2953.00           1262          58.00       227.55
 1152.88        2953.25           1266          61.00       240.63
 1152.91        2953.50           1269          60.00       236.27
 1152.94        2953.75           1272          64.00       253.71
 1152.97        2954.00           1276          54.00       210.11
 1153.00        2954.25           1279          57.00       223.19
 1153.03        2954.50           1282          58.00       227.55
 1153.07        2954.75           1286          55.00       214.47
 1153.10        2955.00           1289          60.00       236.27
 1153.13        2955.25           1292          57.00       223.19
 1153.16        2955.50           1296          57.00       223.19
 1153.19        2955.75           1299          62.00       244.99
 1153.22        2956.00           1302          57.00       223.19
 1153.25        2956.25           1306          64.00       253.71
 1153.28        2956.50           1309          56.00       218.83
 1153.31        2956.75           1312          54.00       210.11
 1153.34        2957.00           1316          54.00       210.11
 1153.37        2957.25           1319          57.00       223.19
 1153.40        2957.50           1322          55.00       214.47
 1153.43        2957.75           1326          70.00       279.86
 1153.47        2958.00           1329          61.00       240.63
 1153.50        2958.25           1332          64.00       253.71
 1153.53        2958.50           1336          62.00       244.99
 1153.56        2958.75           1339          54.00       210.11
 1153.59        2959.00           1342          62.00       244.99
 1153.62        2959.25           1346          72.00       288.58
 1153.65        2959.50           1349          69.00       275.50
 1153.68        2959.75           1352          85.00       345.25
 1153.71        2960.00           1356         119.00       493.47
 1153.74        2960.25           1359         147.00       615.53
 1153.77        2960.50           1362         190.00       802.98
 1153.80        2960.75           1366         242.00      1029.67
 1153.83        2961.00           1369         272.00      1160.46
 1153.86        2961.25           1372         304.00      1299.96
 1153.90        2961.50           1376         375.00      1609.49
 1153.93        2961.75           1379         552.00      2381.16
 1153.96        2962.00           1382        1282.00      5564.14
 1153.99        2962.25           1386        2919.00     12704.06
 1154.02        2962.50           1389        4263.00     18568.32
 1154.05        2962.75           1392        5694.00     24814.46
 1154.08        2963.00           1396        7648.00     33347.21
 1154.11        2963.25           1399        9030.00     39384.78
 1154.14        2963.50           1402       10609.00     46285.67
 1154.17        2963.75           1406       12714.00     55489.86
 1154.20        2964.00           1409       14093.00     61522.34
 1154.24        2964.25           1412       15854.00     69229.08
 1154.27        2964.50           1416       17866.00     78038.63
 1154.30        2964.75           1419       19369.00     84622.58
 1154.33        2965.00           1422       20935.00     91485.27
 1154.36        2965.25           1426       22911.00    100148.70
 1154.39        2965.50           1429       24392.00    106644.90
 1154.42        2965.75           1432       25883.00    113187.50
 1154.45        2966.00           1436       27790.00    121559.30
 1154.48        2966.25           1439       29264.00    128033.10
 1154.52        2966.50           1442       30678.00    134245.80
 1154.55        2966.75           1446       32025.00    140166.20
 1154.58        2967.00           1449       32159.00    140755.30
 1154.61        2967.25           1452       32129.00    140623.40
 1154.64        2967.50           1456       32310.00    141419.10
 1154.67        2967.75           1459       32128.00    140619.00
 1154.70        2968.00           1462       31891.00    139577.10
 1154.73        2968.25           1466       30887.00    135164.20
 1154.76        2968.50           1469       29590.00    129465.20
 1154.79        2968.75           1472       28330.00    123930.70
 1154.83        2969.00           1476       26405.00    115478.70
 1154.86        2969.25           1479       25004.00    109330.10
 1154.89        2969.50           1482       23547.00    102938.10
 1154.92        2969.75           1486       21688.00     94786.16
 1154.95        2970.00           1489       20041.00     87567.14
 1154.98        2970.25           1492       18663.00     81529.60
 1155.01        2970.50           1496       16682.00     72853.91
 1155.04        2970.75           1499       15099.00     65924.50
 1155.07        2971.00           1502       13518.00     59006.72
 1155.10        2971.25           1506       11636.00     50775.63
 1155.14        2971.50           1509       10095.00     44038.97
 1155.17        2971.75           1513        8290.00     36151.66
 1155.20        2972.00           1516        6748.00     29416.53
 1155.23        2972.25           1519        5292.00     23059.54
 1155.26        2972.50           1523        3479.00     15147.25
 1155.29        2972.75           1526        2105.00      9153.34
 1155.32        2973.00           1529         990.00      4290.88
 1155.35        2973.25           1533         406.00      1744.64
 1155.38        2973.50           1536         308.00      1317.40
 1155.41        2973.75           1539         269.00      1147.38
 1155.45        2974.00           1543         218.00       925.05
 1155.48        2974.25           1546         173.00       728.87
 1155.51        2974.50           1549         126.00       523.98
 1155.54        2974.75           1553          87.00       353.97
 1155.57        2975.00           1556          73.00       292.94
 1155.60        2975.25           1559          69.00       275.50
 1155.63        2975.50           1563          58.00       227.55
 1155.66        2975.75           1566          60.00       236.27
 1155.69        2976.00           1569          60.00       236.27
 1155.73        2976.25           1573          57.00       223.19
 1155.76        2976.50           1576          58.00       227.55
 1155.79        2976.75           1579          61.00       240.63
 1155.82        2977.00           1583          64.00       253.71
 1155.85        2977.25           1586          58.00       227.55
 1155.88        2977.50           1590          53.00       205.76
 1155.91        2977.75           1593          53.00       205.76
 1155.94        2978.00           1596          55.00       214.47
 1155.97        2978.25           1600          55.00       214.47
 1156.00        2978.50           1603          51.00       197.04
 1156.03        2978.75           1606          59.00       231.91
 1156.06        2979.00           1610          55.00       214.47
 1156.10        2979.25           1613          59.00       231.91
 1156.13        2979.50           1616          58.00       227.55
 1156.16        2979.75           1620          58.00       227.55
 1156.19        2980.00           1623          56.00       218.83
 1156.22        2980.25           1626          56.00       218.83
 1156.25        2980.50           1630          52.00       201.40
 1156.28        2980.75           1633          56.00       218.83
 1156.31        2981.00           1637          59.00       231.91
 1156.34        2981.25           1640          51.00       197.04
 1156.37        2981.50           1643          58.00       227.55
 1156.40        2981.75           1647          56.00       218.83
 1156.43        2982.00           1650          49.00       188.32
 1156.46        2982.25           1653          51.00       197.04
 1156.50        2982.50           1657          60.00       236.27
 1156.53        2982.75           1660          49.00       188.32
 1156.56        2983.00           1663          50.00       192.68
 1156.59        2983.25           1667          43.00       162.16
 1156.62        2983.50           1670          59.00       231.91
 1156.65        2983.75           1673          56.00       218.83
 1156.68        2984.00           1677          54.00       210.11
HS scan finished at 19:16:54
end
