************************************************************
  HS Scan of (1) Internal mercury lamp
************************************************************
Integration time is 0.2294 seconds per sample
dh180317Manchester 53.47 2.23 2.804185pr1000
************************************************************
Dead Time -------------------------  3E-08 
Number of Cycles Used -------------  4 
Starting Wavelength (Angstroms) ---  2950 
Final Wavelength (Angstoms) -------  2984 
Wavelength Increment (Angstroms) --  .25 
Filter Wheel #1 Position ---------- (1) Ground quartz diffuser (ND=2.32)
Filter Wheel #2 Position ---------- (1) Neutral Density 0.494



************************************************************
HS scan start time = 03:10:34
Dark Count =  6.5 


Time (GMT)  Wavelength (Ang)  Step Number  Raw Counts  Counts/Second

  190.93        2950.00           1222          50.00       189.63
  191.00        2950.25           1226          40.00       146.03
  191.03        2950.50           1229          52.00       198.34
  191.06        2950.75           1232          42.00       154.75
  191.09        2951.00           1236          48.00       180.91
  191.12        2951.25           1239          47.00       176.55
  191.16        2951.50           1242          47.00       176.55
  191.19        2951.75           1246          44.00       163.47
  191.22        2952.00           1249          43.00       159.11
  191.25        2952.25           1252          48.00       180.91
  191.28        2952.50           1256          47.00       176.55
  191.31        2952.75           1259          39.00       141.67
  191.34        2953.00           1262          49.00       185.27
  191.37        2953.25           1266          53.00       202.70
  191.40        2953.50           1269          49.00       185.27
  191.43        2953.75           1272          48.00       180.91
  191.47        2954.00           1276          51.00       193.99
  191.50        2954.25           1279          52.00       198.34
  191.53        2954.50           1282          43.00       159.11
  191.56        2954.75           1286          48.00       180.91
  191.59        2955.00           1289          42.00       154.75
  191.62        2955.25           1292          46.00       172.19
  191.65        2955.50           1296          49.00       185.27
  191.68        2955.75           1299          42.00       154.75
  191.71        2956.00           1302          54.00       207.06
  191.74        2956.25           1306          55.00       211.42
  191.77        2956.50           1309          49.00       185.27
  191.80        2956.75           1312          46.00       172.19
  191.84        2957.00           1316          50.00       189.63
  191.87        2957.25           1319          47.00       176.55
  191.90        2957.50           1322          42.00       154.75
  191.93        2957.75           1326          46.00       172.19
  191.96        2958.00           1329          46.00       172.19
  191.99        2958.25           1332          50.00       189.63
  192.02        2958.50           1336          51.00       193.99
  192.05        2958.75           1339          48.00       180.91
  192.08        2959.00           1342          45.00       167.83
  192.12        2959.25           1346          51.00       193.99
  192.15        2959.50           1349          60.00       233.22
  192.18        2959.75           1352          76.00       302.97
  192.21        2960.00           1356         106.00       433.75
  192.24        2960.25           1359         148.00       616.84
  192.27        2960.50           1362         198.00       834.81
  192.30        2960.75           1366         242.00      1026.62
  192.33        2961.00           1369         295.00      1257.68
  192.36        2961.25           1372         325.00      1388.46
  192.39        2961.50           1376         451.00      1937.78
  192.43        2961.75           1379         748.00      3232.66
  192.46        2962.00           1382        1582.00      6869.33
  192.49        2962.25           1386        3392.00     14764.60
  192.52        2962.50           1389        5049.00     21995.77
  192.55        2962.75           1392        6574.00     28653.65
  192.58        2963.00           1396        8835.00     38529.69
  192.61        2963.25           1399       10584.00     46173.33
  192.64        2963.50           1402       12331.00     53811.74
  192.68        2963.75           1406       14561.00     63567.06
  192.71        2964.00           1409       16312.00     71230.96
  192.74        2964.25           1412       18132.00     79200.60
  192.77        2964.50           1416       20351.00     88922.60
  192.80        2964.75           1419       21935.00     95865.99
  192.83        2965.00           1422       23633.00    103312.30
  192.86        2965.25           1426       25762.00    112653.40
  192.89        2965.50           1429       27524.00    120388.20
  192.92        2965.75           1432       29074.00    127195.40
  192.96        2966.00           1436       31554.00    138092.70
  192.99        2966.25           1439       33177.00    145228.10
  193.02        2966.50           1442       34466.00    150897.40
  193.05        2966.75           1446       35699.00    156322.10
  193.08        2967.00           1449       36057.00    157897.40
  193.11        2967.25           1452       36001.00    157651.00
  193.14        2967.50           1456       35943.00    157395.80
  193.17        2967.75           1459       35938.00    157373.80
  193.20        2968.00           1462       35507.00    155477.20
  193.24        2968.25           1466       34422.00    150703.80
  193.27        2968.50           1469       32822.00    143667.10
  193.30        2968.75           1472       31166.00    136387.40
  193.33        2969.00           1476       28860.00    126255.40
  193.36        2969.25           1479       27240.00    119141.30
  193.39        2969.50           1482       25543.00    111692.30
  193.42        2969.75           1486       23240.00    101588.60
  193.45        2970.00           1489       21680.00     94748.01
  193.48        2970.25           1492       20064.00     87664.88
  193.51        2970.50           1496       17873.00     78066.23
  193.55        2970.75           1499       16304.00     71195.93
  193.58        2971.00           1502       14822.00     64709.19
  193.61        2971.25           1506       12474.00     54437.14
  193.64        2971.50           1509       10616.00     46313.21
  193.67        2971.75           1513        8388.00     36576.73
  193.70        2972.00           1516        6711.00     29251.90
  193.73        2972.25           1519        4942.00     21528.72
  193.76        2972.50           1523        2928.00     12740.27
  193.79        2972.75           1526        1668.00      7244.38
  193.82        2973.00           1529         800.00      3459.38
  193.85        2973.25           1533         419.00      1798.27
  193.88        2973.50           1536         354.00      1514.89
  193.91        2973.75           1539         282.00      1201.00
  193.95        2974.00           1543         254.00      1078.94
  193.98        2974.25           1546         157.00       656.07
  194.01        2974.50           1549         136.00       564.53
  194.04        2974.75           1553          86.00       346.56
  194.07        2975.00           1556          73.00       289.89
  194.10        2975.25           1559          54.00       207.06
  194.13        2975.50           1563          47.00       176.55
  194.16        2975.75           1566          48.00       180.91
  194.19        2976.00           1569          45.00       167.83
  194.23        2976.25           1573          49.00       185.27
  194.26        2976.50           1576          56.00       215.78
  194.29        2976.75           1579          46.00       172.19
  194.32        2977.00           1583          58.00       224.50
  194.35        2977.25           1586          49.00       185.27
  194.38        2977.50           1590          54.00       207.06
  194.41        2977.75           1593          54.00       207.06
  194.44        2978.00           1596          46.00       172.19
  194.47        2978.25           1600          45.00       167.83
  194.51        2978.50           1603          46.00       172.19
  194.54        2978.75           1606          43.00       159.11
  194.57        2979.00           1610          50.00       189.63
  194.60        2979.25           1613          44.00       163.47
  194.63        2979.50           1616          43.00       159.11
  194.66        2979.75           1620          48.00       180.91
  194.69        2980.00           1623          45.00       167.83
  194.72        2980.25           1626          41.00       150.39
  194.75        2980.50           1630          43.00       159.11
  194.78        2980.75           1633          50.00       189.63
  194.81        2981.00           1637          45.00       167.83
  194.84        2981.25           1640          41.00       150.39
  194.87        2981.50           1643          40.00       146.03
  194.91        2981.75           1647          58.00       224.50
  194.94        2982.00           1650          46.00       172.19
  194.97        2982.25           1653          38.00       137.32
  195.00        2982.50           1657          47.00       176.55
  195.03        2982.75           1660          43.00       159.11
  195.06        2983.00           1663          48.00       180.91
  195.09        2983.25           1667          44.00       163.47
  195.12        2983.50           1670          48.00       180.91
  195.15        2983.75           1673          49.00       185.27
  195.18        2984.00           1677          43.00       159.11
HS scan finished at 03:15:24
end
************************************************************
  HS Scan of (1) Internal mercury lamp
************************************************************
Integration time is 0.2294 seconds per sample
dh180317Manchester 53.47 2.23 2.804185pr1000
************************************************************
Dead Time -------------------------  3E-08 
Number of Cycles Used -------------  4 
Starting Wavelength (Angstroms) ---  2950 
Final Wavelength (Angstoms) -------  2984 
Wavelength Increment (Angstroms) --  .25 
Filter Wheel #1 Position ---------- (1) Ground quartz diffuser (ND=2.32)
Filter Wheel #2 Position ---------- (1) Neutral Density 0.494



************************************************************
HS scan start time = 19:12:03
Dark Count =  7.3 


Time (GMT)  Wavelength (Ang)  Step Number  Raw Counts  Counts/Second

 1152.42        2950.00           1222          40.00       142.55
 1152.48        2950.25           1226          49.00       181.78
 1152.51        2950.50           1229          44.00       159.98
 1152.54        2950.75           1232          45.00       164.34
 1152.57        2951.00           1236          47.00       173.06
 1152.61        2951.25           1239          46.00       168.70
 1152.64        2951.50           1242          47.00       173.06
 1152.67        2951.75           1246          43.00       155.62
 1152.70        2952.00           1249          42.00       151.26
 1152.73        2952.25           1252          48.00       177.42
 1152.76        2952.50           1256          50.00       186.14
 1152.79        2952.75           1259          45.00       164.34
 1152.82        2953.00           1262          44.00       159.98
 1152.85        2953.25           1266          46.00       168.70
 1152.88        2953.50           1269          45.00       164.34
 1152.92        2953.75           1272          40.00       142.55
 1152.95        2954.00           1276          43.00       155.62
 1152.98        2954.25           1279          46.00       168.70
 1153.01        2954.50           1282          54.00       203.58
 1153.04        2954.75           1286          42.00       151.26
 1153.07        2955.00           1289          42.00       151.26
 1153.10        2955.25           1292          48.00       177.42
 1153.13        2955.50           1296          49.00       181.78
 1153.16        2955.75           1299          39.00       138.19
 1153.19        2956.00           1302          51.00       190.50
 1153.22        2956.25           1306          51.00       190.50
 1153.26        2956.50           1309          49.00       181.78
 1153.29        2956.75           1312          47.00       173.06
 1153.32        2957.00           1316          43.00       155.62
 1153.35        2957.25           1319          49.00       181.78
 1153.38        2957.50           1322          48.00       177.42
 1153.41        2957.75           1326          50.00       186.14
 1153.44        2958.00           1329          50.00       186.14
 1153.47        2958.25           1332          41.00       146.91
 1153.50        2958.50           1336          49.00       181.78
 1153.53        2958.75           1339          52.00       194.86
 1153.56        2959.00           1342          45.00       164.34
 1153.59        2959.25           1346          49.00       181.78
 1153.63        2959.50           1349          58.00       221.01
 1153.66        2959.75           1352          68.00       264.61
 1153.69        2960.00           1356         100.00       404.10
 1153.72        2960.25           1359         140.00       578.48
 1153.75        2960.50           1362         171.00       713.62
 1153.78        2960.75           1366         218.00       918.51
 1153.81        2961.00           1369         278.00      1180.08
 1153.84        2961.25           1372         308.00      1310.86
 1153.87        2961.50           1376         392.00      1677.07
 1153.90        2961.75           1379         541.00      2326.67
 1153.94        2962.00           1382        1013.00      4384.62
 1153.97        2962.25           1386        2560.00     11131.44
 1154.00        2962.50           1389        4002.00     17422.79
 1154.03        2962.75           1392        5497.00     23947.89
 1154.06        2963.00           1396        7572.00     33008.70
 1154.09        2963.25           1399        9044.00     39439.40
 1154.12        2963.50           1402       10825.00     47223.35
 1154.15        2963.75           1406       13237.00     57770.92
 1154.18        2964.00           1409       15065.00     65769.15
 1154.21        2964.25           1412       16823.00     73464.69
 1154.24        2964.50           1416       19011.00     83047.55
 1154.28        2964.75           1419       20722.00     90545.09
 1154.31        2965.00           1422       22530.00     98471.38
 1154.34        2965.25           1426       24549.00    107327.10
 1154.37        2965.50           1429       26340.00    115186.80
 1154.40        2965.75           1432       28145.00    123111.70
 1154.43        2966.00           1436       30242.00    132323.30
 1154.46        2966.25           1439       31807.00    139201.30
 1154.49        2966.50           1442       33186.00    145264.20
 1154.52        2966.75           1446       35079.00    153590.60
 1154.55        2967.00           1449       35593.00    155852.10
 1154.59        2967.25           1452       35655.00    156124.90
 1154.62        2967.50           1456       35734.00    156472.50
 1154.65        2967.75           1459       35676.00    156217.30
 1154.68        2968.00           1462       35571.00    155755.30
 1154.71        2968.25           1466       34934.00    152952.60
 1154.74        2968.50           1469       33647.00    147291.50
 1154.77        2968.75           1472       32116.00    140559.60
 1154.80        2969.00           1476       30058.00    131514.80
 1154.83        2969.25           1479       28405.00    124253.50
 1154.87        2969.50           1482       26824.00    117311.40
 1154.90        2969.75           1486       24516.00    107182.40
 1154.93        2970.00           1489       22860.00     99918.50
 1154.96        2970.25           1492       21140.00     92377.28
 1154.99        2970.50           1496       19166.00     83726.60
 1155.02        2970.75           1499       17395.00     75969.36
 1155.05        2971.00           1502       15712.00     68600.94
 1155.08        2971.25           1506       13809.00     60273.23
 1155.11        2971.50           1509       12146.00     52999.20
 1155.15        2971.75           1513       10021.00     43708.98
 1155.18        2972.00           1516        8467.00     36918.38
 1155.21        2972.25           1519        6910.00     30117.44
 1155.24        2972.50           1523        4754.00     20704.66
 1155.27        2972.75           1526        3123.00     13587.49
 1155.30        2973.00           1529        1707.00      7410.98
 1155.33        2973.25           1533         591.00      2544.66
 1155.36        2973.50           1536         357.00      1524.48
 1155.39        2973.75           1539         286.00      1214.95
 1155.42        2974.00           1543         248.00      1049.29
 1155.45        2974.25           1546         170.00       709.26
 1155.48        2974.50           1549         131.00       539.24
 1155.52        2974.75           1553          92.00       369.23
 1155.55        2975.00           1556          66.00       255.89
 1155.58        2975.25           1559          57.00       216.65
 1155.61        2975.50           1563          49.00       181.78
 1155.64        2975.75           1566          46.00       168.70
 1155.67        2976.00           1569          53.00       199.22
 1155.70        2976.25           1573          52.00       194.86
 1155.73        2976.50           1576          48.00       177.42
 1155.76        2976.75           1579          45.00       164.34
 1155.79        2977.00           1583          38.00       133.83
 1155.82        2977.25           1586          46.00       168.70
 1155.86        2977.50           1590          52.00       194.86
 1155.89        2977.75           1593          45.00       164.34
 1155.92        2978.00           1596          43.00       155.62
 1155.95        2978.25           1600          49.00       181.78
 1155.98        2978.50           1603          49.00       181.78
 1156.01        2978.75           1606          49.00       181.78
 1156.04        2979.00           1610          54.00       203.58
 1156.07        2979.25           1613          40.00       142.55
 1156.10        2979.50           1616          43.00       155.62
 1156.13        2979.75           1620          43.00       155.62
 1156.16        2980.00           1623          49.00       181.78
 1156.19        2980.25           1626          54.00       203.58
 1156.22        2980.50           1630          42.00       151.26
 1156.25        2980.75           1633          45.00       164.34
 1156.28        2981.00           1637          46.00       168.70
 1156.31        2981.25           1640          47.00       173.06
 1156.35        2981.50           1643          53.00       199.22
 1156.38        2981.75           1647          48.00       177.42
 1156.41        2982.00           1650          49.00       181.78
 1156.44        2982.25           1653          50.00       186.14
 1156.47        2982.50           1657          50.00       186.14
 1156.50        2982.75           1660          44.00       159.98
 1156.53        2983.00           1663          37.00       129.47
 1156.56        2983.25           1667          45.00       164.34
 1156.59        2983.50           1670          36.00       125.11
 1156.62        2983.75           1673          37.00       129.47
 1156.65        2984.00           1677          43.00       155.62
HS scan finished at 19:16:52
end
