************************************************************
  HS Scan of (1) Internal mercury lamp
************************************************************
Integration time is 0.2294 seconds per sample
dh180318Manchester 53.47 2.23 2.750537pr1000
************************************************************
Dead Time -------------------------  3E-08 
Number of Cycles Used -------------  4 
Starting Wavelength (Angstroms) ---  2950 
Final Wavelength (Angstoms) -------  2984 
Wavelength Increment (Angstroms) --  .25 
Filter Wheel #1 Position ---------- (1) Ground quartz diffuser (ND=2.32)
Filter Wheel #2 Position ---------- (1) Neutral Density 0.494



************************************************************
HS scan start time = 03:11:37
Dark Count =  7.5 


Time (GMT)  Wavelength (Ang)  Step Number  Raw Counts  Counts/Second

  191.99        2950.00           1222          61.00       233.22
  192.06        2950.25           1226          62.00       237.58
  192.09        2950.50           1229          65.00       250.66
  192.12        2950.75           1232          57.00       215.78
  192.15        2951.00           1236          59.00       224.50
  192.19        2951.25           1239          58.00       220.14
  192.22        2951.50           1242          61.00       233.22
  192.25        2951.75           1246          59.00       224.50
  192.28        2952.00           1249          62.00       237.58
  192.31        2952.25           1252          65.00       250.66
  192.34        2952.50           1256          63.00       241.94
  192.37        2952.75           1259          61.00       233.22
  192.40        2953.00           1262          58.00       220.14
  192.43        2953.25           1266          59.00       224.50
  192.46        2953.50           1269          56.00       211.42
  192.49        2953.75           1272          60.00       228.86
  192.52        2954.00           1276          52.00       193.99
  192.55        2954.25           1279          67.00       259.37
  192.59        2954.50           1282          59.00       224.50
  192.62        2954.75           1286          54.00       202.70
  192.65        2955.00           1289          65.00       250.66
  192.68        2955.25           1292          66.00       255.02
  192.71        2955.50           1296          66.00       255.02
  192.74        2955.75           1299          56.00       211.42
  192.77        2956.00           1302          57.00       215.78
  192.80        2956.25           1306          55.00       207.06
  192.83        2956.50           1309          62.00       237.58
  192.86        2956.75           1312          58.00       220.14
  192.89        2957.00           1316          59.00       224.50
  192.92        2957.25           1319          56.00       211.42
  192.95        2957.50           1322          66.00       255.02
  192.99        2957.75           1326          57.00       215.78
  193.02        2958.00           1329          61.00       233.22
  193.05        2958.25           1332          57.00       215.78
  193.08        2958.50           1336          52.00       193.99
  193.11        2958.75           1339          54.00       202.70
  193.14        2959.00           1342          54.00       202.70
  193.17        2959.25           1346          57.00       215.78
  193.20        2959.50           1349          61.00       233.22
  193.23        2959.75           1352          82.00       324.76
  193.26        2960.00           1356         109.00       442.46
  193.29        2960.25           1359         131.00       538.37
  193.32        2960.50           1362         172.00       717.10
  193.35        2960.75           1366         217.00       913.28
  193.38        2961.00           1369         259.00      1096.37
  193.42        2961.25           1372         276.00      1170.49
  193.45        2961.50           1376         333.00      1418.98
  193.48        2961.75           1379         405.00      1732.87
  193.51        2962.00           1382         636.00      2739.98
  193.54        2962.25           1386        1765.00      7663.05
  193.57        2962.50           1389        3057.00     13298.68
  193.60        2962.75           1392        4428.00     19280.99
  193.63        2963.00           1396        6178.00     26920.16
  193.66        2963.25           1399        7678.00     33470.82
  193.70        2963.50           1402        9059.00     39504.07
  193.73        2963.75           1406       11134.00     48573.35
  193.76        2964.00           1409       12532.00     54686.43
  193.79        2964.25           1412       14182.00     61904.31
  193.82        2964.50           1416       16136.00     70456.10
  193.85        2964.75           1419       17426.00     76104.25
  193.88        2965.00           1422       19148.00     83646.87
  193.91        2965.25           1426       20965.00     91609.31
  193.94        2965.50           1429       22695.00     99194.05
  193.98        2965.75           1432       24043.00    105106.40
  194.01        2966.00           1436       26105.00    114154.40
  194.04        2966.25           1439       27616.00    120787.80
  194.07        2966.50           1442       28709.00    125587.80
  194.10        2966.75           1446       30459.00    133275.90
  194.13        2967.00           1449       31401.00    137415.80
  194.16        2967.25           1452       31766.00    139020.20
  194.19        2967.50           1456       31866.00    139459.80
  194.22        2967.75           1459       32054.00    140286.20
  194.26        2968.00           1462       31820.00    139257.60
  194.29        2968.25           1466       31548.00    138061.90
  194.32        2968.50           1469       30606.00    133921.90
  194.35        2968.75           1472       29563.00    129339.20
  194.38        2969.00           1476       27516.00    120348.70
  194.41        2969.25           1479       26265.00    114856.70
  194.44        2969.50           1482       24697.00    107975.60
  194.47        2969.75           1486       22805.00     99676.44
  194.50        2970.00           1489       21374.00     93402.16
  194.53        2970.25           1492       20048.00     87590.37
  194.57        2970.50           1496       17928.00     78302.74
  194.60        2970.75           1499       16641.00     72666.96
  194.63        2971.00           1502       15043.00     65671.98
  194.66        2971.25           1506       12910.00     56339.69
  194.69        2971.50           1509       11421.00     49828.14
  194.72        2971.75           1513        9626.00     41981.79
  194.75        2972.00           1516        7987.00     34820.57
  194.78        2972.25           1519        6527.00     28444.05
  194.81        2972.50           1523        4592.00     19996.74
  194.84        2972.75           1526        3156.00     13730.59
  194.87        2973.00           1529        1895.00      8230.02
  194.90        2973.25           1533         708.00      3053.90
  194.94        2973.50           1536         380.00      1623.88
  194.97        2973.75           1539         275.00      1166.13
  195.00        2974.00           1543         239.00      1009.18
  195.03        2974.25           1546         176.00       734.54
  195.06        2974.50           1549         139.00       573.24
  195.09        2974.75           1553          97.00       390.15
  195.12        2975.00           1556          79.00       311.69
  195.15        2975.25           1559          66.00       255.02
  195.18        2975.50           1563          68.00       263.73
  195.21        2975.75           1566          55.00       207.06
  195.24        2976.00           1569          63.00       241.94
  195.28        2976.25           1573          61.00       233.22
  195.31        2976.50           1576          55.00       207.06
  195.34        2976.75           1579          55.00       207.06
  195.37        2977.00           1583          57.00       215.78
  195.40        2977.25           1586          58.00       220.14
  195.43        2977.50           1590          57.00       215.78
  195.46        2977.75           1593          56.00       211.42
  195.49        2978.00           1596          55.00       207.06
  195.52        2978.25           1600          61.00       233.22
  195.55        2978.50           1603          60.00       228.86
  195.58        2978.75           1606          62.00       237.58
  195.62        2979.00           1610          60.00       228.86
  195.65        2979.25           1613          56.00       211.42
  195.68        2979.50           1616          60.00       228.86
  195.71        2979.75           1620          53.00       198.34
  195.74        2980.00           1623          68.00       263.73
  195.77        2980.25           1626          56.00       211.42
  195.80        2980.50           1630          59.00       224.50
  195.83        2980.75           1633          49.00       180.91
  195.86        2981.00           1637          52.00       193.99
  195.89        2981.25           1640          54.00       202.70
  195.92        2981.50           1643          51.00       189.63
  195.95        2981.75           1647          52.00       193.99
  195.99        2982.00           1650          74.00       289.89
  196.02        2982.25           1653          50.00       185.27
  196.05        2982.50           1657          60.00       228.86
  196.08        2982.75           1660          53.00       198.34
  196.11        2983.00           1663          57.00       215.78
  196.14        2983.25           1667          59.00       224.50
  196.17        2983.50           1670          53.00       198.34
  196.20        2983.75           1673          49.00       180.91
  196.23        2984.00           1677          51.00       189.63
HS scan finished at 03:16:27
end
************************************************************
  HS Scan of (1) Internal mercury lamp
************************************************************
Integration time is 0.2294 seconds per sample
dh180318Manchester 53.47 2.23 2.750537pr1000
************************************************************
Dead Time -------------------------  3E-08 
Number of Cycles Used -------------  4 
Starting Wavelength (Angstroms) ---  2950 
Final Wavelength (Angstoms) -------  2984 
Wavelength Increment (Angstroms) --  .25 
Filter Wheel #1 Position ---------- (1) Ground quartz diffuser (ND=2.32)
Filter Wheel #2 Position ---------- (1) Neutral Density 0.494



************************************************************
HS scan start time = 19:12:03
Dark Count =  5.3 


Time (GMT)  Wavelength (Ang)  Step Number  Raw Counts  Counts/Second

 1152.41        2950.00           1222          51.00       199.22
 1152.48        2950.25           1226          66.00       264.61
 1152.51        2950.50           1229          54.00       212.29
 1152.54        2950.75           1232          62.00       247.17
 1152.57        2951.00           1236          54.00       212.29
 1152.60        2951.25           1239          55.00       216.65
 1152.63        2951.50           1242          62.00       247.17
 1152.66        2951.75           1246          60.00       238.45
 1152.69        2952.00           1249          62.00       247.17
 1152.73        2952.25           1252          61.00       242.81
 1152.76        2952.50           1256          58.00       229.73
 1152.79        2952.75           1259          59.00       234.09
 1152.82        2953.00           1262          70.00       282.04
 1152.85        2953.25           1266          52.00       203.58
 1152.88        2953.50           1269          58.00       229.73
 1152.91        2953.75           1272          69.00       277.68
 1152.94        2954.00           1276          60.00       238.45
 1152.97        2954.25           1279          58.00       229.73
 1153.00        2954.50           1282          55.00       216.65
 1153.03        2954.75           1286          65.00       260.25
 1153.06        2955.00           1289          61.00       242.81
 1153.10        2955.25           1292          69.00       277.68
 1153.13        2955.50           1296          51.00       199.22
 1153.16        2955.75           1299          54.00       212.29
 1153.19        2956.00           1302          52.00       203.58
 1153.22        2956.25           1306          53.00       207.94
 1153.25        2956.50           1309          55.00       216.65
 1153.28        2956.75           1312          61.00       242.81
 1153.31        2957.00           1316          59.00       234.09
 1153.34        2957.25           1319          63.00       251.53
 1153.37        2957.50           1322          58.00       229.73
 1153.40        2957.75           1326          53.00       207.94
 1153.43        2958.00           1329          49.00       190.50
 1153.47        2958.25           1332          64.00       255.89
 1153.50        2958.50           1336          52.00       203.58
 1153.53        2958.75           1339          62.00       247.17
 1153.56        2959.00           1342          60.00       238.45
 1153.59        2959.25           1346          63.00       251.53
 1153.62        2959.50           1349          64.00       255.89
 1153.65        2959.75           1352          81.00       329.99
 1153.68        2960.00           1356         108.00       447.70
 1153.71        2960.25           1359         132.00       552.32
 1153.74        2960.50           1362         163.00       687.46
 1153.77        2960.75           1366         213.00       905.43
 1153.80        2961.00           1369         265.00      1132.12
 1153.83        2961.25           1372         282.00      1206.23
 1153.86        2961.50           1376         357.00      1533.20
 1153.90        2961.75           1379         496.00      2139.20
 1153.93        2962.00           1382         987.00      4279.97
 1153.96        2962.25           1386        2472.00     10756.30
 1153.99        2962.50           1389        3815.00     16615.52
 1154.02        2962.75           1392        5350.00     23314.91
 1154.05        2963.00           1396        7388.00     32213.77
 1154.08        2963.25           1399        8854.00     38617.95
 1154.11        2963.50           1402       10223.00     44600.62
 1154.14        2963.75           1406       12073.00     52688.71
 1154.17        2964.00           1409       13702.00     59813.87
 1154.21        2964.25           1412       15313.00     66863.29
 1154.24        2964.50           1416       17211.00     75172.38
 1154.27        2964.75           1419       18583.00     81181.35
 1154.30        2965.00           1422       20091.00     87788.44
 1154.33        2965.25           1426       22189.00     96984.91
 1154.36        2965.50           1429       23677.00    103510.60
 1154.39        2965.75           1432       25198.00    110183.60
 1154.42        2966.00           1436       27364.00    119691.00
 1154.45        2966.25           1439       28550.00    124899.10
 1154.48        2966.50           1442       29919.00    130912.90
 1154.52        2966.75           1446       31201.00    136546.40
 1154.55        2967.00           1449       31787.00    139122.20
 1154.58        2967.25           1452       31927.00    139737.60
 1154.61        2967.50           1456       31876.00    139513.40
 1154.64        2967.75           1459       31853.00    139412.30
 1154.67        2968.00           1462       31823.00    139280.40
 1154.70        2968.25           1466       30981.00    135579.50
 1154.73        2968.50           1469       29721.00    130043.00
 1154.76        2968.75           1472       28355.00    124042.70
 1154.79        2969.00           1476       26587.00    116279.80
 1154.82        2969.25           1479       24846.00    108639.00
 1154.86        2969.50           1482       23550.00    102953.50
 1154.89        2969.75           1486       21377.00     93424.94
 1154.92        2970.00           1489       20030.00     87521.12
 1154.95        2970.25           1492       18697.00     81680.73
 1154.98        2970.50           1496       16843.00     73561.03
 1155.01        2970.75           1499       15416.00     67314.10
 1155.04        2971.00           1502       13980.00     61030.13
 1155.07        2971.25           1506       12040.00     52544.41
 1155.10        2971.50           1509       10537.00     45973.13
 1155.14        2971.75           1513        8570.00     37377.11
 1155.17        2972.00           1516        7044.00     30711.37
 1155.20        2972.25           1519        5619.00     24489.22
 1155.23        2972.50           1523        3736.00     16270.80
 1155.26        2972.75           1526        2320.00     10093.29
 1155.29        2973.00           1529        1110.00      4816.30
 1155.32        2973.25           1533         424.00      1825.30
 1155.35        2973.50           1536         308.00      1319.58
 1155.38        2973.75           1539         265.00      1132.12
 1155.41        2974.00           1543         222.00       944.67
 1155.44        2974.25           1546         155.00       652.58
 1155.47        2974.50           1549         131.00       547.96
 1155.51        2974.75           1553          89.00       364.87
 1155.54        2975.00           1556          76.00       308.20
 1155.57        2975.25           1559          67.00       268.96
 1155.60        2975.50           1563          55.00       216.65
 1155.63        2975.75           1566          64.00       255.89
 1155.66        2976.00           1569          62.00       247.17
 1155.69        2976.25           1573          56.00       221.01
 1155.72        2976.50           1576          57.00       225.37
 1155.75        2976.75           1579          56.00       221.01
 1155.78        2977.00           1583          56.00       221.01
 1155.81        2977.25           1586          53.00       207.94
 1155.84        2977.50           1590          63.00       251.53
 1155.87        2977.75           1593          63.00       251.53
 1155.90        2978.00           1596          54.00       212.29
 1155.93        2978.25           1600          48.00       186.14
 1155.97        2978.50           1603          60.00       238.45
 1156.00        2978.75           1606          55.00       216.65
 1156.03        2979.00           1610          49.00       190.50
 1156.06        2979.25           1613          55.00       216.65
 1156.09        2979.50           1616          47.00       181.78
 1156.12        2979.75           1620          57.00       225.37
 1156.15        2980.00           1623          57.00       225.37
 1156.18        2980.25           1626          56.00       221.01
 1156.21        2980.50           1630          57.00       225.37
 1156.24        2980.75           1633          52.00       203.58
 1156.27        2981.00           1637          54.00       212.29
 1156.30        2981.25           1640          51.00       199.22
 1156.33        2981.50           1643          55.00       216.65
 1156.37        2981.75           1647          60.00       238.45
 1156.40        2982.00           1650          51.00       199.22
 1156.43        2982.25           1653          59.00       234.09
 1156.46        2982.50           1657          53.00       207.94
 1156.49        2982.75           1660          51.00       199.22
 1156.52        2983.00           1663          48.00       186.14
 1156.55        2983.25           1667          58.00       229.73
 1156.58        2983.50           1670          54.00       212.29
 1156.61        2983.75           1673          55.00       216.65
 1156.64        2984.00           1677          60.00       238.45
HS scan finished at 19:16:52
end
