************************************************************
  HS Scan of (1) Internal mercury lamp
************************************************************
Integration time is 0.2294 seconds per sample
dh140319Manchester 53.47 2.23 2.804185pr1000
************************************************************
Dead Time -------------------------  3E-08 
Number of Cycles Used -------------  4 
Starting Wavelength (Angstroms) ---  2950 
Final Wavelength (Angstoms) -------  2984 
Wavelength Increment (Angstroms) --  .25 
Filter Wheel #1 Position ---------- (1) Ground quartz diffuser (ND=2.32)
Filter Wheel #2 Position ---------- (1) Neutral Density 0.494



************************************************************
HS scan start time = 03:27:39
Dark Count =  3.5 


Time (GMT)  Wavelength (Ang)  Step Number  Raw Counts  Counts/Second

  208.02        2950.00           1222          54.00       220.14
  208.09        2950.25           1226          52.00       211.42
  208.12        2950.50           1229          45.00       180.91
  208.15        2950.75           1232          56.00       228.86
  208.18        2951.00           1236          51.00       207.06
  208.21        2951.25           1239          57.00       233.22
  208.25        2951.50           1242          57.00       233.22
  208.28        2951.75           1246          50.00       202.70
  208.31        2952.00           1249          53.00       215.78
  208.34        2952.25           1252          58.00       237.58
  208.37        2952.50           1256          55.00       224.50
  208.40        2952.75           1259          55.00       224.50
  208.43        2953.00           1262          50.00       202.70
  208.46        2953.25           1266          54.00       220.14
  208.49        2953.50           1269          55.00       224.50
  208.52        2953.75           1272          52.00       211.42
  208.55        2954.00           1276          58.00       237.58
  208.58        2954.25           1279          54.00       220.14
  208.61        2954.50           1282          61.00       250.66
  208.64        2954.75           1286          53.00       215.78
  208.68        2955.00           1289          58.00       237.58
  208.71        2955.25           1292          54.00       220.14
  208.74        2955.50           1296          50.00       202.70
  208.77        2955.75           1299          56.00       228.86
  208.80        2956.00           1302          51.00       207.06
  208.83        2956.25           1306          55.00       224.50
  208.86        2956.50           1309          60.00       246.30
  208.89        2956.75           1312          56.00       228.86
  208.92        2957.00           1316          55.00       224.50
  208.95        2957.25           1319          53.00       215.78
  208.99        2957.50           1322          53.00       215.78
  209.02        2957.75           1326          55.00       224.50
  209.05        2958.00           1329          59.00       241.94
  209.08        2958.25           1332          57.00       233.22
  209.11        2958.50           1336          68.00       281.17
  209.14        2958.75           1339          58.00       237.58
  209.17        2959.00           1342          60.00       246.30
  209.20        2959.25           1346          54.00       220.14
  209.23        2959.50           1349          64.00       263.73
  209.26        2959.75           1352          69.00       285.53
  209.29        2960.00           1356          94.00       394.51
  209.32        2960.25           1359         114.00       481.70
  209.36        2960.50           1362         145.00       616.84
  209.39        2960.75           1366         169.00       721.46
  209.42        2961.00           1369         221.00       948.15
  209.45        2961.25           1372         225.00       965.59
  209.48        2961.50           1376         308.00      1327.43
  209.51        2961.75           1379         443.00      1915.98
  209.54        2962.00           1382         945.00      4104.69
  209.57        2962.25           1386        2301.00     10018.27
  209.60        2962.50           1389        3431.00     14947.85
  209.63        2962.75           1392        4583.00     19974.91
  209.67        2963.00           1396        6146.00     26797.91
  209.70        2963.25           1399        7436.00     32431.28
  209.73        2963.50           1402        8750.00     38171.42
  209.76        2963.75           1406       10522.00     45915.43
  209.79        2964.00           1409       11730.00     51196.71
  209.82        2964.25           1412       12913.00     56370.32
  209.85        2964.50           1416       14722.00     64284.71
  209.88        2964.75           1419       15925.00     69549.93
  209.91        2965.00           1422       17035.00     74409.60
  209.95        2965.25           1426       18689.00     81653.57
  209.98        2965.50           1429       19833.00     86665.76
  210.01        2965.75           1432       21027.00     91898.61
  210.04        2966.00           1436       22578.00     98698.52
  210.07        2966.25           1439       23940.00    104672.10
  210.10        2966.50           1442       25124.00    109866.80
  210.13        2966.75           1446       26138.00    114316.80
  210.16        2967.00           1449       26309.00    115067.40
  210.19        2967.25           1452       26538.00    116072.60
  210.22        2967.50           1456       26394.00    115440.50
  210.26        2967.75           1459       26436.00    115624.90
  210.29        2968.00           1462       26225.00    114698.70
  210.32        2968.25           1466       25584.00    111885.40
  210.35        2968.50           1469       24549.00    107343.80
  210.38        2968.75           1472       23472.00    102619.30
  210.41        2969.00           1476       21701.00     94853.22
  210.44        2969.25           1479       20572.00     89904.32
  210.47        2969.50           1482       19225.00     84001.75
  210.50        2969.75           1486       17700.00     77321.70
  210.54        2970.00           1489       16458.00     71883.28
  210.57        2970.25           1492       15194.00     66350.34
  210.60        2970.50           1496       13748.00     60022.98
  210.63        2970.75           1499       12438.00     54292.81
  210.66        2971.00           1502       11273.00     49198.54
  210.69        2971.25           1506        9674.00     42209.04
  210.72        2971.50           1509        8543.00     37267.01
  210.75        2971.75           1513        7005.00     30548.91
  210.78        2972.00           1516        5632.00     24553.83
  210.82        2972.25           1519        4564.00     19891.99
  210.85        2972.50           1523        2950.00     12849.33
  210.88        2972.75           1526        1726.00      7510.41
  210.91        2973.00           1529         846.00      3673.03
  210.94        2973.25           1533         372.00      1606.44
  210.97        2973.50           1536         257.00      1105.09
  211.00        2973.75           1539         235.00      1009.18
  211.03        2974.00           1543         192.00       821.73
  211.06        2974.25           1546         149.00       634.28
  211.09        2974.50           1549         122.00       516.57
  211.12        2974.75           1553          73.00       302.97
  211.16        2975.00           1556          65.00       268.09
  211.19        2975.25           1559          51.00       207.06
  211.22        2975.50           1563          48.00       193.99
  211.25        2975.75           1566          54.00       220.14
  211.28        2976.00           1569          45.00       180.91
  211.31        2976.25           1573          54.00       220.14
  211.34        2976.50           1576          51.00       207.06
  211.37        2976.75           1579          57.00       233.22
  211.40        2977.00           1583          52.00       211.42
  211.44        2977.25           1586          53.00       215.78
  211.47        2977.50           1590          54.00       220.14
  211.50        2977.75           1593          55.00       224.50
  211.53        2978.00           1596          51.00       207.06
  211.56        2978.25           1600          51.00       207.06
  211.59        2978.50           1603          48.00       193.99
  211.62        2978.75           1606          53.00       215.78
  211.65        2979.00           1610          57.00       233.22
  211.68        2979.25           1613          46.00       185.27
  211.71        2979.50           1616          49.00       198.34
  211.74        2979.75           1620          51.00       207.06
  211.77        2980.00           1623          49.00       198.34
  211.81        2980.25           1626          59.00       241.94
  211.84        2980.50           1630          55.00       224.50
  211.87        2980.75           1633          57.00       233.22
  211.90        2981.00           1637          47.00       189.63
  211.93        2981.25           1640          58.00       237.58
  211.96        2981.50           1643          47.00       189.63
  211.99        2981.75           1647          44.00       176.55
  212.02        2982.00           1650          54.00       220.14
  212.05        2982.25           1653          51.00       207.06
  212.08        2982.50           1657          55.00       224.50
  212.12        2982.75           1660          49.00       198.34
  212.15        2983.00           1663          48.00       193.99
  212.18        2983.25           1667          51.00       207.06
  212.21        2983.50           1670          48.00       193.99
  212.24        2983.75           1673          50.00       202.70
  212.27        2984.00           1677          42.00       167.83
HS scan finished at 03:32:29
end
************************************************************
  HS Scan of (1) Internal mercury lamp
************************************************************
Integration time is 0.2294 seconds per sample
dh140319Manchester 53.47 2.23 2.804185pr1000
************************************************************
Dead Time -------------------------  3E-08 
Number of Cycles Used -------------  4 
Starting Wavelength (Angstroms) ---  2950 
Final Wavelength (Angstoms) -------  2984 
Wavelength Increment (Angstroms) --  .25 
Filter Wheel #1 Position ---------- (1) Ground quartz diffuser (ND=2.32)
Filter Wheel #2 Position ---------- (1) Neutral Density 0.494



************************************************************
HS scan start time = 19:12:06
Dark Count =  7.2 


Time (GMT)  Wavelength (Ang)  Step Number  Raw Counts  Counts/Second

 1152.48        2950.00           1222          81.00       321.71
 1152.54        2950.25           1226          58.00       221.45
 1152.57        2950.50           1229          47.00       173.50
 1152.60        2950.75           1232          53.00       199.65
 1152.64        2951.00           1236          56.00       212.73
 1152.67        2951.25           1239          60.00       230.17
 1152.70        2951.50           1242          53.00       199.65
 1152.73        2951.75           1246          48.00       177.86
 1152.76        2952.00           1249          61.00       234.53
 1152.79        2952.25           1252          54.00       204.01
 1152.82        2952.50           1256          54.00       204.01
 1152.85        2952.75           1259          51.00       190.93
 1152.88        2953.00           1262          54.00       204.01
 1152.91        2953.25           1266          48.00       177.86
 1152.94        2953.50           1269          60.00       230.17
 1152.97        2953.75           1272          68.00       265.04
 1153.00        2954.00           1276          46.00       169.14
 1153.03        2954.25           1279          54.00       204.01
 1153.07        2954.50           1282          63.00       243.25
 1153.10        2954.75           1286          56.00       212.73
 1153.13        2955.00           1289          51.00       190.93
 1153.16        2955.25           1292          54.00       204.01
 1153.19        2955.50           1296          56.00       212.73
 1153.22        2955.75           1299          59.00       225.81
 1153.25        2956.00           1302          52.00       195.29
 1153.28        2956.25           1306          51.00       190.93
 1153.31        2956.50           1309          62.00       238.89
 1153.34        2956.75           1312          57.00       217.09
 1153.37        2957.00           1316          42.00       151.70
 1153.41        2957.25           1319          59.00       225.81
 1153.44        2957.50           1322          54.00       204.01
 1153.47        2957.75           1326          51.00       190.93
 1153.50        2958.00           1329          56.00       212.73
 1153.53        2958.25           1332          53.00       199.65
 1153.56        2958.50           1336          58.00       221.45
 1153.59        2958.75           1339          55.00       208.37
 1153.62        2959.00           1342          52.00       195.29
 1153.65        2959.25           1346          58.00       221.45
 1153.68        2959.50           1349          64.00       247.60
 1153.71        2959.75           1352          72.00       282.48
 1153.74        2960.00           1356         102.00       413.26
 1153.77        2960.25           1359         112.00       456.85
 1153.81        2960.50           1362         140.00       578.91
 1153.84        2960.75           1366         172.00       718.41
 1153.87        2961.00           1369         221.00       932.02
 1153.90        2961.25           1372         246.00      1041.01
 1153.93        2961.50           1376         291.00      1237.19
 1153.96        2961.75           1379         415.00      1777.78
 1153.99        2962.00           1382         887.00      3835.66
 1154.02        2962.25           1386        2124.00      9230.11
 1154.05        2962.50           1389        3269.00     14224.90
 1154.08        2962.75           1392        4423.00     19260.47
 1154.11        2963.00           1396        6085.00     26515.42
 1154.15        2963.25           1399        7314.00     31882.27
 1154.18        2963.50           1402        8480.00     36975.61
 1154.21        2963.75           1406       10163.00     44330.06
 1154.24        2964.00           1409       11493.00     50144.26
 1154.27        2964.25           1412       12739.00     55593.08
 1154.30        2964.50           1416       14525.00     63406.46
 1154.33        2964.75           1419       15670.00     68417.53
 1154.36        2965.00           1422       16896.00     73784.77
 1154.40        2965.25           1426       18437.00     80533.48
 1154.43        2965.50           1429       19764.00     86347.19
 1154.46        2965.75           1432       20822.00     90983.84
 1154.49        2966.00           1436       22454.00     98138.56
 1154.52        2966.25           1439       23469.00    102589.90
 1154.55        2966.50           1442       24563.00    107389.00
 1154.58        2966.75           1446       25958.00    113510.60
 1154.61        2967.00           1449       26073.00    114015.30
 1154.64        2967.25           1452       26418.00    115529.60
 1154.68        2967.50           1456       26268.00    114871.20
 1154.71        2967.75           1459       26400.00    115450.60
 1154.74        2968.00           1462       26213.00    114629.80
 1154.77        2968.25           1466       25401.00    111066.10
 1154.80        2968.50           1469       24489.00    107064.40
 1154.83        2968.75           1472       23214.00    101471.50
 1154.86        2969.00           1476       21623.00     94495.06
 1154.89        2969.25           1479       20447.00     89340.27
 1154.92        2969.50           1482       19398.00     84743.52
 1154.95        2969.75           1486       17795.00     77721.56
 1154.98        2970.00           1489       16535.00     72204.18
 1155.01        2970.25           1492       15362.00     67069.43
 1155.05        2970.50           1496       13752.00     60024.30
 1155.08        2970.75           1499       12492.00     54512.80
 1155.11        2971.00           1502       11212.00     48915.67
 1155.14        2971.25           1506        9651.00     42092.36
 1155.17        2971.50           1509        8544.00     37255.22
 1155.20        2971.75           1513        6750.00     29419.15
 1155.23        2972.00           1516        5650.00     24616.26
 1155.26        2972.25           1519        4479.00     19504.87
 1155.29        2972.50           1523        2968.00     12911.71
 1155.32        2972.75           1526        1769.00      7681.80
 1155.35        2973.00           1529         759.00      3277.57
 1155.38        2973.25           1533         336.00      1433.37
 1155.42        2973.50           1536         272.00      1154.36
 1155.45        2973.75           1539         238.00      1006.13
 1155.48        2974.00           1543         195.00       818.68
 1155.51        2974.25           1546         151.00       626.86
 1155.54        2974.50           1549         132.00       544.04
 1155.57        2974.75           1553          92.00       369.66
 1155.60        2975.00           1556          64.00       247.60
 1155.63        2975.25           1559          60.00       230.17
 1155.66        2975.50           1563          49.00       182.22
 1155.70        2975.75           1566          52.00       195.29
 1155.73        2976.00           1569          52.00       195.29
 1155.76        2976.25           1573          48.00       177.86
 1155.79        2976.50           1576          49.00       182.22
 1155.82        2976.75           1579          49.00       182.22
 1155.85        2977.00           1583          43.00       156.06
 1155.88        2977.25           1586          48.00       177.86
 1155.91        2977.50           1590          55.00       208.37
 1155.94        2977.75           1593          44.00       160.42
 1155.97        2978.00           1596          52.00       195.29
 1156.00        2978.25           1600          47.00       173.50
 1156.03        2978.50           1603          54.00       204.01
 1156.06        2978.75           1606          48.00       177.86
 1156.10        2979.00           1610          56.00       212.73
 1156.13        2979.25           1613          48.00       177.86
 1156.16        2979.50           1616          51.00       190.93
 1156.19        2979.75           1620          49.00       182.22
 1156.22        2980.00           1623          55.00       208.37
 1156.25        2980.25           1626          53.00       199.65
 1156.28        2980.50           1630          51.00       190.93
 1156.31        2980.75           1633          61.00       234.53
 1156.34        2981.00           1637          56.00       212.73
 1156.37        2981.25           1640          50.00       186.57
 1156.41        2981.50           1643          53.00       199.65
 1156.44        2981.75           1647          50.00       186.57
 1156.47        2982.00           1650          51.00       190.93
 1156.50        2982.25           1653          56.00       212.73
 1156.53        2982.50           1657          50.00       186.57
 1156.56        2982.75           1660          52.00       195.29
 1156.59        2983.00           1663          53.00       199.65
 1156.62        2983.25           1667          51.00       190.93
 1156.65        2983.50           1670          47.00       173.50
 1156.68        2983.75           1673          49.00       182.22
 1156.71        2984.00           1677          51.00       190.93
HS scan finished at 19:16:56
end
