************************************************************
  HS Scan of (1) Internal mercury lamp
************************************************************
Integration time is 0.2294 seconds per sample
dh170317Manchester 53.47 2.23 2.750537pr1000
************************************************************
Dead Time -------------------------  3E-08 
Number of Cycles Used -------------  4 
Starting Wavelength (Angstroms) ---  2950 
Final Wavelength (Angstoms) -------  2984 
Wavelength Increment (Angstroms) --  .25 
Filter Wheel #1 Position ---------- (1) Ground quartz diffuser (ND=2.32)
Filter Wheel #2 Position ---------- (1) Neutral Density 0.494



************************************************************
HS scan start time = 03:14:30
Dark Count =  11.7 


Time (GMT)  Wavelength (Ang)  Step Number  Raw Counts  Counts/Second

  194.86        2950.00           1222          45.00       145.16
  194.93        2950.25           1226          42.00       132.08
  194.96        2950.50           1229          48.00       158.24
  194.99        2950.75           1232          45.00       145.16
  195.02        2951.00           1236          45.00       145.16
  195.05        2951.25           1239          40.00       123.37
  195.08        2951.50           1242          49.00       162.60
  195.11        2951.75           1246          45.00       145.16
  195.15        2952.00           1249          43.00       136.44
  195.18        2952.25           1252          49.00       162.60
  195.21        2952.50           1256          48.00       158.24
  195.24        2952.75           1259          47.00       153.88
  195.27        2953.00           1262          41.00       127.72
  195.30        2953.25           1266          52.00       175.68
  195.33        2953.50           1269          41.00       127.72
  195.36        2953.75           1272          43.00       136.44
  195.39        2954.00           1276          45.00       145.16
  195.43        2954.25           1279          46.00       149.52
  195.46        2954.50           1282          48.00       158.24
  195.49        2954.75           1286          54.00       184.40
  195.52        2955.00           1289          50.00       166.96
  195.55        2955.25           1292          43.00       136.44
  195.58        2955.50           1296          49.00       162.60
  195.61        2955.75           1299          42.00       132.08
  195.64        2956.00           1302          41.00       127.72
  195.67        2956.25           1306          58.00       201.83
  195.70        2956.50           1309          46.00       149.52
  195.73        2956.75           1312          42.00       132.08
  195.77        2957.00           1316          53.00       180.04
  195.80        2957.25           1319          47.00       153.88
  195.83        2957.50           1322          47.00       153.88
  195.86        2957.75           1326          50.00       166.96
  195.89        2958.00           1329          43.00       136.44
  195.92        2958.25           1332          53.00       180.04
  195.95        2958.50           1336          49.00       162.60
  195.98        2958.75           1339          49.00       162.60
  196.01        2959.00           1342          52.00       175.68
  196.04        2959.25           1346          57.00       197.47
  196.07        2959.50           1349          58.00       201.83
  196.10        2959.75           1352          74.00       271.58
  196.14        2960.00           1356         110.00       428.51
  196.17        2960.25           1359         142.00       568.01
  196.20        2960.50           1362         187.00       764.18
  196.23        2960.75           1366         233.00       964.72
  196.26        2961.00           1369         281.00      1173.97
  196.29        2961.25           1372         305.00      1278.60
  196.32        2961.50           1376         404.00      1710.20
  196.35        2961.75           1379         510.00      2172.33
  196.38        2962.00           1382         890.00      3829.12
  196.41        2962.25           1386        2190.00      9498.35
  196.44        2962.50           1389        3764.00     16365.05
  196.47        2962.75           1392        5356.00     23313.16
  196.51        2963.00           1396        7584.00     33041.89
  196.54        2963.25           1399        9289.00     40490.74
  196.57        2963.50           1402       10815.00     47160.40
  196.60        2963.75           1406       13151.00     57375.48
  196.63        2964.00           1409       15069.00     65767.38
  196.66        2964.25           1412       16577.00     72368.38
  196.69        2964.50           1416       18983.00     82905.60
  196.72        2964.75           1419       20457.00     89364.38
  196.75        2965.00           1422       22056.00     96373.71
  196.78        2965.25           1426       24231.00    105912.70
  196.81        2965.50           1429       26041.00    113855.10
  196.85        2965.75           1432       27797.00    121564.20
  196.88        2966.00           1436       30160.00    131943.70
  196.91        2966.25           1439       31592.00    138236.90
  196.94        2966.50           1442       33296.00    145728.60
  196.97        2966.75           1446       34898.00    152774.90
  197.00        2967.00           1449       35724.00    156409.20
  197.03        2967.25           1452       35868.00    157042.90
  197.06        2967.50           1456       35702.00    156312.40
  197.09        2967.75           1459       35843.00    156932.90
  197.12        2968.00           1462       35590.00    155819.60
  197.16        2968.25           1466       35002.00    153232.40
  197.19        2968.50           1469       33762.00    147778.00
  197.22        2968.75           1472       32270.00    141217.30
  197.25        2969.00           1476       30194.00    132093.10
  197.28        2969.25           1479       28475.00    124541.60
  197.31        2969.50           1482       26941.00    117805.80
  197.34        2969.75           1486       24415.00    106720.00
  197.37        2970.00           1489       22708.00     99232.65
  197.40        2970.25           1492       21163.00     92458.81
  197.43        2970.50           1496       18948.00     82752.27
  197.47        2970.75           1499       17413.00     76028.93
  197.50        2971.00           1502       15931.00     69540.31
  197.53        2971.25           1506       13771.00     60087.73
  197.56        2971.50           1509       12061.00     52608.25
  197.59        2971.75           1513        9992.00     43563.00
  197.62        2972.00           1516        8232.00     35872.50
  197.65        2972.25           1519        6519.00     28390.78
  197.68        2972.50           1523        4360.00     18965.89
  197.71        2972.75           1526        2789.00     12111.20
  197.75        2973.00           1529        1393.00      6022.45
  197.78        2973.25           1533         533.00      2272.61
  197.81        2973.50           1536         353.00      1487.86
  197.84        2973.75           1539         291.00      1217.57
  197.87        2974.00           1543         223.00       921.12
  197.90        2974.25           1546         162.00       655.20
  197.93        2974.50           1549         128.00       506.98
  197.96        2974.75           1553          90.00       341.33
  197.99        2975.00           1556          58.00       201.83
  198.02        2975.25           1559          56.00       193.11
  198.05        2975.50           1563          54.00       184.40
  198.09        2975.75           1566          50.00       166.96
  198.12        2976.00           1569          47.00       153.88
  198.15        2976.25           1573          46.00       149.52
  198.18        2976.50           1576          54.00       184.40
  198.21        2976.75           1579          55.00       188.75
  198.24        2977.00           1583          48.00       158.24
  198.27        2977.25           1586          48.00       158.24
  198.30        2977.50           1590          46.00       149.52
  198.33        2977.75           1593          41.00       127.72
  198.36        2978.00           1596          47.00       153.88
  198.39        2978.25           1600          46.00       149.52
  198.43        2978.50           1603          43.00       136.44
  198.46        2978.75           1606          45.00       145.16
  198.49        2979.00           1610          41.00       127.72
  198.52        2979.25           1613          49.00       162.60
  198.55        2979.50           1616          43.00       136.44
  198.58        2979.75           1620          48.00       158.24
  198.61        2980.00           1623          45.00       145.16
  198.64        2980.25           1626          46.00       149.52
  198.67        2980.50           1630          40.00       123.37
  198.70        2980.75           1633          46.00       149.52
  198.74        2981.00           1637          55.00       188.75
  198.77        2981.25           1640          43.00       136.44
  198.80        2981.50           1643          50.00       166.96
  198.83        2981.75           1647          45.00       145.16
  198.86        2982.00           1650          46.00       149.52
  198.89        2982.25           1653          48.00       158.24
  198.92        2982.50           1657          47.00       153.88
  198.95        2982.75           1660          48.00       158.24
  198.98        2983.00           1663          44.00       140.80
  199.01        2983.25           1667          42.00       132.08
  199.05        2983.50           1670          46.00       149.52
  199.08        2983.75           1673          38.00       114.65
  199.11        2984.00           1677          41.00       127.72
HS scan finished at 03:19:19
end
************************************************************
  HS Scan of (1) Internal mercury lamp
************************************************************
Integration time is 0.2294 seconds per sample
dh170317Manchester 53.47 2.23 2.750537pr1000
************************************************************
Dead Time -------------------------  3E-08 
Number of Cycles Used -------------  4 
Starting Wavelength (Angstroms) ---  2950 
Final Wavelength (Angstoms) -------  2984 
Wavelength Increment (Angstroms) --  .25 
Filter Wheel #1 Position ---------- (1) Ground quartz diffuser (ND=2.32)
Filter Wheel #2 Position ---------- (1) Neutral Density 0.494



************************************************************
HS scan start time = 19:12:03
Dark Count =  6.1 


Time (GMT)  Wavelength (Ang)  Step Number  Raw Counts  Counts/Second

 1152.42        2950.00           1222          50.00       191.37
 1152.49        2950.25           1226          45.00       169.57
 1152.52        2950.50           1229          49.00       187.01
 1152.55        2950.75           1232          48.00       182.65
 1152.58        2951.00           1236          38.00       139.06
 1152.61        2951.25           1239          41.00       152.14
 1152.64        2951.50           1242          46.00       173.93
 1152.67        2951.75           1246          42.00       156.50
 1152.70        2952.00           1249          47.00       178.29
 1152.73        2952.25           1252          41.00       152.14
 1152.76        2952.50           1256          49.00       187.01
 1152.79        2952.75           1259          46.00       173.93
 1152.83        2953.00           1262          42.00       156.50
 1152.86        2953.25           1266          44.00       165.21
 1152.89        2953.50           1269          46.00       173.93
 1152.92        2953.75           1272          46.00       173.93
 1152.95        2954.00           1276          45.00       169.57
 1152.98        2954.25           1279          46.00       173.93
 1153.01        2954.50           1282          46.00       173.93
 1153.04        2954.75           1286          41.00       152.14
 1153.07        2955.00           1289          46.00       173.93
 1153.10        2955.25           1292          47.00       178.29
 1153.14        2955.50           1296          48.00       182.65
 1153.17        2955.75           1299          48.00       182.65
 1153.20        2956.00           1302          48.00       182.65
 1153.23        2956.25           1306          50.00       191.37
 1153.26        2956.50           1309          41.00       152.14
 1153.29        2956.75           1312          42.00       156.50
 1153.32        2957.00           1316          39.00       143.42
 1153.35        2957.25           1319          48.00       182.65
 1153.38        2957.50           1322          45.00       169.57
 1153.41        2957.75           1326          44.00       165.21
 1153.44        2958.00           1329          44.00       165.21
 1153.48        2958.25           1332          52.00       200.09
 1153.51        2958.50           1336          51.00       195.73
 1153.54        2958.75           1339          46.00       173.93
 1153.57        2959.00           1342          59.00       230.60
 1153.60        2959.25           1346          55.00       213.17
 1153.63        2959.50           1349          49.00       187.01
 1153.66        2959.75           1352          71.00       282.91
 1153.69        2960.00           1356          91.00       370.10
 1153.72        2960.25           1359         142.00       592.43
 1153.75        2960.50           1362         165.00       692.69
 1153.79        2960.75           1366         236.00      1002.21
 1153.82        2961.00           1369         270.00      1150.43
 1153.85        2961.25           1372         318.00      1359.69
 1153.88        2961.50           1376         406.00      1743.33
 1153.91        2961.75           1379         596.00      2571.69
 1153.94        2962.00           1382        1225.00      5314.27
 1153.97        2962.25           1386        2747.00     11952.41
 1154.00        2962.50           1389        4256.00     18536.46
 1154.03        2962.75           1392        5946.00     25913.34
 1154.06        2963.00           1396        8007.00     34914.06
 1154.10        2963.25           1399        9513.00     41494.08
 1154.13        2963.50           1402       11252.00     49095.36
 1154.16        2963.75           1406       13357.00     58301.10
 1154.19        2964.00           1409       15151.00     66150.77
 1154.22        2964.25           1412       17034.00     74393.85
 1154.25        2964.50           1416       19149.00     83657.40
 1154.28        2964.75           1419       20906.00     91356.84
 1154.31        2965.00           1422       22687.00     99165.11
 1154.34        2965.25           1426       24782.00    108354.70
 1154.37        2965.50           1429       26465.00    115740.80
 1154.41        2965.75           1432       27967.00    122335.30
 1154.44        2966.00           1436       29921.00    130918.20
 1154.47        2966.25           1439       31626.00    138411.00
 1154.50        2966.50           1442       32983.00    144376.80
 1154.53        2966.75           1446       34873.00    152689.60
 1154.56        2967.00           1449       35360.00    154832.20
 1154.59        2967.25           1452       35597.00    155875.00
 1154.62        2967.50           1456       35613.00    155945.40
 1154.65        2967.75           1459       35497.00    155435.00
 1154.69        2968.00           1462       35402.00    155017.00
 1154.72        2968.25           1466       34645.00    151686.50
 1154.75        2968.50           1469       33311.00    145819.10
 1154.78        2968.75           1472       31701.00    138740.60
 1154.81        2969.00           1476       29678.00    129850.60
 1154.84        2969.25           1479       28163.00    123196.00
 1154.87        2969.50           1482       26403.00    115468.60
 1154.90        2969.75           1486       24382.00    106599.70
 1154.93        2970.00           1489       22622.00     98880.07
 1154.97        2970.25           1492       21239.00     92816.51
 1155.00        2970.50           1496       18741.00     81869.98
 1155.03        2970.75           1499       17124.00     74787.93
 1155.06        2971.00           1502       15541.00     67857.71
 1155.09        2971.25           1506       13297.00     58038.64
 1155.12        2971.50           1509       11559.00     50437.64
 1155.15        2971.75           1513        9487.00     41380.46
 1155.18        2972.00           1516        7823.00     34110.31
 1155.21        2972.25           1519        6245.00     27218.82
 1155.25        2972.50           1523        4141.00     18034.60
 1155.28        2972.75           1526        2564.00     11154.12
 1155.31        2973.00           1529        1209.00      5244.50
 1155.34        2973.25           1533         499.00      2148.79
 1155.37        2973.50           1536         339.00      1451.24
 1155.40        2973.75           1539         302.00      1289.94
 1155.43        2974.00           1543         239.00      1015.29
 1155.46        2974.25           1546         182.00       766.80
 1155.49        2974.50           1549         138.00       574.99
 1155.52        2974.75           1553          92.00       374.46
 1155.56        2975.00           1556          76.00       304.71
 1155.59        2975.25           1559          58.00       226.24
 1155.62        2975.50           1563          54.00       208.81
 1155.65        2975.75           1566          51.00       195.73
 1155.68        2976.00           1569          49.00       187.01
 1155.71        2976.25           1573          45.00       169.57
 1155.74        2976.50           1576          51.00       195.73
 1155.77        2976.75           1579          40.00       147.78
 1155.80        2977.00           1583          40.00       147.78
 1155.83        2977.25           1586          48.00       182.65
 1155.86        2977.50           1590          44.00       165.21
 1155.89        2977.75           1593          46.00       173.93
 1155.92        2978.00           1596          49.00       187.01
 1155.96        2978.25           1600          44.00       165.21
 1155.99        2978.50           1603          47.00       178.29
 1156.02        2978.75           1606          46.00       173.93
 1156.05        2979.00           1610          47.00       178.29
 1156.08        2979.25           1613          45.00       169.57
 1156.11        2979.50           1616          43.00       160.86
 1156.14        2979.75           1620          47.00       178.29
 1156.17        2980.00           1623          47.00       178.29
 1156.20        2980.25           1626          53.00       204.45
 1156.23        2980.50           1630          48.00       182.65
 1156.26        2980.75           1633          44.00       165.21
 1156.29        2981.00           1637          46.00       173.93
 1156.32        2981.25           1640          49.00       187.01
 1156.36        2981.50           1643          51.00       195.73
 1156.39        2981.75           1647          42.00       156.50
 1156.42        2982.00           1650          46.00       173.93
 1156.45        2982.25           1653          41.00       152.14
 1156.48        2982.50           1657          39.00       143.42
 1156.51        2982.75           1660          48.00       182.65
 1156.54        2983.00           1663          48.00       182.65
 1156.57        2983.25           1667          45.00       169.57
 1156.60        2983.50           1670          41.00       152.14
 1156.63        2983.75           1673          43.00       160.86
 1156.66        2984.00           1677          41.00       152.14
HS scan finished at 19:16:53
end
