************************************************************
  HS Scan of (1) Internal mercury lamp
************************************************************
Integration time is 0.2294 seconds per sample
dh110318Manchester 53.47 2.23 2.804185pr1000
************************************************************
Dead Time -------------------------  3E-08 
Number of Cycles Used -------------  4 
Starting Wavelength (Angstroms) ---  2950 
Final Wavelength (Angstoms) -------  2984 
Wavelength Increment (Angstroms) --  .25 
Filter Wheel #1 Position ---------- (1) Ground quartz diffuser (ND=2.32)
Filter Wheel #2 Position ---------- (1) Neutral Density 0.494



************************************************************
HS scan start time = 03:36:58
Dark Count =  7.9 


Time (GMT)  Wavelength (Ang)  Step Number  Raw Counts  Counts/Second

  217.33        2950.00           1222          57.00       214.04
  217.40        2950.25           1226          66.00       253.27
  217.43        2950.50           1229          63.00       240.19
  217.46        2950.75           1232          57.00       214.04
  217.49        2951.00           1236          58.00       218.40
  217.52        2951.25           1239          55.00       205.32
  217.55        2951.50           1242          56.00       209.68
  217.58        2951.75           1246          55.00       205.32
  217.61        2952.00           1249          58.00       218.40
  217.64        2952.25           1252          62.00       235.83
  217.67        2952.50           1256          63.00       240.19
  217.71        2952.75           1259          56.00       209.68
  217.74        2953.00           1262          62.00       235.83
  217.77        2953.25           1266          60.00       227.12
  217.80        2953.50           1269          68.00       261.99
  217.83        2953.75           1272          53.00       196.60
  217.86        2954.00           1276          61.00       231.48
  217.89        2954.25           1279          58.00       218.40
  217.92        2954.50           1282          58.00       218.40
  217.95        2954.75           1286          56.00       209.68
  217.98        2955.00           1289          52.00       192.24
  218.01        2955.25           1292          59.00       222.76
  218.04        2955.50           1296          55.00       205.32
  218.07        2955.75           1299          56.00       209.68
  218.10        2956.00           1302          64.00       244.55
  218.13        2956.25           1306          60.00       227.12
  218.16        2956.50           1309          54.00       200.96
  218.19        2956.75           1312          61.00       231.48
  218.23        2957.00           1316          53.00       196.60
  218.26        2957.25           1319          60.00       227.12
  218.29        2957.50           1322          55.00       205.32
  218.32        2957.75           1326          55.00       205.32
  218.35        2958.00           1329          66.00       253.27
  218.38        2958.25           1332          52.00       192.24
  218.41        2958.50           1336          70.00       270.71
  218.44        2958.75           1339          52.00       192.24
  218.47        2959.00           1342          54.00       200.96
  218.50        2959.25           1346          56.00       209.68
  218.53        2959.50           1349          64.00       244.55
  218.56        2959.75           1352          73.00       283.79
  218.59        2960.00           1356          96.00       384.05
  218.63        2960.25           1359         135.00       554.06
  218.66        2960.50           1362         149.00       615.09
  218.69        2960.75           1366         217.00       911.53
  218.72        2961.00           1369         256.00      1081.55
  218.75        2961.25           1372         286.00      1212.34
  218.78        2961.50           1376         329.00      1399.80
  218.81        2961.75           1379         408.00      1744.21
  218.84        2962.00           1382         703.00      3030.35
  218.87        2962.25           1386        2095.00      9100.57
  218.91        2962.50           1389        3469.00     15094.46
  218.94        2962.75           1392        4763.00     20741.32
  218.97        2963.00           1396        6698.00     29189.02
  219.00        2963.25           1399        8086.00     35251.30
  219.03        2963.50           1402        9387.00     40935.60
  219.06        2963.75           1406       11541.00     50351.07
  219.09        2964.00           1409       12950.00     56512.91
  219.12        2964.25           1412       14550.00     63512.80
  219.15        2964.50           1416       16629.00     72612.66
  219.18        2964.75           1419       18130.00     79185.71
  219.22        2965.00           1422       19680.00     85976.06
  219.25        2965.25           1426       21721.00     94921.62
  219.28        2965.50           1429       23192.00    101371.90
  219.31        2965.75           1432       24703.00    108000.20
  219.34        2966.00           1436       26521.00    115978.70
  219.37        2966.25           1439       27916.00    122103.40
  219.40        2966.50           1442       29235.00    127896.50
  219.43        2966.75           1446       31055.00    135893.30
  219.46        2967.00           1449       31853.00    139400.90
  219.50        2967.25           1452       32193.00    140895.50
  219.53        2967.50           1456       32318.00    141445.10
  219.56        2967.75           1459       32239.00    141097.80
  219.59        2968.00           1462       32326.00    141480.20
  219.62        2968.25           1466       31808.00    139203.10
  219.65        2968.50           1469       30803.00    134785.90
  219.68        2968.75           1472       29512.00    129113.40
  219.71        2969.00           1476       27306.00    119424.90
  219.74        2969.25           1479       25997.00    113678.70
  219.77        2969.50           1482       24771.00    108298.60
  219.81        2969.75           1486       22745.00     99411.56
  219.84        2970.00           1489       21112.00     92251.91
  219.87        2970.25           1492       19845.00     86699.06
  219.90        2970.50           1496       17803.00     77753.52
  219.93        2970.75           1499       16338.00     71338.65
  219.96        2971.00           1502       14870.00     64913.13
  219.99        2971.25           1506       12769.00     55721.23
  220.02        2971.50           1509       11189.00     48812.06
  220.06        2971.75           1513        9303.00     40568.52
  220.09        2972.00           1516        7807.00     34032.55
  220.12        2972.25           1519        6409.00     27927.05
  220.15        2972.50           1523        4443.00     19344.71
  220.18        2972.75           1526        3054.00     13283.85
  220.21        2973.00           1529        1730.00      7508.67
  220.24        2973.25           1533         554.00      2380.73
  220.27        2973.50           1536         336.00      1430.31
  220.31        2973.75           1539         279.00      1181.82
  220.34        2974.00           1543         229.00       963.85
  220.37        2974.25           1546         159.00       658.69
  220.40        2974.50           1549         127.00       519.19
  220.43        2974.75           1553          94.00       375.33
  220.46        2975.00           1556          73.00       283.79
  220.49        2975.25           1559          66.00       253.27
  220.52        2975.50           1563          63.00       240.19
  220.55        2975.75           1566          68.00       261.99
  220.58        2976.00           1569          55.00       205.32
  220.61        2976.25           1573          56.00       209.68
  220.65        2976.50           1576          54.00       200.96
  220.68        2976.75           1579          60.00       227.12
  220.71        2977.00           1583          53.00       196.60
  220.74        2977.25           1586          54.00       200.96
  220.77        2977.50           1590          61.00       231.48
  220.80        2977.75           1593          63.00       240.19
  220.83        2978.00           1596          57.00       214.04
  220.86        2978.25           1600          58.00       218.40
  220.89        2978.50           1603          52.00       192.24
  220.92        2978.75           1606          52.00       192.24
  220.95        2979.00           1610          53.00       196.60
  220.98        2979.25           1613          57.00       214.04
  221.02        2979.50           1616          54.00       200.96
  221.05        2979.75           1620          54.00       200.96
  221.08        2980.00           1623          52.00       192.24
  221.11        2980.25           1626          54.00       200.96
  221.14        2980.50           1630          47.00       170.45
  221.17        2980.75           1633          53.00       196.60
  221.20        2981.00           1637          52.00       192.24
  221.23        2981.25           1640          59.00       222.76
  221.26        2981.50           1643          50.00       183.52
  221.29        2981.75           1647          48.00       174.80
  221.32        2982.00           1650          52.00       192.24
  221.35        2982.25           1653          52.00       192.24
  221.38        2982.50           1657          59.00       222.76
  221.41        2982.75           1660          52.00       192.24
  221.44        2983.00           1663          53.00       196.60
  221.48        2983.25           1667          49.00       179.16
  221.51        2983.50           1670          52.00       192.24
  221.54        2983.75           1673          50.00       183.52
  221.57        2984.00           1677          54.00       200.96
HS scan finished at 03:41:47
end
************************************************************
  HS Scan of (1) Internal mercury lamp
************************************************************
Integration time is 0.2294 seconds per sample
dh110318Manchester 53.47 2.23 2.804185pr1000
************************************************************
Dead Time -------------------------  3E-08 
Number of Cycles Used -------------  4 
Starting Wavelength (Angstroms) ---  2950 
Final Wavelength (Angstoms) -------  2984 
Wavelength Increment (Angstroms) --  .25 
Filter Wheel #1 Position ---------- (1) Ground quartz diffuser (ND=2.32)
Filter Wheel #2 Position ---------- (1) Neutral Density 0.494



************************************************************
HS scan start time = 19:11:59
Dark Count =  5.6 


Time (GMT)  Wavelength (Ang)  Step Number  Raw Counts  Counts/Second

 1152.35        2950.00           1222          57.00       224.06
 1152.42        2950.25           1226          63.00       250.22
 1152.45        2950.50           1229          67.00       267.66
 1152.48        2950.75           1232          68.00       272.02
 1152.51        2951.00           1236          61.00       241.50
 1152.54        2951.25           1239          54.00       210.99
 1152.57        2951.50           1242          53.00       206.63
 1152.60        2951.75           1246          58.00       228.42
 1152.63        2952.00           1249          64.00       254.58
 1152.66        2952.25           1252          70.00       280.73
 1152.70        2952.50           1256          56.00       219.71
 1152.73        2952.75           1259          57.00       224.06
 1152.76        2953.00           1262          62.00       245.86
 1152.79        2953.25           1266          63.00       250.22
 1152.82        2953.50           1269          50.00       193.55
 1152.85        2953.75           1272          60.00       237.14
 1152.88        2954.00           1276          60.00       237.14
 1152.91        2954.25           1279          63.00       250.22
 1152.94        2954.50           1282          56.00       219.71
 1152.97        2954.75           1286          54.00       210.99
 1153.00        2955.00           1289          58.00       228.42
 1153.03        2955.25           1292          66.00       263.30
 1153.07        2955.50           1296          54.00       210.99
 1153.10        2955.75           1299          64.00       254.58
 1153.13        2956.00           1302          62.00       245.86
 1153.16        2956.25           1306          61.00       241.50
 1153.19        2956.50           1309          60.00       237.14
 1153.22        2956.75           1312          58.00       228.42
 1153.25        2957.00           1316          58.00       228.42
 1153.28        2957.25           1319          63.00       250.22
 1153.31        2957.50           1322          58.00       228.42
 1153.34        2957.75           1326          61.00       241.50
 1153.37        2958.00           1329          55.00       215.35
 1153.40        2958.25           1332          64.00       254.58
 1153.43        2958.50           1336          62.00       245.86
 1153.47        2958.75           1339          54.00       210.99
 1153.50        2959.00           1342          51.00       197.91
 1153.53        2959.25           1346          59.00       232.78
 1153.56        2959.50           1349          68.00       272.02
 1153.59        2959.75           1352          88.00       359.20
 1153.62        2960.00           1356         104.00       428.95
 1153.65        2960.25           1359         127.00       529.22
 1153.68        2960.50           1362         157.00       660.00
 1153.71        2960.75           1366         217.00       921.56
 1153.74        2961.00           1369         252.00      1074.14
 1153.77        2961.25           1372         288.00      1231.08
 1153.80        2961.50           1376         387.00      1662.68
 1153.84        2961.75           1379         595.00      2569.51
 1153.87        2962.00           1382        1367.00      5935.67
 1153.90        2962.25           1386        3126.00     13608.00
 1153.93        2962.50           1389        4487.00     19546.77
 1153.96        2962.75           1392        5919.00     25797.64
 1153.99        2963.00           1396        7865.00     34295.95
 1154.02        2963.25           1399        9265.00     40412.52
 1154.05        2963.50           1402       10842.00     47305.10
 1154.08        2963.75           1406       13000.00     56741.67
 1154.11        2964.00           1409       14439.00     63037.15
 1154.15        2964.25           1412       15913.00     69488.22
 1154.18        2964.50           1416       18144.00     79257.11
 1154.21        2964.75           1419       19537.00     85359.55
 1154.24        2965.00           1422       21055.00     92012.15
 1154.27        2965.25           1426       23090.00    100934.70
 1154.30        2965.50           1429       24439.00    106852.00
 1154.33        2965.75           1432       25796.00    112806.60
 1154.36        2966.00           1436       27867.00    121898.30
 1154.39        2966.25           1439       29287.00    128135.00
 1154.42        2966.50           1442       30505.00    133486.40
 1154.46        2966.75           1446       31962.00    139890.10
 1154.49        2967.00           1449       32116.00    140567.10
 1154.52        2967.25           1452       32078.00    140400.10
 1154.55        2967.50           1456       32115.00    140562.70
 1154.58        2967.75           1459       32199.00    140932.00
 1154.61        2968.00           1462       31910.00    139661.50
 1154.64        2968.25           1466       30684.00    134273.00
 1154.67        2968.50           1469       29370.00    128499.60
 1154.70        2968.75           1472       27999.00    122478.00
 1154.73        2969.00           1476       26160.00    114404.20
 1154.76        2969.25           1479       24674.00    107883.10
 1154.80        2969.50           1482       23210.00    101460.90
 1154.83        2969.75           1486       21130.00     92340.90
 1154.86        2970.00           1489       19827.00     86630.27
 1154.89        2970.25           1492       18202.00     79511.15
 1154.92        2970.50           1496       16182.00     70665.78
 1154.95        2970.75           1499       14640.00     63916.70
 1154.98        2971.00           1502       13051.00     56964.75
 1155.01        2971.25           1506       11144.00     48625.38
 1155.04        2971.50           1509        9704.00     42330.97
 1155.08        2971.75           1513        8052.00     35112.82
 1155.11        2972.00           1516        6456.00     28142.32
 1155.14        2972.25           1519        5096.00     22204.85
 1155.17        2972.50           1523        3155.00     13734.52
 1155.20        2972.75           1526        1717.00      7462.00
 1155.23        2973.00           1529         790.00      3419.71
 1155.26        2973.25           1533         376.00      1614.73
 1155.29        2973.50           1536         306.00      1309.55
 1155.32        2973.75           1539         274.00      1170.05
 1155.35        2974.00           1543         211.00       895.40
 1155.38        2974.25           1546         166.00       699.23
 1155.41        2974.50           1549         128.00       533.57
 1155.45        2974.75           1553          96.00       394.08
 1155.48        2975.00           1556          73.00       293.81
 1155.51        2975.25           1559          58.00       228.42
 1155.54        2975.50           1563          57.00       224.06
 1155.57        2975.75           1566          60.00       237.14
 1155.60        2976.00           1569          60.00       237.14
 1155.63        2976.25           1573          55.00       215.35
 1155.66        2976.50           1576          51.00       197.91
 1155.69        2976.75           1579          56.00       219.71
 1155.72        2977.00           1583          58.00       228.42
 1155.75        2977.25           1586          61.00       241.50
 1155.78        2977.50           1590          59.00       232.78
 1155.82        2977.75           1593          58.00       228.42
 1155.85        2978.00           1596          54.00       210.99
 1155.88        2978.25           1600          53.00       206.63
 1155.91        2978.50           1603          60.00       237.14
 1155.94        2978.75           1606          52.00       202.27
 1155.97        2979.00           1610          54.00       210.99
 1156.00        2979.25           1613          65.00       258.94
 1156.03        2979.50           1616          56.00       219.71
 1156.06        2979.75           1620          58.00       228.42
 1156.09        2980.00           1623          50.00       193.55
 1156.12        2980.25           1626          64.00       254.58
 1156.15        2980.50           1630          53.00       206.63
 1156.18        2980.75           1633          54.00       210.99
 1156.21        2981.00           1637          63.00       250.22
 1156.24        2981.25           1640          59.00       232.78
 1156.28        2981.50           1643          47.00       180.47
 1156.31        2981.75           1647          44.00       167.39
 1156.34        2982.00           1650          55.00       215.35
 1156.37        2982.25           1653          54.00       210.99
 1156.40        2982.50           1657          57.00       224.06
 1156.43        2982.75           1660          49.00       189.19
 1156.46        2983.00           1663          53.00       206.63
 1156.49        2983.25           1667          48.00       184.83
 1156.52        2983.50           1670          60.00       237.14
 1156.55        2983.75           1673          59.00       232.78
 1156.58        2984.00           1677          45.00       171.75
HS scan finished at 19:16:48
end
