************************************************************
  HS Scan of (1) Internal mercury lamp
************************************************************
Integration time is 0.2294 seconds per sample
dh140318Manchester 53.47 2.23 2.750537pr1000
************************************************************
Dead Time -------------------------  3E-08 
Number of Cycles Used -------------  4 
Starting Wavelength (Angstroms) ---  2950 
Final Wavelength (Angstoms) -------  2984 
Wavelength Increment (Angstroms) --  .25 
Filter Wheel #1 Position ---------- (1) Ground quartz diffuser (ND=2.32)
Filter Wheel #2 Position ---------- (1) Neutral Density 0.494



************************************************************
HS scan start time = 03:26:34
Dark Count =  3.3 


Time (GMT)  Wavelength (Ang)  Step Number  Raw Counts  Counts/Second

  206.93        2950.00           1222          58.00       238.45
  207.00        2950.25           1226          54.00       221.01
  207.03        2950.50           1229          59.00       242.81
  207.06        2950.75           1232          61.00       251.53
  207.09        2951.00           1236          75.00       312.56
  207.12        2951.25           1239          54.00       221.01
  207.15        2951.50           1242          58.00       238.45
  207.18        2951.75           1246          57.00       234.09
  207.21        2952.00           1249          63.00       260.25
  207.24        2952.25           1252          54.00       221.01
  207.27        2952.50           1256          60.00       247.17
  207.30        2952.75           1259          58.00       238.45
  207.33        2953.00           1262          54.00       221.01
  207.37        2953.25           1266          58.00       238.45
  207.40        2953.50           1269          59.00       242.81
  207.43        2953.75           1272          52.00       212.29
  207.46        2954.00           1276          62.00       255.89
  207.49        2954.25           1279          54.00       221.01
  207.52        2954.50           1282          58.00       238.45
  207.55        2954.75           1286          59.00       242.81
  207.58        2955.00           1289          59.00       242.81
  207.61        2955.25           1292          67.00       277.68
  207.64        2955.50           1296          57.00       234.09
  207.67        2955.75           1299          60.00       247.17
  207.71        2956.00           1302          56.00       229.73
  207.74        2956.25           1306          52.00       212.29
  207.77        2956.50           1309          57.00       234.09
  207.80        2956.75           1312          54.00       221.01
  207.83        2957.00           1316          65.00       268.96
  207.86        2957.25           1319          67.00       277.68
  207.89        2957.50           1322          72.00       299.48
  207.92        2957.75           1326          57.00       234.09
  207.95        2958.00           1329          56.00       229.73
  207.98        2958.25           1332          59.00       242.81
  208.01        2958.50           1336          60.00       247.17
  208.04        2958.75           1339          61.00       251.53
  208.08        2959.00           1342          60.00       247.17
  208.11        2959.25           1346          63.00       260.25
  208.14        2959.50           1349          68.00       282.04
  208.17        2959.75           1352          88.00       369.23
  208.20        2960.00           1356         121.00       513.09
  208.23        2960.25           1359         157.00       670.02
  208.26        2960.50           1362         188.00       805.16
  208.29        2960.75           1366         244.00      1049.29
  208.32        2961.00           1369         272.00      1171.36
  208.35        2961.25           1372         323.00      1393.69
  208.38        2961.50           1376         404.00      1746.82
  208.41        2961.75           1379         621.00      2692.89
  208.44        2962.00           1382        1345.00      5849.76
  208.48        2962.25           1386        3028.00     13190.49
  208.51        2962.50           1389        4367.00     19033.10
  208.54        2962.75           1392        5818.00     25366.73
  208.57        2963.00           1396        7621.00     33240.19
  208.60        2963.25           1399        9104.00     39719.06
  208.63        2963.50           1402       10807.00     47162.15
  208.66        2963.75           1406       12872.00     56191.86
  208.69        2964.00           1409       14531.00     63449.78
  208.72        2964.25           1412       15953.00     69673.38
  208.75        2964.50           1416       17835.00     77913.81
  208.79        2964.75           1419       19262.00     84164.74
  208.82        2965.00           1422       20963.00     91618.94
  208.85        2965.25           1426       22853.00     99905.35
  208.88        2965.50           1429       24310.00    106296.10
  208.91        2965.75           1432       25962.00    113545.20
  208.94        2966.00           1436       27885.00    121987.50
  208.97        2966.25           1439       29355.00    128443.90
  209.00        2966.50           1442       30845.00    134990.60
  209.03        2966.75           1446       31989.00    140018.90
  209.06        2967.00           1449       32062.00    140339.80
  209.10        2967.25           1452       32139.00    140678.40
  209.13        2967.50           1456       32052.00    140295.90
  209.16        2967.75           1459       32092.00    140471.70
  209.19        2968.00           1462       31872.00    139504.60
  209.22        2968.25           1466       30776.00    134687.40
  209.25        2968.50           1469       29703.00    129972.70
  209.28        2968.75           1472       28212.00    123423.50
  209.31        2969.00           1476       26294.00    115002.50
  209.34        2969.25           1479       24641.00    107748.40
  209.37        2969.50           1482       23172.00    101304.40
  209.40        2969.75           1486       20969.00     91645.25
  209.44        2970.00           1489       19722.00     86180.24
  209.47        2970.25           1492       18162.00     79346.02
  209.50        2970.50           1496       16278.00     71096.12
  209.53        2970.75           1499       14882.00     64985.77
  209.56        2971.00           1502       13478.00     58842.67
  209.59        2971.25           1506       11598.00     50620.41
  209.62        2971.50           1509       10173.00     44390.82
  209.65        2971.75           1513        8299.00     36201.90
  209.68        2972.00           1516        6778.00     29558.46
  209.72        2972.25           1519        5424.00     23646.68
  209.75        2972.50           1523        3377.00     14713.12
  209.78        2972.75           1526        1885.00      8204.72
  209.81        2973.00           1529         814.00      3534.38
  209.84        2973.25           1533         417.00      1803.50
  209.87        2973.50           1536         305.00      1315.22
  209.90        2973.75           1539         256.00      1101.61
  209.93        2974.00           1543         227.00       975.18
  209.96        2974.25           1546         158.00       674.38
  209.99        2974.50           1549         121.00       513.09
  210.02        2974.75           1553          94.00       395.38
  210.05        2975.00           1556          72.00       299.48
  210.08        2975.25           1559          64.00       264.61
  210.11        2975.50           1563          61.00       251.53
  210.15        2975.75           1566          61.00       251.53
  210.18        2976.00           1569          63.00       260.25
  210.21        2976.25           1573          63.00       260.25
  210.24        2976.50           1576          62.00       255.89
  210.27        2976.75           1579          53.00       216.65
  210.30        2977.00           1583          57.00       234.09
  210.33        2977.25           1586          53.00       216.65
  210.36        2977.50           1590          56.00       229.73
  210.39        2977.75           1593          54.00       221.01
  210.42        2978.00           1596          59.00       242.81
  210.45        2978.25           1600          61.00       251.53
  210.48        2978.50           1603          55.00       225.37
  210.51        2978.75           1606          51.00       207.94
  210.54        2979.00           1610          52.00       212.29
  210.58        2979.25           1613          54.00       221.01
  210.61        2979.50           1616          58.00       238.45
  210.64        2979.75           1620          55.00       225.37
  210.67        2980.00           1623          56.00       229.73
  210.70        2980.25           1626          59.00       242.81
  210.73        2980.50           1630          60.00       247.17
  210.76        2980.75           1633          61.00       251.53
  210.79        2981.00           1637          54.00       221.01
  210.82        2981.25           1640          55.00       225.37
  210.85        2981.50           1643          51.00       207.94
  210.88        2981.75           1647          50.00       203.58
  210.91        2982.00           1650          50.00       203.58
  210.95        2982.25           1653          60.00       247.17
  210.98        2982.50           1657          53.00       216.65
  211.01        2982.75           1660          54.00       221.01
  211.04        2983.00           1663          56.00       229.73
  211.07        2983.25           1667          54.00       221.01
  211.10        2983.50           1670          52.00       212.29
  211.13        2983.75           1673          63.00       260.25
  211.16        2984.00           1677          50.00       203.58
HS scan finished at 03:31:23
end
************************************************************
  HS Scan of (1) Internal mercury lamp
************************************************************
Integration time is 0.2294 seconds per sample
dh140318Manchester 53.47 2.23 2.804185pr1000
************************************************************
Dead Time -------------------------  3E-08 
Number of Cycles Used -------------  4 
Starting Wavelength (Angstroms) ---  2950 
Final Wavelength (Angstoms) -------  2984 
Wavelength Increment (Angstroms) --  .25 
Filter Wheel #1 Position ---------- (1) Ground quartz diffuser (ND=2.32)
Filter Wheel #2 Position ---------- (1) Neutral Density 0.494



************************************************************
HS scan start time = 19:12:02
Dark Count =  7 


Time (GMT)  Wavelength (Ang)  Step Number  Raw Counts  Counts/Second

 1152.40        2950.00           1222          67.00       261.55
 1152.47        2950.25           1226          66.00       257.19
 1152.50        2950.50           1229          67.00       261.55
 1152.53        2950.75           1232          62.00       239.76
 1152.56        2951.00           1236          66.00       257.19
 1152.59        2951.25           1239          61.00       235.40
 1152.62        2951.50           1242          71.00       278.99
 1152.65        2951.75           1246          65.00       252.84
 1152.68        2952.00           1249          68.00       265.91
 1152.71        2952.25           1252          64.00       248.48
 1152.74        2952.50           1256          59.00       226.68
 1152.77        2952.75           1259          67.00       261.55
 1152.81        2953.00           1262          68.00       265.91
 1152.84        2953.25           1266          69.00       270.27
 1152.87        2953.50           1269          66.00       257.19
 1152.90        2953.75           1272          72.00       283.35
 1152.93        2954.00           1276          64.00       248.48
 1152.96        2954.25           1279          59.00       226.68
 1152.99        2954.50           1282          66.00       257.19
 1153.02        2954.75           1286          59.00       226.68
 1153.05        2955.00           1289          77.00       305.15
 1153.08        2955.25           1292          65.00       252.84
 1153.11        2955.50           1296          67.00       261.55
 1153.14        2955.75           1299          66.00       257.19
 1153.17        2956.00           1302          70.00       274.63
 1153.21        2956.25           1306          65.00       252.84
 1153.24        2956.50           1309          57.00       217.96
 1153.27        2956.75           1312          60.00       231.04
 1153.30        2957.00           1316          65.00       252.84
 1153.33        2957.25           1319          76.00       300.79
 1153.36        2957.50           1322          70.00       274.63
 1153.39        2957.75           1326          69.00       270.27
 1153.42        2958.00           1329          63.00       244.12
 1153.45        2958.25           1332          68.00       265.91
 1153.48        2958.50           1336          61.00       235.40
 1153.51        2958.75           1339          65.00       252.84
 1153.54        2959.00           1342          60.00       231.04
 1153.57        2959.25           1346          68.00       265.91
 1153.61        2959.50           1349          65.00       252.84
 1153.64        2959.75           1352          71.00       278.99
 1153.67        2960.00           1356          94.00       379.25
 1153.70        2960.25           1359         113.00       462.08
 1153.73        2960.50           1362         153.00       636.46
 1153.76        2960.75           1366         201.00       845.71
 1153.79        2961.00           1369         263.00      1115.99
 1153.82        2961.25           1372         347.00      1482.19
 1153.85        2961.50           1376         462.00      1983.55
 1153.88        2961.75           1379         712.00      3073.52
 1153.92        2962.00           1382        1614.00      7006.70
 1153.95        2962.25           1386        4021.00     17507.01
 1153.98        2962.50           1389        6105.00     26603.61
 1154.01        2962.75           1392        8516.00     37133.76
 1154.04        2963.00           1396       11689.00     51002.13
 1154.07        2963.25           1399       14350.00     62641.59
 1154.10        2963.50           1402       17003.00     74254.15
 1154.13        2963.75           1406       19934.00     87093.00
 1154.17        2964.00           1409       22592.00     98744.57
 1154.20        2964.25           1412       25250.00    110404.30
 1154.23        2964.50           1416       28531.00    124808.20
 1154.26        2964.75           1419       31034.00    135805.00
 1154.29        2965.00           1422       33433.00    146351.70
 1154.32        2965.25           1426       36795.00    161143.30
 1154.35        2965.50           1429       39239.00    171904.30
 1154.38        2965.75           1432       41613.00    182363.80
 1154.41        2966.00           1436       44975.00    197187.50
 1154.44        2966.25           1439       47424.00    207993.90
 1154.48        2966.50           1442       49423.00    216819.90
 1154.51        2966.75           1446       51756.00    227126.50
 1154.54        2967.00           1449       52573.00    230737.30
 1154.57        2967.25           1452       52693.00    231267.70
 1154.60        2967.50           1456       52636.00    231015.80
 1154.63        2967.75           1459       52515.00    230480.90
 1154.66        2968.00           1462       52405.00    229994.70
 1154.69        2968.25           1466       50909.00    223383.90
 1154.72        2968.50           1469       49027.00    215071.10
 1154.76        2968.75           1472       46604.00    204374.80
 1154.79        2969.00           1476       43219.00    189443.30
 1154.82        2969.25           1479       40924.00    179327.50
 1154.85        2969.50           1482       38798.00    169962.10
 1154.88        2969.75           1486       35371.00    154876.60
 1154.91        2970.00           1489       32863.00    143845.20
 1154.94        2970.25           1492       30776.00    134671.20
 1154.97        2970.50           1496       27699.00    121154.50
 1155.00        2970.75           1499       25336.00    110781.70
 1155.04        2971.00           1502       22949.00    100310.10
 1155.07        2971.25           1506       19725.00     86177.18
 1155.10        2971.50           1509       17068.00     74538.78
 1155.13        2971.75           1513       13592.00     59325.20
 1155.16        2972.00           1516       11353.00     49533.02
 1155.19        2972.25           1519        8856.00     38619.26
 1155.22        2972.50           1523        5813.00     25328.75
 1155.25        2972.75           1526        3583.00     15595.79
 1155.28        2973.00           1529        1754.00      7617.26
 1155.31        2973.25           1533         922.00      3989.14
 1155.34        2973.50           1536         705.00      3043.00
 1155.38        2973.75           1539         574.00      2471.85
 1155.41        2974.00           1543         467.00      2005.35
 1155.44        2974.25           1546         365.00      1560.67
 1155.47        2974.50           1549         305.00      1299.09
 1155.50        2974.75           1553         203.00       854.42
 1155.53        2975.00           1556         161.00       671.33
 1155.56        2975.25           1559         115.00       470.80
 1155.59        2975.50           1563          76.00       300.79
 1155.62        2975.75           1566          67.00       261.55
 1155.65        2976.00           1569          67.00       261.55
 1155.68        2976.25           1573          64.00       248.48
 1155.72        2976.50           1576          63.00       244.12
 1155.75        2976.75           1579          65.00       252.84
 1155.78        2977.00           1583          63.00       244.12
 1155.81        2977.25           1586          67.00       261.55
 1155.84        2977.50           1590          70.00       274.63
 1155.87        2977.75           1593          59.00       226.68
 1155.90        2978.00           1596          71.00       278.99
 1155.93        2978.25           1600          58.00       222.32
 1155.96        2978.50           1603          60.00       231.04
 1155.99        2978.75           1606          65.00       252.84
 1156.02        2979.00           1610          64.00       248.48
 1156.05        2979.25           1613          56.00       213.60
 1156.08        2979.50           1616          62.00       239.76
 1156.11        2979.75           1620          57.00       217.96
 1156.14        2980.00           1623          55.00       209.24
 1156.18        2980.25           1626          58.00       222.32
 1156.21        2980.50           1630          65.00       252.84
 1156.24        2980.75           1633          59.00       226.68
 1156.27        2981.00           1637          67.00       261.55
 1156.30        2981.25           1640          59.00       226.68
 1156.33        2981.50           1643          65.00       252.84
 1156.36        2981.75           1647          59.00       226.68
 1156.39        2982.00           1650          53.00       200.52
 1156.42        2982.25           1653          50.00       187.45
 1156.45        2982.50           1657          72.00       283.35
 1156.48        2982.75           1660          64.00       248.48
 1156.51        2983.00           1663          59.00       226.68
 1156.54        2983.25           1667          61.00       235.40
 1156.58        2983.50           1670          66.00       257.19
 1156.61        2983.75           1673          55.00       209.24
 1156.64        2984.00           1677          56.00       213.60
HS scan finished at 19:16:51
end
