************************************************************
  HS Scan of (1) Internal mercury lamp
************************************************************
Integration time is 0.2294 seconds per sample
dh170318Manchester 53.47 2.23 2.750537pr1000
************************************************************
Dead Time -------------------------  3E-08 
Number of Cycles Used -------------  4 
Starting Wavelength (Angstroms) ---  2950 
Final Wavelength (Angstoms) -------  2984 
Wavelength Increment (Angstroms) --  .25 
Filter Wheel #1 Position ---------- (1) Ground quartz diffuser (ND=2.32)
Filter Wheel #2 Position ---------- (1) Neutral Density 0.494



************************************************************
HS scan start time = 03:15:26
Dark Count =  5.5 


Time (GMT)  Wavelength (Ang)  Step Number  Raw Counts  Counts/Second

  195.80        2950.00           1222          60.00       237.58
  195.87        2950.25           1226          57.00       224.50
  195.90        2950.50           1229          57.00       224.50
  195.93        2950.75           1232          65.00       259.37
  195.96        2951.00           1236          57.00       224.50
  195.99        2951.25           1239          57.00       224.50
  196.02        2951.50           1242          51.00       198.34
  196.05        2951.75           1246          60.00       237.58
  196.08        2952.00           1249          57.00       224.50
  196.11        2952.25           1252          58.00       228.86
  196.14        2952.50           1256          55.00       215.78
  196.17        2952.75           1259          71.00       285.53
  196.20        2953.00           1262          60.00       237.58
  196.24        2953.25           1266          63.00       250.66
  196.27        2953.50           1269          56.00       220.14
  196.30        2953.75           1272          55.00       215.78
  196.33        2954.00           1276          58.00       228.86
  196.36        2954.25           1279          58.00       228.86
  196.39        2954.50           1282          50.00       193.99
  196.42        2954.75           1286          63.00       250.66
  196.45        2955.00           1289          63.00       250.66
  196.48        2955.25           1292          57.00       224.50
  196.51        2955.50           1296          67.00       268.09
  196.54        2955.75           1299          60.00       237.58
  196.57        2956.00           1302          54.00       211.42
  196.61        2956.25           1306          53.00       207.06
  196.64        2956.50           1309          55.00       215.78
  196.67        2956.75           1312          53.00       207.06
  196.70        2957.00           1316          64.00       255.02
  196.73        2957.25           1319          59.00       233.22
  196.76        2957.50           1322          60.00       237.58
  196.79        2957.75           1326          62.00       246.30
  196.82        2958.00           1329          63.00       250.66
  196.85        2958.25           1332          58.00       228.86
  196.88        2958.50           1336          58.00       228.86
  196.91        2958.75           1339          64.00       255.02
  196.94        2959.00           1342          61.00       241.94
  196.98        2959.25           1346          60.00       237.58
  197.01        2959.50           1349          65.00       259.37
  197.04        2959.75           1352          74.00       298.61
  197.07        2960.00           1356         103.00       425.03
  197.10        2960.25           1359         135.00       564.53
  197.13        2960.50           1362         165.00       695.31
  197.16        2960.75           1366         223.00       948.15
  197.19        2961.00           1369         261.00      1113.81
  197.22        2961.25           1372         299.00      1279.47
  197.25        2961.50           1376         345.00      1480.01
  197.28        2961.75           1379         431.00      1854.94
  197.32        2962.00           1382         818.00      3542.22
  197.35        2962.25           1386        2325.00     10114.23
  197.38        2962.50           1389        3669.00     15977.58
  197.41        2962.75           1392        4952.00     21576.74
  197.44        2963.00           1396        6921.00     30173.34
  197.47        2963.25           1399        8310.00     36240.34
  197.50        2963.50           1402        9756.00     42558.66
  197.53        2963.75           1406       11746.00     51257.92
  197.56        2964.00           1409       13288.00     58001.89
  197.60        2964.25           1412       14950.00     65273.73
  197.63        2964.50           1416       16939.00     73980.49
  197.66        2964.75           1419       18443.00     80567.21
  197.69        2965.00           1422       20056.00     87634.19
  197.72        2965.25           1426       22087.00     96536.81
  197.75        2965.50           1429       23496.00    102715.80
  197.78        2965.75           1432       25027.00    109432.40
  197.81        2966.00           1436       26839.00    117385.20
  197.84        2966.25           1439       28292.00    123765.10
  197.88        2966.50           1442       29529.00    129198.60
  197.91        2966.75           1446       31162.00    136374.20
  197.94        2967.00           1449       31769.00    139042.20
  197.97        2967.25           1452       32061.00    140325.80
  198.00        2967.50           1456       32228.00    141059.90
  198.03        2967.75           1459       32115.00    140563.20
  198.06        2968.00           1462       32045.00    140255.40
  198.09        2968.25           1466       31194.00    136514.80
  198.12        2968.50           1469       29828.00    130512.20
  198.15        2968.75           1472       28726.00    125671.30
  198.18        2969.00           1476       26705.00    116796.90
  198.22        2969.25           1479       25241.00    110371.40
  198.25        2969.50           1482       23768.00    103908.80
  198.28        2969.75           1486       21986.00     96093.98
  198.31        2970.00           1489       20438.00     89308.27
  198.34        2970.25           1492       19001.00     83011.63
  198.37        2970.50           1496       17041.00     74427.11
  198.40        2970.75           1499       15494.00     67654.61
  198.43        2971.00           1502       14022.00     61213.01
  198.46        2971.25           1506       12163.00     53081.41
  198.49        2971.50           1509       10652.00     46474.96
  198.53        2971.75           1513        8851.00     38603.97
  198.56        2972.00           1516        7369.00     32129.91
  198.59        2972.25           1519        5909.00     25754.42
  198.62        2972.50           1523        4002.00     17430.65
  198.65        2972.75           1526        2665.00     11597.32
  198.68        2973.00           1529        1357.00      5892.50
  198.71        2973.25           1533         500.00      2155.76
  198.74        2973.50           1536         328.00      1405.90
  198.77        2973.75           1539         251.00      1070.22
  198.80        2974.00           1543         220.00       935.07
  198.83        2974.25           1546         163.00       686.59
  198.87        2974.50           1549         128.00       534.01
  198.90        2974.75           1553          87.00       355.28
  198.93        2975.00           1556          77.00       311.69
  198.96        2975.25           1559          60.00       237.58
  198.99        2975.50           1563          62.00       246.30
  199.02        2975.75           1566          56.00       220.14
  199.05        2976.00           1569          65.00       259.37
  199.08        2976.25           1573          57.00       224.50
  199.11        2976.50           1576          51.00       198.34
  199.14        2976.75           1579          51.00       198.34
  199.17        2977.00           1583          59.00       233.22
  199.20        2977.25           1586          63.00       250.66
  199.23        2977.50           1590          47.00       180.91
  199.26        2977.75           1593          61.00       241.94
  199.30        2978.00           1596          69.00       276.81
  199.33        2978.25           1600          55.00       215.78
  199.36        2978.50           1603          52.00       202.70
  199.39        2978.75           1606          51.00       198.34
  199.42        2979.00           1610          56.00       220.14
  199.45        2979.25           1613          59.00       233.22
  199.48        2979.50           1616          54.00       211.42
  199.51        2979.75           1620          57.00       224.50
  199.54        2980.00           1623          49.00       189.63
  199.57        2980.25           1626          50.00       193.99
  199.60        2980.50           1630          53.00       207.06
  199.64        2980.75           1633          54.00       211.42
  199.67        2981.00           1637          51.00       198.34
  199.70        2981.25           1640          58.00       228.86
  199.73        2981.50           1643          48.00       185.27
  199.76        2981.75           1647          51.00       198.34
  199.79        2982.00           1650          53.00       207.06
  199.82        2982.25           1653          56.00       220.14
  199.85        2982.50           1657          49.00       189.63
  199.88        2982.75           1660          54.00       211.42
  199.91        2983.00           1663          51.00       198.34
  199.94        2983.25           1667          55.00       215.78
  199.97        2983.50           1670          57.00       224.50
  200.01        2983.75           1673          52.00       202.70
  200.04        2984.00           1677          52.00       202.70
HS scan finished at 03:20:15
end
************************************************************
  HS Scan of (1) Internal mercury lamp
************************************************************
Integration time is 0.2294 seconds per sample
dh170318Manchester 53.47 2.23 2.750537pr1000
************************************************************
Dead Time -------------------------  3E-08 
Number of Cycles Used -------------  4 
Starting Wavelength (Angstroms) ---  2950 
Final Wavelength (Angstoms) -------  2984 
Wavelength Increment (Angstroms) --  .25 
Filter Wheel #1 Position ---------- (1) Ground quartz diffuser (ND=2.32)
Filter Wheel #2 Position ---------- (1) Neutral Density 0.494



************************************************************
HS scan start time = 19:12:03
Dark Count =  6.8 


Time (GMT)  Wavelength (Ang)  Step Number  Raw Counts  Counts/Second

 1152.42        2950.00           1222          59.00       227.55
 1152.49        2950.25           1226          58.00       223.19
 1152.52        2950.50           1229          56.00       214.47
 1152.55        2950.75           1232          65.00       253.71
 1152.58        2951.00           1236          68.00       266.79
 1152.61        2951.25           1239          59.00       227.55
 1152.64        2951.50           1242          61.00       236.27
 1152.67        2951.75           1246          62.00       240.63
 1152.70        2952.00           1249          57.00       218.83
 1152.73        2952.25           1252          61.00       236.27
 1152.77        2952.50           1256          69.00       271.14
 1152.80        2952.75           1259          69.00       271.14
 1152.83        2953.00           1262          59.00       227.55
 1152.86        2953.25           1266          65.00       253.71
 1152.89        2953.50           1269          59.00       227.55
 1152.92        2953.75           1272          64.00       249.35
 1152.95        2954.00           1276          60.00       231.91
 1152.98        2954.25           1279          59.00       227.55
 1153.01        2954.50           1282          62.00       240.63
 1153.04        2954.75           1286          66.00       258.07
 1153.08        2955.00           1289          65.00       253.71
 1153.11        2955.25           1292          48.00       179.60
 1153.14        2955.50           1296          59.00       227.55
 1153.17        2955.75           1299          59.00       227.55
 1153.20        2956.00           1302          63.00       244.99
 1153.23        2956.25           1306          60.00       231.91
 1153.26        2956.50           1309          64.00       249.35
 1153.29        2956.75           1312          57.00       218.83
 1153.32        2957.00           1316          56.00       214.47
 1153.35        2957.25           1319          65.00       253.71
 1153.38        2957.50           1322          54.00       205.76
 1153.41        2957.75           1326          57.00       218.83
 1153.44        2958.00           1329          61.00       236.27
 1153.48        2958.25           1332          58.00       223.19
 1153.51        2958.50           1336          57.00       218.83
 1153.54        2958.75           1339          67.00       262.43
 1153.57        2959.00           1342          59.00       227.55
 1153.60        2959.25           1346          58.00       223.19
 1153.63        2959.50           1349          60.00       231.91
 1153.66        2959.75           1352          70.00       275.50
 1153.69        2960.00           1356          98.00       397.56
 1153.72        2960.25           1359         127.00       523.98
 1153.76        2960.50           1362         142.00       589.37
 1153.79        2960.75           1366         186.00       781.19
 1153.82        2961.00           1369         261.00      1108.15
 1153.85        2961.25           1372         287.00      1221.49
 1153.88        2961.50           1376         354.00      1513.58
 1153.91        2961.75           1379         491.00      2110.86
 1153.94        2962.00           1382         981.00      4247.27
 1153.97        2962.25           1386        2469.00     10736.67
 1154.00        2962.50           1389        3808.00     16578.43
 1154.03        2962.75           1392        5120.00     22304.37
 1154.06        2963.00           1396        6961.00     30342.34
 1154.09        2963.25           1399        8540.00     37239.49
 1154.13        2963.50           1402       10175.00     44384.26
 1154.16        2963.75           1406       12314.00     53736.08
 1154.19        2964.00           1409       13790.00     60192.30
 1154.22        2964.25           1412       15364.00     67079.93
 1154.25        2964.50           1416       17373.00     75875.21
 1154.28        2964.75           1419       18863.00     82401.36
 1154.31        2965.00           1422       20219.00     88342.81
 1154.34        2965.25           1426       22100.00     96588.10
 1154.37        2965.50           1429       23638.00    103332.90
 1154.41        2965.75           1432       24979.00    109216.00
 1154.44        2966.00           1436       27052.00    118314.60
 1154.47        2966.25           1439       28529.00    124800.30
 1154.50        2966.50           1442       29940.00    130998.60
 1154.53        2966.75           1446       31489.00    137805.70
 1154.56        2967.00           1449       31820.00    139260.60
 1154.59        2967.25           1452       31875.00    139502.40
 1154.62        2967.50           1456       31826.00    139287.00
 1154.65        2967.75           1459       31884.00    139542.00
 1154.68        2968.00           1462       31810.00    139216.70
 1154.71        2968.25           1466       31041.00    135836.60
 1154.75        2968.50           1469       29766.00    130234.10
 1154.78        2968.75           1472       28386.00    124172.20
 1154.81        2969.00           1476       26363.00    115290.00
 1154.84        2969.25           1479       25015.00    109374.00
 1154.87        2969.50           1482       23514.00    102789.00
 1154.90        2969.75           1486       21716.00     94904.52
 1154.93        2970.00           1489       20072.00     87698.61
 1154.96        2970.25           1492       18693.00     81656.63
 1154.99        2970.50           1496       16693.00     72897.69
 1155.03        2970.75           1499       15237.00     66524.10
 1155.06        2971.00           1502       13811.00     60284.17
 1155.09        2971.25           1506       11992.00     52327.94
 1155.12        2971.50           1509       10461.00     45634.36
 1155.15        2971.75           1513        8564.00     37344.35
 1155.18        2972.00           1516        7145.00     31145.92
 1155.21        2972.25           1519        5619.00     24482.67
 1155.24        2972.50           1523        3754.00     16342.80
 1155.27        2972.75           1526        2295.00      9977.70
 1155.30        2973.00           1529        1124.00      4870.81
 1155.34        2973.25           1533         460.00      1975.71
 1155.37        2973.50           1536         326.00      1391.51
 1155.40        2973.75           1539         289.00      1230.21
 1155.43        2974.00           1543         242.00      1025.31
 1155.46        2974.25           1546         182.00       763.75
 1155.49        2974.50           1549         147.00       611.17
 1155.52        2974.75           1553         109.00       445.52
 1155.55        2975.00           1556          83.00       332.17
 1155.58        2975.25           1559          67.00       262.43
 1155.62        2975.50           1563          58.00       223.19
 1155.65        2975.75           1566          60.00       231.91
 1155.68        2976.00           1569          57.00       218.83
 1155.71        2976.25           1573          60.00       231.91
 1155.74        2976.50           1576          55.00       210.11
 1155.77        2976.75           1579          58.00       223.19
 1155.80        2977.00           1583          51.00       192.68
 1155.83        2977.25           1586          57.00       218.83
 1155.86        2977.50           1590          54.00       205.76
 1155.89        2977.75           1593          54.00       205.76
 1155.92        2978.00           1596          56.00       214.47
 1155.95        2978.25           1600          60.00       231.91
 1155.98        2978.50           1603          53.00       201.40
 1156.02        2978.75           1606          63.00       244.99
 1156.05        2979.00           1610          59.00       227.55
 1156.08        2979.25           1613          60.00       231.91
 1156.11        2979.50           1616          45.00       166.52
 1156.14        2979.75           1620          56.00       214.47
 1156.17        2980.00           1623          48.00       179.60
 1156.20        2980.25           1626          59.00       227.55
 1156.23        2980.50           1630          56.00       214.47
 1156.26        2980.75           1633          58.00       223.19
 1156.29        2981.00           1637          53.00       201.40
 1156.33        2981.25           1640          51.00       192.68
 1156.36        2981.50           1643          52.00       197.04
 1156.39        2981.75           1647          67.00       262.43
 1156.42        2982.00           1650          59.00       227.55
 1156.45        2982.25           1653          50.00       188.32
 1156.48        2982.50           1657          58.00       223.19
 1156.51        2982.75           1660          57.00       218.83
 1156.54        2983.00           1663          55.00       210.11
 1156.57        2983.25           1667          48.00       179.60
 1156.60        2983.50           1670          57.00       218.83
 1156.63        2983.75           1673          56.00       214.47
 1156.67        2984.00           1677          54.00       205.76
HS scan finished at 19:16:53
end
