************************************************************
  HS Scan of (1) Internal mercury lamp
************************************************************
Integration time is 0.2294 seconds per sample
dh150319Manchester 53.47 2.23 2.804185pr1000
************************************************************
Dead Time -------------------------  3E-08 
Number of Cycles Used -------------  4 
Starting Wavelength (Angstroms) ---  2950 
Final Wavelength (Angstoms) -------  2984 
Wavelength Increment (Angstroms) --  .25 
Filter Wheel #1 Position ---------- (1) Ground quartz diffuser (ND=2.32)
Filter Wheel #2 Position ---------- (1) Neutral Density 0.494



************************************************************
HS scan start time = 03:23:54
Dark Count =  5.1 


Time (GMT)  Wavelength (Ang)  Step Number  Raw Counts  Counts/Second

  204.27        2950.00           1222          52.00       204.45
  204.34        2950.25           1226          57.00       226.24
  204.37        2950.50           1229          57.00       226.24
  204.40        2950.75           1232          56.00       221.88
  204.43        2951.00           1236          59.00       234.96
  204.47        2951.25           1239          52.00       204.45
  204.50        2951.50           1242          56.00       221.88
  204.53        2951.75           1246          50.00       195.73
  204.56        2952.00           1249          52.00       204.45
  204.59        2952.25           1252          57.00       226.24
  204.62        2952.50           1256          49.00       191.37
  204.65        2952.75           1259          59.00       234.96
  204.68        2953.00           1262          54.00       213.17
  204.71        2953.25           1266          56.00       221.88
  204.74        2953.50           1269          50.00       195.73
  204.77        2953.75           1272          65.00       261.12
  204.80        2954.00           1276          56.00       221.88
  204.84        2954.25           1279          57.00       226.24
  204.87        2954.50           1282          55.00       217.53
  204.90        2954.75           1286          53.00       208.81
  204.93        2955.00           1289          50.00       195.73
  204.96        2955.25           1292          60.00       239.32
  204.99        2955.50           1296          52.00       204.45
  205.02        2955.75           1299          52.00       204.45
  205.05        2956.00           1302          67.00       269.84
  205.08        2956.25           1306          52.00       204.45
  205.11        2956.50           1309          60.00       239.32
  205.15        2956.75           1312          62.00       248.04
  205.18        2957.00           1316          59.00       234.96
  205.21        2957.25           1319          52.00       204.45
  205.24        2957.50           1322          54.00       213.17
  205.27        2957.75           1326          65.00       261.12
  205.30        2958.00           1329          55.00       217.53
  205.33        2958.25           1332          55.00       217.53
  205.36        2958.50           1336          55.00       217.53
  205.39        2958.75           1339          59.00       234.96
  205.42        2959.00           1342          51.00       200.09
  205.45        2959.25           1346          60.00       239.32
  205.48        2959.50           1349          59.00       234.96
  205.52        2959.75           1352          71.00       287.27
  205.55        2960.00           1356          79.00       322.15
  205.58        2960.25           1359         117.00       487.80
  205.61        2960.50           1362         136.00       570.63
  205.64        2960.75           1366         178.00       753.72
  205.67        2961.00           1369         216.00       919.38
  205.70        2961.25           1372         241.00      1028.37
  205.73        2961.50           1376         297.00      1272.50
  205.76        2961.75           1379         409.00      1760.77
  205.79        2962.00           1382         714.00      3090.52
  205.83        2962.25           1386        1875.00      8153.26
  205.86        2962.50           1389        2926.00     12737.65
  205.89        2962.75           1392        4076.00     17755.31
  205.92        2963.00           1396        5653.00     24638.52
  205.95        2963.25           1399        6847.00     29851.92
  205.98        2963.50           1402        8055.00     35128.11
  206.01        2963.75           1406        9767.00     42608.49
  206.04        2964.00           1409       11136.00     48592.59
  206.07        2964.25           1412       12387.00     54062.77
  206.10        2964.50           1416       14082.00     61477.28
  206.13        2964.75           1419       15232.00     66509.65
  206.17        2965.00           1422       16613.00     72554.88
  206.20        2965.25           1426       18314.00     80003.91
  206.23        2965.50           1429       19622.00     85734.18
  206.26        2965.75           1432       20710.00     90502.15
  206.29        2966.00           1436       22415.00     97976.76
  206.32        2966.25           1439       23542.00    102919.30
  206.35        2966.50           1442       24656.00    107806.30
  206.38        2966.75           1446       25914.00    113326.70
  206.41        2967.00           1449       26464.00    115740.80
  206.45        2967.25           1452       26510.00    115942.70
  206.48        2967.50           1456       26603.00    116350.90
  206.51        2967.75           1459       26611.00    116386.10
  206.54        2968.00           1462       26285.00    114955.00
  206.57        2968.25           1466       25902.00    113274.00
  206.60        2968.50           1469       24966.00    109166.50
  206.63        2968.75           1472       23859.00    104309.80
  206.66        2969.00           1476       22448.00     98121.46
  206.69        2969.25           1479       21161.00     92478.97
  206.72        2969.50           1482       19996.00     87373.02
  206.76        2969.75           1486       18334.00     80091.52
  206.79        2970.00           1489       17133.00     74831.71
  206.82        2970.25           1492       15923.00     69534.18
  206.85        2970.50           1496       14427.00     62986.83
  206.88        2970.75           1499       13211.00     57666.82
  206.91        2971.00           1502       11982.00     52291.65
  206.94        2971.25           1506       10350.00     45156.60
  206.97        2971.50           1509        9152.00     39920.93
  207.00        2971.75           1513        7548.00     32913.48
  207.04        2972.00           1516        6397.00     27886.88
  207.07        2972.25           1519        5249.00     22874.89
  207.10        2972.50           1523        3631.00     15813.52
  207.13        2972.75           1526        2395.00     10421.31
  207.16        2973.00           1529        1273.00      5527.94
  207.19        2973.25           1533         469.00      2022.35
  207.22        2973.50           1536         298.00      1276.86
  207.25        2973.75           1539         233.00       993.49
  207.28        2974.00           1543         216.00       919.38
  207.31        2974.25           1546         166.00       701.41
  207.35        2974.50           1549         130.00       544.47
  207.38        2974.75           1553          94.00       387.54
  207.41        2975.00           1556          68.00       274.20
  207.44        2975.25           1559          64.00       256.76
  207.47        2975.50           1563          61.00       243.68
  207.50        2975.75           1566          47.00       182.65
  207.53        2976.00           1569          58.00       230.60
  207.56        2976.25           1573          59.00       234.96
  207.59        2976.50           1576          49.00       191.37
  207.63        2976.75           1579          54.00       213.17
  207.66        2977.00           1583          57.00       226.24
  207.69        2977.25           1586          46.00       178.29
  207.72        2977.50           1590          51.00       200.09
  207.75        2977.75           1593          49.00       191.37
  207.78        2978.00           1596          49.00       191.37
  207.81        2978.25           1600          50.00       195.73
  207.84        2978.50           1603          49.00       191.37
  207.88        2978.75           1606          55.00       217.53
  207.91        2979.00           1610          54.00       213.17
  207.94        2979.25           1613          54.00       213.17
  207.97        2979.50           1616          53.00       208.81
  208.00        2979.75           1620          52.00       204.45
  208.03        2980.00           1623          48.00       187.01
  208.06        2980.25           1626          55.00       217.53
  208.09        2980.50           1630          42.00       160.86
  208.12        2980.75           1633          43.00       165.21
  208.15        2981.00           1637          50.00       195.73
  208.18        2981.25           1640          44.00       169.57
  208.21        2981.50           1643          49.00       191.37
  208.25        2981.75           1647          50.00       195.73
  208.28        2982.00           1650          48.00       187.01
  208.31        2982.25           1653          57.00       226.24
  208.34        2982.50           1657          44.00       169.57
  208.37        2982.75           1660          48.00       187.01
  208.40        2983.00           1663          49.00       191.37
  208.43        2983.25           1667          49.00       191.37
  208.46        2983.50           1670          57.00       226.24
  208.49        2983.75           1673          42.00       160.86
  208.53        2984.00           1677          55.00       217.53
HS scan finished at 03:28:45
end
************************************************************
  HS Scan of (1) Internal mercury lamp
************************************************************
Integration time is 0.2294 seconds per sample
dh150319Manchester 53.47 2.23 2.804185pr1000
************************************************************
Dead Time -------------------------  3E-08 
Number of Cycles Used -------------  4 
Starting Wavelength (Angstroms) ---  2950 
Final Wavelength (Angstoms) -------  2984 
Wavelength Increment (Angstroms) --  .25 
Filter Wheel #1 Position ---------- (1) Ground quartz diffuser (ND=2.32)
Filter Wheel #2 Position ---------- (1) Neutral Density 0.494



************************************************************
HS scan start time = 19:12:09
Dark Count =  4 


Time (GMT)  Wavelength (Ang)  Step Number  Raw Counts  Counts/Second

 1152.52        2950.00           1222          56.00       226.68
 1152.59        2950.25           1226          52.00       209.24
 1152.62        2950.50           1229          54.00       217.96
 1152.65        2950.75           1232          56.00       226.68
 1152.68        2951.00           1236          49.00       196.17
 1152.71        2951.25           1239          53.00       213.60
 1152.74        2951.50           1242          54.00       217.96
 1152.77        2951.75           1246          58.00       235.40
 1152.81        2952.00           1249          54.00       217.96
 1152.84        2952.25           1252          64.00       261.55
 1152.87        2952.50           1256          52.00       209.24
 1152.90        2952.75           1259          63.00       257.19
 1152.93        2953.00           1262          57.00       231.04
 1152.96        2953.25           1266          50.00       200.52
 1152.99        2953.50           1269          55.00       222.32
 1153.02        2953.75           1272          55.00       222.32
 1153.05        2954.00           1276          55.00       222.32
 1153.08        2954.25           1279          53.00       213.60
 1153.11        2954.50           1282          58.00       235.40
 1153.14        2954.75           1286          59.00       239.76
 1153.17        2955.00           1289          49.00       196.17
 1153.20        2955.25           1292          52.00       209.24
 1153.23        2955.50           1296          50.00       200.52
 1153.27        2955.75           1299          53.00       213.60
 1153.30        2956.00           1302          47.00       187.45
 1153.33        2956.25           1306          55.00       222.32
 1153.36        2956.50           1309          58.00       235.40
 1153.39        2956.75           1312          54.00       217.96
 1153.42        2957.00           1316          57.00       231.04
 1153.45        2957.25           1319          48.00       191.81
 1153.48        2957.50           1322          50.00       200.52
 1153.51        2957.75           1326          52.00       209.24
 1153.54        2958.00           1329          72.00       296.43
 1153.57        2958.25           1332          53.00       213.60
 1153.60        2958.50           1336          64.00       261.55
 1153.64        2958.75           1339          53.00       213.60
 1153.67        2959.00           1342          61.00       248.48
 1153.70        2959.25           1346          51.00       204.88
 1153.73        2959.50           1349          56.00       226.68
 1153.76        2959.75           1352          74.00       305.15
 1153.79        2960.00           1356          87.00       361.82
 1153.82        2960.25           1359         105.00       440.28
 1153.85        2960.50           1362         131.00       553.63
 1153.88        2960.75           1366         170.00       723.64
 1153.91        2961.00           1369         198.00       845.71
 1153.94        2961.25           1372         244.00      1046.24
 1153.98        2961.50           1376         295.00      1268.57
 1154.01        2961.75           1379         388.00      1674.02
 1154.04        2962.00           1382         816.00      3540.04
 1154.07        2962.25           1386        2093.00      9108.85
 1154.10        2962.50           1389        3303.00     14387.20
 1154.13        2962.75           1392        4418.00     19252.62
 1154.16        2963.00           1396        5814.00     25346.21
 1154.19        2963.25           1399        7034.00     30673.38
 1154.22        2963.50           1402        8284.00     36133.31
 1154.25        2963.75           1406        9774.00     42643.89
 1154.28        2964.00           1409       11012.00     48055.28
 1154.32        2964.25           1412       12291.00     53647.74
 1154.35        2964.50           1416       13907.00     60716.43
 1154.38        2964.75           1419       15068.00     65796.71
 1154.41        2965.00           1422       16425.00     71736.61
 1154.44        2965.25           1426       18178.00     79413.03
 1154.47        2965.50           1429       19470.00     85073.00
 1154.50        2965.75           1432       20613.00     90081.82
 1154.53        2966.00           1436       22066.00     96451.31
 1154.56        2966.25           1439       23351.00    102086.40
 1154.60        2966.50           1442       24446.00    106889.70
 1154.63        2966.75           1446       25852.00    113059.40
 1154.66        2967.00           1449       26139.00    114319.00
 1154.69        2967.25           1452       26451.00    115688.50
 1154.72        2967.50           1456       26264.00    114867.70
 1154.75        2967.75           1459       26348.00    115236.40
 1154.78        2968.00           1462       26399.00    115460.30
 1154.81        2968.25           1466       25875.00    113160.30
 1154.84        2968.50           1469       24844.00    108636.00
 1154.87        2968.75           1472       23565.00    103025.00
 1154.91        2969.00           1476       22102.00     96609.15
 1154.94        2969.25           1479       20894.00     91313.44
 1154.97        2969.50           1482       19847.00     86724.90
 1155.00        2969.75           1486       18179.00     79417.41
 1155.03        2970.00           1489       16983.00     74179.72
 1155.06        2970.25           1492       15894.00     69412.05
 1155.09        2970.50           1496       14319.00     62519.07
 1155.12        2970.75           1499       12949.00     56525.60
 1155.15        2971.00           1502       11729.00     51190.15
 1155.18        2971.25           1506        9958.00     43448.05
 1155.21        2971.50           1509        8755.00     38191.08
 1155.25        2971.75           1513        7133.00     31105.74
 1155.28        2972.00           1516        5955.00     25961.80
 1155.31        2972.25           1519        4761.00     20749.62
 1155.34        2972.50           1523        3245.00     14134.15
 1155.37        2972.75           1526        2117.00      9213.53
 1155.40        2973.00           1529        1000.00      4342.33
 1155.43        2973.25           1533         400.00      1726.33
 1155.46        2973.50           1536         297.00      1277.29
 1155.49        2973.75           1539         240.00      1028.80
 1155.52        2974.00           1543         196.00       836.99
 1155.56        2974.25           1546         150.00       636.46
 1155.59        2974.50           1549         131.00       553.63
 1155.62        2974.75           1553          81.00       335.66
 1155.65        2975.00           1556          70.00       287.71
 1155.68        2975.25           1559          60.00       244.12
 1155.71        2975.50           1563          55.00       222.32
 1155.74        2975.75           1566          53.00       213.60
 1155.77        2976.00           1569          50.00       200.52
 1155.80        2976.25           1573          49.00       196.17
 1155.83        2976.50           1576          54.00       217.96
 1155.87        2976.75           1579          57.00       231.04
 1155.90        2977.00           1583          48.00       191.81
 1155.93        2977.25           1586          50.00       200.52
 1155.96        2977.50           1590          46.00       183.09
 1155.99        2977.75           1593          60.00       244.12
 1156.02        2978.00           1596          52.00       209.24
 1156.05        2978.25           1600          48.00       191.81
 1156.08        2978.50           1603          58.00       235.40
 1156.11        2978.75           1606          48.00       191.81
 1156.14        2979.00           1610          49.00       196.17
 1156.17        2979.25           1613          54.00       217.96
 1156.21        2979.50           1616          50.00       200.52
 1156.24        2979.75           1620          53.00       213.60
 1156.27        2980.00           1623          51.00       204.88
 1156.30        2980.25           1626          46.00       183.09
 1156.33        2980.50           1630          50.00       200.52
 1156.36        2980.75           1633          54.00       217.96
 1156.39        2981.00           1637          47.00       187.45
 1156.42        2981.25           1640          55.00       222.32
 1156.45        2981.50           1643          56.00       226.68
 1156.49        2981.75           1647          59.00       239.76
 1156.52        2982.00           1650          49.00       196.17
 1156.55        2982.25           1653          49.00       196.17
 1156.58        2982.50           1657          51.00       204.88
 1156.61        2982.75           1660          47.00       187.45
 1156.64        2983.00           1663          48.00       191.81
 1156.67        2983.25           1667          44.00       174.37
 1156.70        2983.50           1670          48.00       191.81
 1156.73        2983.75           1673          50.00       200.52
 1156.76        2984.00           1677          47.00       187.45
HS scan finished at 19:16:59
end
