************************************************************
  HS Scan of (1) Internal mercury lamp
************************************************************
Integration time is 0.2294 seconds per sample
dh190318Manchester 53.47 2.23 2.750537pr1000
************************************************************
Dead Time -------------------------  3E-08 
Number of Cycles Used -------------  4 
Starting Wavelength (Angstroms) ---  2950 
Final Wavelength (Angstoms) -------  2984 
Wavelength Increment (Angstroms) --  .25 
Filter Wheel #1 Position ---------- (1) Ground quartz diffuser (ND=2.32)
Filter Wheel #2 Position ---------- (1) Neutral Density 0.494



************************************************************
HS scan start time = 03:07:39
Dark Count =  6.2 


Time (GMT)  Wavelength (Ang)  Step Number  Raw Counts  Counts/Second

  188.02        2950.00           1222          62.00       243.25
  188.08        2950.25           1226          56.00       217.09
  188.11        2950.50           1229          58.00       225.81
  188.14        2950.75           1232          57.00       221.45
  188.18        2951.00           1236          64.00       251.96
  188.21        2951.25           1239          57.00       221.45
  188.24        2951.50           1242          60.00       234.53
  188.27        2951.75           1246          58.00       225.81
  188.30        2952.00           1249          52.00       199.65
  188.33        2952.25           1252          57.00       221.45
  188.36        2952.50           1256          54.00       208.37
  188.39        2952.75           1259          59.00       230.17
  188.42        2953.00           1262          62.00       243.25
  188.45        2953.25           1266          63.00       247.60
  188.48        2953.50           1269          58.00       225.81
  188.51        2953.75           1272          66.00       260.68
  188.54        2954.00           1276          56.00       217.09
  188.58        2954.25           1279          70.00       278.12
  188.61        2954.50           1282          54.00       208.37
  188.64        2954.75           1286          53.00       204.01
  188.67        2955.00           1289          57.00       221.45
  188.70        2955.25           1292          58.00       225.81
  188.73        2955.50           1296          58.00       225.81
  188.76        2955.75           1299          60.00       234.53
  188.79        2956.00           1302          55.00       212.73
  188.82        2956.25           1306          53.00       204.01
  188.85        2956.50           1309          50.00       190.93
  188.88        2956.75           1312          54.00       208.37
  188.91        2957.00           1316          51.00       195.29
  188.95        2957.25           1319          51.00       195.29
  188.98        2957.50           1322          64.00       251.96
  189.01        2957.75           1326          64.00       251.96
  189.04        2958.00           1329          61.00       238.89
  189.07        2958.25           1332          61.00       238.89
  189.10        2958.50           1336          63.00       247.60
  189.13        2958.75           1339          57.00       221.45
  189.16        2959.00           1342          53.00       204.01
  189.19        2959.25           1346          59.00       230.17
  189.22        2959.50           1349          69.00       273.76
  189.25        2959.75           1352          82.00       330.43
  189.28        2960.00           1356         113.00       465.57
  189.31        2960.25           1359         137.00       570.19
  189.34        2960.50           1362         169.00       709.69
  189.38        2960.75           1366         219.00       927.66
  189.41        2961.00           1369         261.00      1110.76
  189.44        2961.25           1372         303.00      1293.86
  189.47        2961.50           1376         379.00      1625.19
  189.50        2961.75           1379         581.00      2505.86
  189.53        2962.00           1382        1286.00      5579.84
  189.56        2962.25           1386        2997.00     13042.59
  189.59        2962.50           1389        4514.00     19661.99
  189.62        2962.75           1392        5865.00     25559.26
  189.65        2963.00           1396        7855.00     34249.65
  189.68        2963.25           1399        9250.00     40344.36
  189.72        2963.50           1402       10791.00     47079.53
  189.75        2963.75           1406       12709.00     55466.24
  189.78        2964.00           1409       14251.00     62211.91
  189.81        2964.25           1412       15850.00     69209.81
  189.84        2964.50           1416       17679.00     77217.91
  189.87        2964.75           1419       19187.00     83823.43
  189.90        2965.00           1422       20740.00     90628.82
  189.93        2965.25           1426       22793.00     99629.52
  189.96        2965.50           1429       24266.00    106090.40
  189.99        2965.75           1432       25553.00    111737.50
  190.03        2966.00           1436       27532.00    120424.70
  190.06        2966.25           1439       29107.00    127341.70
  190.09        2966.50           1442       30353.00    132815.90
  190.12        2966.75           1446       31625.00    138406.10
  190.15        2967.00           1449       32035.00    140208.40
  190.18        2967.25           1452       31892.00    139579.80
  190.21        2967.50           1456       32028.00    140177.60
  190.24        2967.75           1459       31907.00    139645.70
  190.28        2968.00           1462       31726.00    138850.10
  190.31        2968.25           1466       30606.00    133927.60
  190.34        2968.50           1469       29381.00    128545.30
  190.37        2968.75           1472       27867.00    121895.70
  190.40        2969.00           1476       25820.00    112909.30
  190.43        2969.25           1479       24402.00    106687.10
  190.46        2969.50           1482       22892.00    100063.70
  190.49        2969.75           1486       21124.00     92311.96
  190.53        2970.00           1489       19637.00     85795.09
  190.56        2970.25           1492       18366.00     80226.87
  190.59        2970.50           1496       16463.00     71893.35
  190.62        2970.75           1499       14878.00     64955.58
  190.65        2971.00           1502       13199.00     57609.51
  190.68        2971.25           1506       11369.00     49606.47
  190.71        2971.50           1509        9766.00     42599.31
  190.74        2971.75           1513        7857.00     34258.38
  190.77        2972.00           1516        6460.00     28157.17
  190.80        2972.25           1519        4927.00     21464.56
  190.83        2972.50           1523        3044.00     13247.64
  190.87        2972.75           1526        1711.00      7433.22
  190.90        2973.00           1529         761.00      3290.65
  190.93        2973.25           1533         384.00      1646.99
  190.96        2973.50           1536         308.00      1315.66
  190.99        2973.75           1539         260.00      1106.40
  191.02        2974.00           1543         229.00       971.26
  191.05        2974.25           1546         152.00       635.58
  191.08        2974.50           1549         117.00       483.01
  191.11        2974.75           1553          87.00       352.23
  191.14        2975.00           1556          74.00       295.56
  191.17        2975.25           1559          64.00       251.96
  191.21        2975.50           1563          54.00       208.37
  191.24        2975.75           1566          52.00       199.65
  191.27        2976.00           1569          55.00       212.73
  191.30        2976.25           1573          59.00       230.17
  191.33        2976.50           1576          55.00       212.73
  191.36        2976.75           1579          61.00       238.89
  191.39        2977.00           1583          57.00       221.45
  191.42        2977.25           1586          54.00       208.37
  191.45        2977.50           1590          51.00       195.29
  191.48        2977.75           1593          48.00       182.22
  191.51        2978.00           1596          54.00       208.37
  191.54        2978.25           1600          64.00       251.96
  191.58        2978.50           1603          57.00       221.45
  191.61        2978.75           1606          55.00       212.73
  191.64        2979.00           1610          59.00       230.17
  191.67        2979.25           1613          59.00       230.17
  191.70        2979.50           1616          59.00       230.17
  191.73        2979.75           1620          57.00       221.45
  191.76        2980.00           1623          53.00       204.01
  191.79        2980.25           1626          57.00       221.45
  191.82        2980.50           1630          55.00       212.73
  191.85        2980.75           1633          54.00       208.37
  191.88        2981.00           1637          54.00       208.37
  191.92        2981.25           1640          47.00       177.86
  191.95        2981.50           1643          52.00       199.65
  191.98        2981.75           1647          50.00       190.93
  192.01        2982.00           1650          53.00       204.01
  192.04        2982.25           1653          52.00       199.65
  192.07        2982.50           1657          60.00       234.53
  192.10        2982.75           1660          52.00       199.65
  192.13        2983.00           1663          55.00       212.73
  192.16        2983.25           1667          49.00       186.57
  192.19        2983.50           1670          61.00       238.89
  192.22        2983.75           1673          59.00       230.17
  192.26        2984.00           1677          52.00       199.65
HS scan finished at 03:12:28
end
************************************************************
  HS Scan of (1) Internal mercury lamp
************************************************************
Integration time is 0.2294 seconds per sample
dh190318Manchester 53.47 2.23 2.804185pr1000
************************************************************
Dead Time -------------------------  3E-08 
Number of Cycles Used -------------  4 
Starting Wavelength (Angstroms) ---  2950 
Final Wavelength (Angstoms) -------  2984 
Wavelength Increment (Angstroms) --  .25 
Filter Wheel #1 Position ---------- (1) Ground quartz diffuser (ND=2.32)
Filter Wheel #2 Position ---------- (1) Neutral Density 0.494



************************************************************
HS scan start time = 19:12:01
Dark Count =  6.3 


Time (GMT)  Wavelength (Ang)  Step Number  Raw Counts  Counts/Second

 1152.38        2950.00           1222          57.00       221.01
 1152.45        2950.25           1226          63.00       247.17
 1152.48        2950.50           1229          49.00       186.14
 1152.51        2950.75           1232          55.00       212.29
 1152.54        2951.00           1236          57.00       221.01
 1152.57        2951.25           1239          64.00       251.53
 1152.60        2951.50           1242          58.00       225.37
 1152.63        2951.75           1246          57.00       221.01
 1152.67        2952.00           1249          56.00       216.65
 1152.70        2952.25           1252          66.00       260.25
 1152.73        2952.50           1256          52.00       199.22
 1152.76        2952.75           1259          55.00       212.29
 1152.79        2953.00           1262          63.00       247.17
 1152.82        2953.25           1266          63.00       247.17
 1152.85        2953.50           1269          60.00       234.09
 1152.88        2953.75           1272          62.00       242.81
 1152.91        2954.00           1276          61.00       238.45
 1152.94        2954.25           1279          52.00       199.22
 1152.97        2954.50           1282          58.00       225.37
 1153.01        2954.75           1286          64.00       251.53
 1153.04        2955.00           1289          60.00       234.09
 1153.07        2955.25           1292          65.00       255.89
 1153.10        2955.50           1296          57.00       221.01
 1153.13        2955.75           1299          66.00       260.25
 1153.16        2956.00           1302          60.00       234.09
 1153.19        2956.25           1306          60.00       234.09
 1153.22        2956.50           1309          59.00       229.73
 1153.25        2956.75           1312          49.00       186.14
 1153.28        2957.00           1316          60.00       234.09
 1153.31        2957.25           1319          60.00       234.09
 1153.35        2957.50           1322          58.00       225.37
 1153.38        2957.75           1326          50.00       190.50
 1153.41        2958.00           1329          57.00       221.01
 1153.44        2958.25           1332          60.00       234.09
 1153.47        2958.50           1336          58.00       225.37
 1153.50        2958.75           1339          65.00       255.89
 1153.53        2959.00           1342          61.00       238.45
 1153.56        2959.25           1346          65.00       255.89
 1153.59        2959.50           1349          75.00       299.48
 1153.62        2959.75           1352          82.00       329.99
 1153.65        2960.00           1356          97.00       395.38
 1153.68        2960.25           1359         132.00       547.96
 1153.71        2960.50           1362         177.00       744.13
 1153.74        2960.75           1366         214.00       905.43
 1153.78        2961.00           1369         261.00      1110.32
 1153.81        2961.25           1372         307.00      1310.86
 1153.84        2961.50           1376         392.00      1681.43
 1153.87        2961.75           1379         646.00      2788.81
 1153.90        2962.00           1382        1394.00      6050.36
 1153.93        2962.25           1386        3217.00     14001.96
 1153.96        2962.50           1389        4654.00     20272.57
 1153.99        2962.75           1392        6043.00     26335.97
 1154.02        2963.00           1396        7926.00     34559.36
 1154.06        2963.25           1399        9296.00     40544.93
 1154.09        2963.50           1402       10711.00     46729.37
 1154.12        2963.75           1406       12664.00     55268.99
 1154.15        2964.00           1409       14278.00     62329.61
 1154.18        2964.25           1412       15891.00     69388.85
 1154.21        2964.50           1416       17573.00     76753.25
 1154.24        2964.75           1419       19146.00     83643.37
 1154.27        2965.00           1422       20746.00     90654.66
 1154.30        2965.25           1426       22844.00     99852.72
 1154.33        2965.50           1429       24249.00    106015.40
 1154.36        2965.75           1432       25614.00    112004.80
 1154.40        2966.00           1436       27598.00    120714.10
 1154.43        2966.25           1439       28831.00    126128.90
 1154.46        2966.50           1442       30316.00    132652.90
 1154.49        2966.75           1446       31428.00    137539.80
 1154.52        2967.00           1449       31879.00    139522.20
 1154.55        2967.25           1452       31773.00    139056.20
 1154.58        2967.50           1456       31707.00    138766.10
 1154.61        2967.75           1459       31621.00    138388.10
 1154.65        2968.00           1462       31566.00    138146.30
 1154.68        2968.25           1466       30330.00    132714.40
 1154.71        2968.50           1469       29018.00    126950.30
 1154.74        2968.75           1472       27670.00    121030.20
 1154.77        2969.00           1476       25772.00    112698.20
 1154.80        2969.25           1479       24428.00    106800.70
 1154.83        2969.50           1482       22932.00    100238.70
 1154.86        2969.75           1486       21163.00     92482.47
 1154.89        2970.00           1489       19793.00     86478.21
 1154.92        2970.25           1492       18510.00     80857.19
 1154.95        2970.50           1496       16143.00     70491.99
 1154.99        2970.75           1499       14840.00     64788.84
 1155.02        2971.00           1502       13312.00     58103.38
 1155.05        2971.25           1506       11251.00     49090.12
 1155.08        2971.50           1509        9810.00     42791.17
 1155.11        2971.75           1513        7861.00     34275.42
 1155.14        2972.00           1516        6315.00     27523.59
 1155.17        2972.25           1519        4915.00     21411.75
 1155.20        2972.50           1523        2970.00     12924.36
 1155.23        2972.75           1526        1735.00      7537.45
 1155.26        2973.00           1529         754.00      3259.69
 1155.30        2973.25           1533         405.00      1738.10
 1155.33        2973.50           1536         331.00      1415.49
 1155.36        2973.75           1539         274.00      1167.00
 1155.39        2974.00           1543         227.00       962.10
 1155.42        2974.25           1546         174.00       731.05
 1155.45        2974.50           1549         138.00       574.12
 1155.48        2974.75           1553         102.00       417.18
 1155.51        2975.00           1556          86.00       347.43
 1155.54        2975.25           1559          62.00       242.81
 1155.57        2975.50           1563          61.00       238.45
 1155.60        2975.75           1566          60.00       234.09
 1155.63        2976.00           1569          57.00       221.01
 1155.66        2976.25           1573          61.00       238.45
 1155.70        2976.50           1576          56.00       216.65
 1155.73        2976.75           1579          49.00       186.14
 1155.76        2977.00           1583          57.00       221.01
 1155.79        2977.25           1586          59.00       229.73
 1155.82        2977.50           1590          60.00       234.09
 1155.85        2977.75           1593          53.00       203.58
 1155.88        2978.00           1596          56.00       216.65
 1155.91        2978.25           1600          58.00       225.37
 1155.94        2978.50           1603          64.00       251.53
 1155.97        2978.75           1606          58.00       225.37
 1156.01        2979.00           1610          52.00       199.22
 1156.04        2979.25           1613          56.00       216.65
 1156.07        2979.50           1616          45.00       168.70
 1156.10        2979.75           1620          55.00       212.29
 1156.13        2980.00           1623          56.00       216.65
 1156.16        2980.25           1626          50.00       190.50
 1156.19        2980.50           1630          47.00       177.42
 1156.22        2980.75           1633          61.00       238.45
 1156.25        2981.00           1637          61.00       238.45
 1156.28        2981.25           1640          52.00       199.22
 1156.31        2981.50           1643          49.00       186.14
 1156.34        2981.75           1647          52.00       199.22
 1156.37        2982.00           1650          53.00       203.58
 1156.41        2982.25           1653          60.00       234.09
 1156.44        2982.50           1657          46.00       173.06
 1156.47        2982.75           1660          52.00       199.22
 1156.50        2983.00           1663          54.00       207.94
 1156.53        2983.25           1667          51.00       194.86
 1156.56        2983.50           1670          55.00       212.29
 1156.59        2983.75           1673          62.00       242.81
 1156.62        2984.00           1677          55.00       212.29
HS scan finished at 19:16:50
end
