************************************************************
  HS Scan of (1) Internal mercury lamp
************************************************************
Integration time is 0.2294 seconds per sample
dh130317Manchester 53.47 2.23 2.750537pr1000
************************************************************
Dead Time -------------------------  3E-08 
Number of Cycles Used -------------  4 
Starting Wavelength (Angstroms) ---  2950 
Final Wavelength (Angstoms) -------  2984 
Wavelength Increment (Angstroms) --  .25 
Filter Wheel #1 Position ---------- (1) Ground quartz diffuser (ND=2.32)
Filter Wheel #2 Position ---------- (1) Neutral Density 0.494



************************************************************
HS scan start time = 03:30:34
Dark Count =  8.5 


Time (GMT)  Wavelength (Ang)  Step Number  Raw Counts  Counts/Second

  210.93        2950.00           1222          41.00       141.67
  211.00        2950.25           1226          54.00       198.34
  211.03        2950.50           1229          46.00       163.47
  211.06        2950.75           1232          45.00       159.11
  211.09        2951.00           1236          48.00       172.19
  211.12        2951.25           1239          38.00       128.60
  211.15        2951.50           1242          52.00       189.63
  211.18        2951.75           1246          42.00       146.03
  211.21        2952.00           1249          54.00       198.34
  211.24        2952.25           1252          47.00       167.83
  211.27        2952.50           1256          54.00       198.34
  211.30        2952.75           1259          56.00       207.06
  211.33        2953.00           1262          46.00       163.47
  211.36        2953.25           1266          52.00       189.63
  211.39        2953.50           1269          47.00       167.83
  211.42        2953.75           1272          50.00       180.91
  211.46        2954.00           1276          50.00       180.91
  211.49        2954.25           1279          45.00       159.11
  211.52        2954.50           1282          58.00       215.78
  211.55        2954.75           1286          42.00       146.03
  211.58        2955.00           1289          43.00       150.39
  211.61        2955.25           1292          46.00       163.47
  211.64        2955.50           1296          51.00       185.27
  211.67        2955.75           1299          48.00       172.19
  211.70        2956.00           1302          48.00       172.19
  211.73        2956.25           1306          46.00       163.47
  211.76        2956.50           1309          40.00       137.32
  211.79        2956.75           1312          53.00       193.99
  211.82        2957.00           1316          41.00       141.67
  211.85        2957.25           1319          48.00       172.19
  211.89        2957.50           1322          52.00       189.63
  211.92        2957.75           1326          48.00       172.19
  211.95        2958.00           1329          53.00       193.99
  211.98        2958.25           1332          52.00       189.63
  212.01        2958.50           1336          51.00       185.27
  212.04        2958.75           1339          52.00       189.63
  212.07        2959.00           1342          47.00       167.83
  212.10        2959.25           1346          46.00       163.47
  212.13        2959.50           1349          49.00       176.55
  212.16        2959.75           1352          58.00       215.78
  212.19        2960.00           1356          66.00       250.66
  212.22        2960.25           1359          97.00       385.79
  212.26        2960.50           1362         120.00       486.06
  212.29        2960.75           1366         173.00       717.10
  212.32        2961.00           1369         207.00       865.32
  212.35        2961.25           1372         245.00      1030.98
  212.38        2961.50           1376         350.00      1488.73
  212.41        2961.75           1379         518.00      2221.16
  212.44        2962.00           1382         958.00      4139.57
  212.47        2962.25           1386        2463.00     10703.09
  212.50        2962.50           1389        3843.00     16723.74
  212.53        2962.75           1392        5507.00     23986.31
  212.57        2963.00           1396        7668.00     33422.77
  212.60        2963.25           1399        9332.00     40692.63
  212.63        2963.50           1402       10981.00     47900.08
  212.66        2963.75           1406       13466.00     58767.42
  212.69        2964.00           1409       14951.00     65264.98
  212.72        2964.25           1412       16809.00     73398.15
  212.75        2964.50           1416       19186.00     83808.98
  212.78        2964.75           1419       20754.00     90680.09
  212.81        2965.00           1422       22438.00     98062.71
  212.84        2965.25           1426       24556.00    107352.60
  212.88        2965.50           1429       26302.00    115014.70
  212.91        2965.75           1432       27960.00    122294.00
  212.94        2966.00           1436       29903.00    130828.50
  212.97        2966.25           1439       31538.00    138013.60
  213.00        2966.50           1442       33301.00    145764.60
  213.03        2966.75           1446       34852.00    152586.60
  213.06        2967.00           1449       35575.00    155767.60
  213.09        2967.25           1452       35783.00    156682.90
  213.13        2967.50           1456       35747.00    156524.50
  213.16        2967.75           1459       35664.00    156159.30
  213.19        2968.00           1462       35585.00    155811.60
  213.22        2968.25           1466       34742.00    152102.70
  213.25        2968.50           1469       33804.00    147976.70
  213.28        2968.75           1472       32288.00    141310.50
  213.31        2969.00           1476       29807.00    130406.70
  213.34        2969.25           1479       28487.00    124608.40
  213.37        2969.50           1482       26767.00    117056.00
  213.40        2969.75           1486       24702.00    107993.20
  213.44        2970.00           1489       23144.00    101158.80
  213.47        2970.25           1492       21490.00     93906.30
  213.50        2970.50           1496       19283.00     84233.96
  213.53        2970.75           1499       17657.00     77111.49
  213.56        2971.00           1502       16043.00     70044.60
  213.59        2971.25           1506       13901.00     60670.49
  213.62        2971.50           1509       12224.00     53335.06
  213.65        2971.75           1513       10044.00     43804.26
  213.68        2972.00           1516        8349.00     36397.61
  213.72        2972.25           1519        6816.00     29701.69
  213.75        2972.50           1523        4705.00     20485.56
  213.78        2972.75           1526        3134.00     13630.25
  213.81        2973.00           1529        1821.00      7902.92
  213.84        2973.25           1533         710.00      3058.26
  213.87        2973.50           1536         450.00      1924.70
  213.90        2973.75           1539         341.00      1449.50
  213.93        2974.00           1543         308.00      1305.63
  213.96        2974.25           1546         254.00      1070.22
  213.99        2974.50           1549         201.00       839.17
  214.02        2974.75           1553         142.00       581.96
  214.05        2975.00           1556         107.00       429.39
  214.09        2975.25           1559          77.00       298.61
  214.12        2975.50           1563          60.00       224.50
  214.15        2975.75           1566          55.00       202.70
  214.18        2976.00           1569          56.00       207.06
  214.21        2976.25           1573          53.00       193.99
  214.24        2976.50           1576          50.00       180.91
  214.27        2976.75           1579          44.00       154.75
  214.30        2977.00           1583          43.00       150.39
  214.33        2977.25           1586          44.00       154.75
  214.36        2977.50           1590          41.00       141.67
  214.39        2977.75           1593          44.00       154.75
  214.42        2978.00           1596          45.00       159.11
  214.45        2978.25           1600          49.00       176.55
  214.49        2978.50           1603          46.00       163.47
  214.52        2978.75           1606          48.00       172.19
  214.55        2979.00           1610          48.00       172.19
  214.58        2979.25           1613          48.00       172.19
  214.61        2979.50           1616          47.00       167.83
  214.64        2979.75           1620          51.00       185.27
  214.67        2980.00           1623          46.00       163.47
  214.70        2980.25           1626          51.00       185.27
  214.73        2980.50           1630          48.00       172.19
  214.76        2980.75           1633          44.00       154.75
  214.79        2981.00           1637          43.00       150.39
  214.83        2981.25           1640          46.00       163.47
  214.86        2981.50           1643          41.00       141.67
  214.89        2981.75           1647          41.00       141.67
  214.92        2982.00           1650          43.00       150.39
  214.95        2982.25           1653          43.00       150.39
  214.98        2982.50           1657          44.00       154.75
  215.01        2982.75           1660          42.00       146.03
  215.04        2983.00           1663          46.00       163.47
  215.07        2983.25           1667          48.00       172.19
  215.10        2983.50           1670          46.00       163.47
  215.13        2983.75           1673          43.00       150.39
  215.16        2984.00           1677          47.00       167.83
HS scan finished at 03:35:23
end
************************************************************
  HS Scan of (1) Internal mercury lamp
************************************************************
Integration time is 0.2294 seconds per sample
dh130317Manchester 53.47 2.23 2.804185pr1000
************************************************************
Dead Time -------------------------  3E-08 
Number of Cycles Used -------------  4 
Starting Wavelength (Angstroms) ---  2950 
Final Wavelength (Angstoms) -------  2984 
Wavelength Increment (Angstroms) --  .25 
Filter Wheel #1 Position ---------- (1) Ground quartz diffuser (ND=2.32)
Filter Wheel #2 Position ---------- (1) Neutral Density 0.494



************************************************************
HS scan start time = 19:12:03
Dark Count =  6.3 


Time (GMT)  Wavelength (Ang)  Step Number  Raw Counts  Counts/Second

 1152.41        2950.00           1222          43.00       159.98
 1152.48        2950.25           1226          50.00       190.50
 1152.51        2950.50           1229          42.00       155.62
 1152.54        2950.75           1232          49.00       186.14
 1152.57        2951.00           1236          49.00       186.14
 1152.60        2951.25           1239          46.00       173.06
 1152.63        2951.50           1242          43.00       159.98
 1152.66        2951.75           1246          40.00       146.91
 1152.69        2952.00           1249          44.00       164.34
 1152.72        2952.25           1252          50.00       190.50
 1152.75        2952.50           1256          53.00       203.58
 1152.78        2952.75           1259          48.00       181.78
 1152.81        2953.00           1262          48.00       181.78
 1152.84        2953.25           1266          55.00       212.29
 1152.87        2953.50           1269          48.00       181.78
 1152.91        2953.75           1272          42.00       155.62
 1152.94        2954.00           1276          52.00       199.22
 1152.97        2954.25           1279          49.00       186.14
 1153.00        2954.50           1282          51.00       194.86
 1153.03        2954.75           1286          40.00       146.91
 1153.06        2955.00           1289          44.00       164.34
 1153.09        2955.25           1292          49.00       186.14
 1153.12        2955.50           1296          47.00       177.42
 1153.15        2955.75           1299          42.00       155.62
 1153.18        2956.00           1302          43.00       159.98
 1153.21        2956.25           1306          43.00       159.98
 1153.24        2956.50           1309          48.00       181.78
 1153.27        2956.75           1312          50.00       190.50
 1153.30        2957.00           1316          51.00       194.86
 1153.34        2957.25           1319          49.00       186.14
 1153.37        2957.50           1322          48.00       181.78
 1153.40        2957.75           1326          45.00       168.70
 1153.43        2958.00           1329          43.00       159.98
 1153.46        2958.25           1332          49.00       186.14
 1153.49        2958.50           1336          50.00       190.50
 1153.52        2958.75           1339          47.00       177.42
 1153.55        2959.00           1342          48.00       181.78
 1153.58        2959.25           1346          48.00       181.78
 1153.61        2959.50           1349          56.00       216.65
 1153.64        2959.75           1352          73.00       290.76
 1153.67        2960.00           1356          91.00       369.23
 1153.70        2960.25           1359         131.00       543.60
 1153.74        2960.50           1362         167.00       700.54
 1153.77        2960.75           1366         226.00       957.74
 1153.80        2961.00           1369         271.00      1153.92
 1153.83        2961.25           1372         302.00      1289.06
 1153.86        2961.50           1376         395.00      1694.51
 1153.89        2961.75           1379         560.00      2413.86
 1153.92        2962.00           1382        1067.00      4624.44
 1153.95        2962.25           1386        2606.00     11336.46
 1153.98        2962.50           1389        4066.00     17706.44
 1154.01        2962.75           1392        5745.00     25034.93
 1154.04        2963.00           1396        7873.00     34327.84
 1154.07        2963.25           1399        9501.00     41440.76
 1154.11        2963.50           1402       11328.00     49426.77
 1154.14        2963.75           1406       13516.00     58995.78
 1154.17        2964.00           1409       15052.00     65716.62
 1154.20        2964.25           1412       16749.00     73145.08
 1154.23        2964.50           1416       18965.00     82850.40
 1154.26        2964.75           1419       20679.00     90361.02
 1154.29        2965.00           1422       22466.00     98195.12
 1154.32        2965.25           1426       24613.00    107612.30
 1154.35        2965.50           1429       26337.00    115178.00
 1154.39        2965.75           1432       28007.00    122510.00
 1154.42        2966.00           1436       30277.00    132481.50
 1154.45        2966.25           1439       31966.00    139904.60
 1154.48        2966.50           1442       33389.00    146161.30
 1154.51        2966.75           1446       34919.00    152891.10
 1154.54        2967.00           1449       35458.00    155262.50
 1154.57        2967.25           1452       35534.00    155596.90
 1154.60        2967.50           1456       35566.00    155737.70
 1154.63        2967.75           1459       35431.00    155143.70
 1154.67        2968.00           1462       35716.00    156397.70
 1154.70        2968.25           1466       34895.00    152785.50
 1154.73        2968.50           1469       33412.00    146262.40
 1154.76        2968.75           1472       31988.00    140001.40
 1154.79        2969.00           1476       29742.00    130130.80
 1154.82        2969.25           1479       28279.00    123704.50
 1154.85        2969.50           1482       26303.00    115028.80
 1154.88        2969.75           1486       24129.00    105488.90
 1154.92        2970.00           1489       22528.00     98466.99
 1154.95        2970.25           1492       20887.00     91272.68
 1154.98        2970.50           1496       18898.00     82556.88
 1155.01        2970.75           1499       17268.00     75417.61
 1155.04        2971.00           1502       15710.00     68596.56
 1155.07        2971.25           1506       13623.00     59463.88
 1155.10        2971.50           1509       12003.00     52378.24
 1155.13        2971.75           1513        9668.00     42170.58
 1155.16        2972.00           1516        7982.00     34803.98
 1155.19        2972.25           1519        6361.00     27724.45
 1155.23        2972.50           1523        4278.00     18631.60
 1155.26        2972.75           1526        2696.00     11729.06
 1155.29        2973.00           1529        1437.00      6237.87
 1155.32        2973.25           1533         516.00      2222.03
 1155.35        2973.50           1536         347.00      1485.25
 1155.38        2973.75           1539         287.00      1223.67
 1155.41        2974.00           1543         259.00      1101.61
 1155.44        2974.25           1546         188.00       792.09
 1155.47        2974.50           1549         127.00       526.16
 1155.50        2974.75           1553          80.00       321.28
 1155.53        2975.00           1556          60.00       234.09
 1155.56        2975.25           1559          58.00       225.37
 1155.59        2975.50           1563          46.00       173.06
 1155.63        2975.75           1566          52.00       199.22
 1155.66        2976.00           1569          49.00       186.14
 1155.69        2976.25           1573          48.00       181.78
 1155.72        2976.50           1576          56.00       216.65
 1155.75        2976.75           1579          47.00       177.42
 1155.78        2977.00           1583          44.00       164.34
 1155.81        2977.25           1586          45.00       168.70
 1155.84        2977.50           1590          48.00       181.78
 1155.87        2977.75           1593          48.00       181.78
 1155.90        2978.00           1596          48.00       181.78
 1155.93        2978.25           1600          53.00       203.58
 1155.96        2978.50           1603          43.00       159.98
 1155.99        2978.75           1606          45.00       168.70
 1156.02        2979.00           1610          48.00       181.78
 1156.05        2979.25           1613          47.00       177.42
 1156.08        2979.50           1616          45.00       168.70
 1156.11        2979.75           1620          53.00       203.58
 1156.14        2980.00           1623          40.00       146.91
 1156.18        2980.25           1626          51.00       194.86
 1156.21        2980.50           1630          38.00       138.19
 1156.24        2980.75           1633          42.00       155.62
 1156.27        2981.00           1637          47.00       177.42
 1156.30        2981.25           1640          42.00       155.62
 1156.33        2981.50           1643          46.00       173.06
 1156.36        2981.75           1647          42.00       155.62
 1156.39        2982.00           1650          50.00       190.50
 1156.42        2982.25           1653          45.00       168.70
 1156.45        2982.50           1657          51.00       194.86
 1156.48        2982.75           1660          49.00       186.14
 1156.51        2983.00           1663          47.00       177.42
 1156.55        2983.25           1667          39.00       142.55
 1156.58        2983.50           1670          46.00       173.06
 1156.61        2983.75           1673          51.00       194.86
 1156.64        2984.00           1677          46.00       173.06
HS scan finished at 19:16:51
end
