************************************************************
  HS Scan of (1) Internal mercury lamp
************************************************************
Integration time is 0.2294 seconds per sample
dh110317Manchester 53.47 2.23 2.804185pr1000
************************************************************
Dead Time -------------------------  3E-08 
Number of Cycles Used -------------  4 
Starting Wavelength (Angstroms) ---  2950 
Final Wavelength (Angstoms) -------  2984 
Wavelength Increment (Angstroms) --  .25 
Filter Wheel #1 Position ---------- (1) Ground quartz diffuser (ND=2.32)
Filter Wheel #2 Position ---------- (1) Neutral Density 0.494



************************************************************
HS scan start time = 03:36:10
Dark Count =  5.1 


Time (GMT)  Wavelength (Ang)  Step Number  Raw Counts  Counts/Second

  216.54        2950.00           1222          54.00       213.17
  216.61        2950.25           1226          39.00       147.78
  216.64        2950.50           1229          41.00       156.50
  216.67        2950.75           1232          45.00       173.93
  216.70        2951.00           1236          51.00       200.09
  216.73        2951.25           1239          45.00       173.93
  216.76        2951.50           1242          41.00       156.50
  216.79        2951.75           1246          44.00       169.57
  216.82        2952.00           1249          45.00       173.93
  216.85        2952.25           1252          46.00       178.29
  216.89        2952.50           1256          54.00       213.17
  216.92        2952.75           1259          44.00       169.57
  216.95        2953.00           1262          44.00       169.57
  216.98        2953.25           1266          43.00       165.21
  217.01        2953.50           1269          45.00       173.93
  217.04        2953.75           1272          46.00       178.29
  217.07        2954.00           1276          43.00       165.21
  217.10        2954.25           1279          50.00       195.73
  217.13        2954.50           1282          50.00       195.73
  217.16        2954.75           1286          45.00       173.93
  217.20        2955.00           1289          38.00       143.42
  217.23        2955.25           1292          43.00       165.21
  217.26        2955.50           1296          45.00       173.93
  217.29        2955.75           1299          46.00       178.29
  217.32        2956.00           1302          42.00       160.86
  217.35        2956.25           1306          48.00       187.01
  217.38        2956.50           1309          50.00       195.73
  217.41        2956.75           1312          46.00       178.29
  217.44        2957.00           1316          45.00       173.93
  217.47        2957.25           1319          44.00       169.57
  217.50        2957.50           1322          48.00       187.01
  217.53        2957.75           1326          54.00       213.17
  217.56        2958.00           1329          43.00       165.21
  217.60        2958.25           1332          44.00       169.57
  217.63        2958.50           1336          49.00       191.37
  217.66        2958.75           1339          49.00       191.37
  217.69        2959.00           1342          48.00       187.01
  217.72        2959.25           1346          56.00       221.88
  217.75        2959.50           1349          55.00       217.53
  217.78        2959.75           1352          71.00       287.27
  217.81        2960.00           1356         107.00       444.21
  217.84        2960.25           1359         143.00       601.14
  217.87        2960.50           1362         189.00       801.68
  217.91        2960.75           1366         242.00      1032.73
  217.94        2961.00           1369         293.00      1255.06
  217.97        2961.25           1372         333.00      1429.44
  218.00        2961.50           1376         403.00      1734.62
  218.03        2961.75           1379         466.00      2009.28
  218.06        2962.00           1382         781.00      3382.64
  218.09        2962.25           1386        1877.00      8161.98
  218.12        2962.50           1389        3385.00     14740.17
  218.15        2962.75           1392        4962.00     21622.13
  218.18        2963.00           1396        7181.00     31310.57
  218.21        2963.25           1399        8782.00     38304.24
  218.25        2963.50           1402       10486.00     45751.08
  218.28        2963.75           1406       12858.00     56122.76
  218.31        2964.00           1409       14565.00     63590.69
  218.34        2964.25           1412       16366.00     71473.50
  218.37        2964.50           1416       18700.00     81694.75
  218.40        2964.75           1419       20362.00     88976.96
  218.43        2965.00           1422       21944.00     95911.59
  218.46        2965.25           1426       24328.00    106367.20
  218.49        2965.50           1429       26005.00    113726.10
  218.53        2965.75           1432       27618.00    120807.10
  218.56        2966.00           1436       29718.00    130030.70
  218.59        2966.25           1439       31212.00    136595.70
  218.62        2966.50           1442       32999.00    144451.60
  218.65        2966.75           1446       34842.00    152557.60
  218.68        2967.00           1449       35815.00    156838.70
  218.71        2967.25           1452       35937.00    157375.50
  218.74        2967.50           1456       36049.00    157868.40
  218.77        2967.75           1459       35991.00    157613.20
  218.80        2968.00           1462       36028.00    157776.00
  218.83        2968.25           1466       35612.00    155945.40
  218.86        2968.50           1469       34495.00    151031.10
  218.89        2968.75           1472       33250.00    145555.30
  218.93        2969.00           1476       30987.00    135606.80
  218.96        2969.25           1479       29232.00    127895.60
  218.99        2969.50           1482       27653.00    120960.80
  219.02        2969.75           1486       25443.00    111259.60
  219.05        2970.00           1489       23735.00    103765.90
  219.08        2970.25           1492       22308.00     97507.58
  219.11        2970.50           1496       19892.00     86917.28
  219.14        2970.75           1499       18326.00     80056.47
  219.18        2971.00           1502       16658.00     72751.91
  219.21        2971.25           1506       14500.00     63306.26
  219.24        2971.50           1509       12728.00     55554.15
  219.27        2971.75           1513       10637.00     46411.14
  219.30        2972.00           1516        9005.00     39278.61
  219.33        2972.25           1519        7363.00     32105.45
  219.36        2972.50           1523        5120.00     22311.79
  219.39        2972.75           1526        3641.00     15857.15
  219.42        2973.00           1529        2085.00      9069.16
  219.45        2973.25           1533         711.00      3077.44
  219.48        2973.50           1536         378.00      1625.62
  219.52        2973.75           1539         277.00      1185.31
  219.55        2974.00           1543         240.00      1024.01
  219.58        2974.25           1546         164.00       692.69
  219.61        2974.50           1549         143.00       601.14
  219.64        2974.75           1553          81.00       330.87
  219.67        2975.00           1556          70.00       282.91
  219.70        2975.25           1559          53.00       208.81
  219.73        2975.50           1563          52.00       204.45
  219.76        2975.75           1566          44.00       169.57
  219.79        2976.00           1569          49.00       191.37
  219.82        2976.25           1573          43.00       165.21
  219.85        2976.50           1576          48.00       187.01
  219.88        2976.75           1579          44.00       169.57
  219.91        2977.00           1583          41.00       156.50
  219.94        2977.25           1586          49.00       191.37
  219.98        2977.50           1590          54.00       213.17
  220.01        2977.75           1593          45.00       173.93
  220.04        2978.00           1596          47.00       182.65
  220.07        2978.25           1600          50.00       195.73
  220.10        2978.50           1603          45.00       173.93
  220.13        2978.75           1606          39.00       147.78
  220.16        2979.00           1610          47.00       182.65
  220.19        2979.25           1613          43.00       165.21
  220.22        2979.50           1616          47.00       182.65
  220.25        2979.75           1620          46.00       178.29
  220.28        2980.00           1623          47.00       182.65
  220.31        2980.25           1626          37.00       139.06
  220.34        2980.50           1630          36.00       134.70
  220.38        2980.75           1633          61.00       243.68
  220.41        2981.00           1637          58.00       230.60
  220.44        2981.25           1640          44.00       169.57
  220.47        2981.50           1643          45.00       173.93
  220.50        2981.75           1647          43.00       165.21
  220.53        2982.00           1650          50.00       195.73
  220.56        2982.25           1653          60.00       239.32
  220.59        2982.50           1657          41.00       156.50
  220.62        2982.75           1660          45.00       173.93
  220.65        2983.00           1663          44.00       169.57
  220.68        2983.25           1667          39.00       147.78
  220.71        2983.50           1670          42.00       160.86
  220.75        2983.75           1673          36.00       134.70
  220.78        2984.00           1677          44.00       169.57
HS scan finished at 03:41:00
end
************************************************************
  HS Scan of (1) Internal mercury lamp
************************************************************
Integration time is 0.2294 seconds per sample
dh110317Manchester 53.47 2.23 2.804185pr1000
************************************************************
Dead Time -------------------------  3E-08 
Number of Cycles Used -------------  4 
Starting Wavelength (Angstroms) ---  2950 
Final Wavelength (Angstoms) -------  2984 
Wavelength Increment (Angstroms) --  .25 
Filter Wheel #1 Position ---------- (1) Ground quartz diffuser (ND=2.32)
Filter Wheel #2 Position ---------- (1) Neutral Density 0.494



************************************************************
HS scan start time = 19:12:02
Dark Count =  6 


Time (GMT)  Wavelength (Ang)  Step Number  Raw Counts  Counts/Second

 1152.40        2950.00           1222          48.00       183.09
 1152.47        2950.25           1226          48.00       183.09
 1152.50        2950.50           1229          40.00       148.21
 1152.53        2950.75           1232          49.00       187.45
 1152.56        2951.00           1236          46.00       174.37
 1152.59        2951.25           1239          49.00       187.45
 1152.62        2951.50           1242          52.00       200.52
 1152.65        2951.75           1246          48.00       183.09
 1152.68        2952.00           1249          50.00       191.81
 1152.71        2952.25           1252          47.00       178.73
 1152.74        2952.50           1256          44.00       165.65
 1152.77        2952.75           1259          53.00       204.88
 1152.81        2953.00           1262          48.00       183.09
 1152.84        2953.25           1266          42.00       156.93
 1152.87        2953.50           1269          48.00       183.09
 1152.90        2953.75           1272          45.00       170.01
 1152.93        2954.00           1276          43.00       161.29
 1152.96        2954.25           1279          49.00       187.45
 1152.99        2954.50           1282          54.00       209.24
 1153.02        2954.75           1286          47.00       178.73
 1153.05        2955.00           1289          43.00       161.29
 1153.08        2955.25           1292          45.00       170.01
 1153.11        2955.50           1296          42.00       156.93
 1153.15        2955.75           1299          40.00       148.21
 1153.18        2956.00           1302          43.00       161.29
 1153.21        2956.25           1306          45.00       170.01
 1153.24        2956.50           1309          42.00       156.93
 1153.27        2956.75           1312          48.00       183.09
 1153.30        2957.00           1316          46.00       174.37
 1153.33        2957.25           1319          45.00       170.01
 1153.36        2957.50           1322          57.00       222.32
 1153.39        2957.75           1326          53.00       204.88
 1153.42        2958.00           1329          45.00       170.01
 1153.45        2958.25           1332          51.00       196.17
 1153.49        2958.50           1336          47.00       178.73
 1153.52        2958.75           1339          51.00       196.17
 1153.55        2959.00           1342          47.00       178.73
 1153.58        2959.25           1346          55.00       213.60
 1153.61        2959.50           1349          56.00       217.96
 1153.64        2959.75           1352          81.00       326.94
 1153.67        2960.00           1356         110.00       453.36
 1153.70        2960.25           1359         150.00       627.74
 1153.73        2960.50           1362         188.00       793.39
 1153.76        2960.75           1366         259.00      1102.91
 1153.79        2961.00           1369         290.00      1238.06
 1153.82        2961.25           1372         341.00      1460.40
 1153.85        2961.50           1376         401.00      1721.97
 1153.89        2961.75           1379         619.00      2672.40
 1153.92        2962.00           1382        1166.00      5057.44
 1153.95        2962.25           1386        2783.00     12109.89
 1153.98        2962.50           1389        4438.00     19331.17
 1154.01        2962.75           1392        5969.00     26014.19
 1154.04        2963.00           1396        8145.00     35517.34
 1154.07        2963.25           1399        9858.00     43002.26
 1154.10        2963.50           1402       11536.00     50337.51
 1154.13        2963.75           1406       13735.00     59955.17
 1154.17        2964.00           1409       15544.00     67871.28
 1154.20        2964.25           1412       17019.00     74328.60
 1154.23        2964.50           1416       19419.00     84840.78
 1154.26        2964.75           1419       21022.00     91865.74
 1154.29        2965.00           1422       22641.00     98963.82
 1154.32        2965.25           1426       24949.00    109087.90
 1154.35        2965.50           1429       26648.00    116544.50
 1154.38        2965.75           1432       28209.00    123398.40
 1154.41        2966.00           1436       30541.00    133642.90
 1154.44        2966.25           1439       32201.00    140939.00
 1154.47        2966.50           1442       33527.00    146769.50
 1154.51        2966.75           1446       35156.00    153935.10
 1154.54        2967.00           1449       35705.00    156350.70
 1154.57        2967.25           1452       35816.00    156839.10
 1154.60        2967.50           1456       35850.00    156988.70
 1154.63        2967.75           1459       35649.00    156104.20
 1154.66        2968.00           1462       35329.00    154696.20
 1154.69        2968.25           1466       34592.00    151453.80
 1154.72        2968.50           1469       33104.00    144909.30
 1154.75        2968.75           1472       31680.00    138648.80
 1154.79        2969.00           1476       29384.00    128559.40
 1154.82        2969.25           1479       27780.00    121514.50
 1154.85        2969.50           1482       26107.00    114169.80
 1154.88        2969.75           1486       23932.00    104626.10
 1154.91        2970.00           1489       22261.00     97297.54
 1154.94        2970.25           1492       20776.00     90787.48
 1154.97        2970.50           1496       18657.00     81502.44
 1155.00        2970.75           1499       17110.00     74727.06
 1155.03        2971.00           1502       15442.00     67424.82
 1155.07        2971.25           1506       13258.00     57868.48
 1155.10        2971.50           1509       11495.00     50158.24
 1155.13        2971.75           1513        9253.00     40358.34
 1155.16        2972.00           1516        7692.00     33538.52
 1155.19        2972.25           1519        5938.00     25878.85
 1155.22        2972.50           1523        3853.00     16778.28
 1155.25        2972.75           1526        2349.00     10216.73
 1155.28        2973.00           1529        1051.00      4555.99
 1155.31        2973.25           1533         411.00      1765.57
 1155.34        2973.50           1536         322.00      1377.56
 1155.37        2973.75           1539         269.00      1146.51
 1155.40        2974.00           1543         215.00       911.10
 1155.44        2974.25           1546         153.00       640.81
 1155.47        2974.50           1549         117.00       483.88
 1155.50        2974.75           1553          70.00       278.99
 1155.53        2975.00           1556          56.00       217.96
 1155.56        2975.25           1559          50.00       191.81
 1155.59        2975.50           1563          49.00       187.45
 1155.62        2975.75           1566          50.00       191.81
 1155.65        2976.00           1569          46.00       174.37
 1155.68        2976.25           1573          49.00       187.45
 1155.71        2976.50           1576          51.00       196.17
 1155.75        2976.75           1579          47.00       178.73
 1155.78        2977.00           1583          43.00       161.29
 1155.81        2977.25           1586          44.00       165.65
 1155.84        2977.50           1590          34.00       122.06
 1155.87        2977.75           1593          51.00       196.17
 1155.90        2978.00           1596          43.00       161.29
 1155.93        2978.25           1600          47.00       178.73
 1155.96        2978.50           1603          41.00       152.57
 1155.99        2978.75           1606          51.00       196.17
 1156.02        2979.00           1610          47.00       178.73
 1156.05        2979.25           1613          40.00       148.21
 1156.08        2979.50           1616          42.00       156.93
 1156.11        2979.75           1620          60.00       235.40
 1156.14        2980.00           1623          45.00       170.01
 1156.18        2980.25           1626          43.00       161.29
 1156.21        2980.50           1630          44.00       165.65
 1156.24        2980.75           1633          42.00       156.93
 1156.27        2981.00           1637          43.00       161.29
 1156.30        2981.25           1640          56.00       217.96
 1156.33        2981.50           1643          57.00       222.32
 1156.36        2981.75           1647          48.00       183.09
 1156.39        2982.00           1650          53.00       204.88
 1156.42        2982.25           1653          41.00       152.57
 1156.45        2982.50           1657          46.00       174.37
 1156.48        2982.75           1660          45.00       170.01
 1156.51        2983.00           1663          44.00       165.65
 1156.54        2983.25           1667          48.00       183.09
 1156.58        2983.50           1670          40.00       148.21
 1156.61        2983.75           1673          47.00       178.73
 1156.64        2984.00           1677          41.00       152.57
HS scan finished at 19:16:51
end
