************************************************************
  HS Scan of (1) Internal mercury lamp
************************************************************
Integration time is 0.2294 seconds per sample
dh130318Manchester 53.47 2.23 2.804185pr1000
************************************************************
Dead Time -------------------------  3E-08 
Number of Cycles Used -------------  4 
Starting Wavelength (Angstroms) ---  2950 
Final Wavelength (Angstoms) -------  2984 
Wavelength Increment (Angstroms) --  .25 
Filter Wheel #1 Position ---------- (1) Ground quartz diffuser (ND=2.32)
Filter Wheel #2 Position ---------- (1) Neutral Density 0.494



************************************************************
HS scan start time = 03:30:06
Dark Count =  6.2 


Time (GMT)  Wavelength (Ang)  Step Number  Raw Counts  Counts/Second

  210.48        2950.00           1222          67.00       265.04
  210.54        2950.25           1226          63.00       247.60
  210.58        2950.50           1229          63.00       247.60
  210.61        2950.75           1232          54.00       208.37
  210.64        2951.00           1236          60.00       234.53
  210.67        2951.25           1239          57.00       221.45
  210.70        2951.50           1242          55.00       212.73
  210.73        2951.75           1246          59.00       230.17
  210.76        2952.00           1249          55.00       212.73
  210.79        2952.25           1252          61.00       238.89
  210.82        2952.50           1256          62.00       243.25
  210.85        2952.75           1259          56.00       217.09
  210.88        2953.00           1262          63.00       247.60
  210.91        2953.25           1266          58.00       225.81
  210.94        2953.50           1269          64.00       251.96
  210.98        2953.75           1272          56.00       217.09
  211.01        2954.00           1276          53.00       204.01
  211.04        2954.25           1279          69.00       273.76
  211.07        2954.50           1282          58.00       225.81
  211.10        2954.75           1286          63.00       247.60
  211.13        2955.00           1289          53.00       204.01
  211.16        2955.25           1292          58.00       225.81
  211.19        2955.50           1296          69.00       273.76
  211.22        2955.75           1299          52.00       199.65
  211.25        2956.00           1302          62.00       243.25
  211.29        2956.25           1306          66.00       260.68
  211.32        2956.50           1309          58.00       225.81
  211.35        2956.75           1312          60.00       234.53
  211.38        2957.00           1316          60.00       234.53
  211.41        2957.25           1319          60.00       234.53
  211.44        2957.50           1322          55.00       212.73
  211.47        2957.75           1326          58.00       225.81
  211.50        2958.00           1329          59.00       230.17
  211.53        2958.25           1332          58.00       225.81
  211.56        2958.50           1336          63.00       247.60
  211.59        2958.75           1339          57.00       221.45
  211.62        2959.00           1342          58.00       225.81
  211.65        2959.25           1346          63.00       247.60
  211.69        2959.50           1349          60.00       234.53
  211.72        2959.75           1352          76.00       304.27
  211.75        2960.00           1356         102.00       417.62
  211.78        2960.25           1359         124.00       513.52
  211.81        2960.50           1362         168.00       705.33
  211.84        2960.75           1366         223.00       945.10
  211.87        2961.00           1369         261.00      1110.76
  211.90        2961.25           1372         291.00      1241.55
  211.93        2961.50           1376         359.00      1538.00
  211.96        2961.75           1379         506.00      2178.87
  211.99        2962.00           1382        1067.00      4624.88
  212.03        2962.25           1386        2703.00     11760.03
  212.06        2962.50           1389        4112.00     17907.61
  212.09        2962.75           1392        5538.00     24131.68
  212.12        2963.00           1396        7454.00     32498.10
  212.15        2963.25           1399        8954.00     39050.95
  212.18        2963.50           1402       10506.00     45833.69
  212.21        2963.75           1406       12377.00     54014.22
  212.24        2964.00           1409       14038.00     61279.95
  212.27        2964.25           1412       15495.00     67655.93
  212.30        2964.50           1416       17696.00     77292.36
  212.34        2964.75           1419       19153.00     83674.48
  212.37        2965.00           1422       20531.00     89712.80
  212.40        2965.25           1426       22628.00     98905.94
  212.43        2965.50           1429       23933.00    104629.60
  212.46        2965.75           1432       25391.00    111026.60
  212.49        2966.00           1436       27389.00    119796.80
  212.52        2966.25           1439       28686.00    125492.50
  212.55        2966.50           1442       30028.00    131387.90
  212.58        2966.75           1446       31542.00    138041.30
  212.61        2967.00           1449       32127.00    140612.90
  212.65        2967.25           1452       32028.00    140177.60
  212.68        2967.50           1456       32154.00    140731.50
  212.71        2967.75           1459       31921.00    139707.30
  212.74        2968.00           1462       32057.00    140305.10
  212.77        2968.25           1466       31003.00    135672.30
  212.80        2968.50           1469       29778.00    130289.50
  212.83        2968.75           1472       28411.00    124284.70
  212.86        2969.00           1476       26698.00    116763.10
  212.89        2969.25           1479       25031.00    109446.80
  212.93        2969.50           1482       23745.00    103804.90
  212.96        2969.75           1486       21607.00     94429.31
  212.99        2970.00           1489       20156.00     88069.35
  213.02        2970.25           1492       18812.00     82180.57
  213.05        2970.50           1496       16557.00     72304.90
  213.08        2970.75           1499       15266.00     66653.65
  213.11        2971.00           1502       13760.00     60063.67
  213.14        2971.25           1506       11721.00     51145.55
  213.17        2971.50           1509       10251.00     44719.06
  213.20        2971.75           1513        8448.00     36840.17
  213.24        2972.00           1516        6911.00     30126.61
  213.27        2972.25           1519        5353.00     23324.08
  213.30        2972.50           1523        3418.00     14879.35
  213.33        2972.75           1526        2105.00      9151.60
  213.36        2973.00           1529         890.00      3853.10
  213.39        2973.25           1533         436.00      1873.69
  213.42        2973.50           1536         306.00      1306.94
  213.45        2973.75           1539         272.00      1158.72
  213.48        2974.00           1543         222.00       940.74
  213.52        2974.25           1546         166.00       696.61
  213.55        2974.50           1549         117.00       483.01
  213.58        2974.75           1553          85.00       343.51
  213.61        2975.00           1556          78.00       312.99
  213.64        2975.25           1559          61.00       238.89
  213.67        2975.50           1563          60.00       234.53
  213.70        2975.75           1566          56.00       217.09
  213.73        2976.00           1569          51.00       195.29
  213.76        2976.25           1573          54.00       208.37
  213.79        2976.50           1576          58.00       225.81
  213.83        2976.75           1579          53.00       204.01
  213.86        2977.00           1583          63.00       247.60
  213.89        2977.25           1586          58.00       225.81
  213.92        2977.50           1590          57.00       221.45
  213.95        2977.75           1593          61.00       238.89
  213.98        2978.00           1596          47.00       177.86
  214.01        2978.25           1600          54.00       208.37
  214.04        2978.50           1603          53.00       204.01
  214.07        2978.75           1606          52.00       199.65
  214.10        2979.00           1610          59.00       230.17
  214.13        2979.25           1613          55.00       212.73
  214.16        2979.50           1616          56.00       217.09
  214.20        2979.75           1620          50.00       190.93
  214.23        2980.00           1623          53.00       204.01
  214.26        2980.25           1626          53.00       204.01
  214.29        2980.50           1630          55.00       212.73
  214.32        2980.75           1633          52.00       199.65
  214.35        2981.00           1637          55.00       212.73
  214.38        2981.25           1640          55.00       212.73
  214.41        2981.50           1643          59.00       230.17
  214.45        2981.75           1647          52.00       199.65
  214.48        2982.00           1650          52.00       199.65
  214.51        2982.25           1653          44.00       164.78
  214.54        2982.50           1657          57.00       221.45
  214.57        2982.75           1660          56.00       217.09
  214.60        2983.00           1663          55.00       212.73
  214.63        2983.25           1667          47.00       177.86
  214.66        2983.50           1670          51.00       195.29
  214.69        2983.75           1673          57.00       221.45
  214.72        2984.00           1677          46.00       173.50
HS scan finished at 03:34:56
end
************************************************************
  HS Scan of (1) Internal mercury lamp
************************************************************
Integration time is 0.2294 seconds per sample
dh130318Manchester 53.47 2.23 2.804185pr1000
************************************************************
Dead Time -------------------------  3E-08 
Number of Cycles Used -------------  4 
Starting Wavelength (Angstroms) ---  2950 
Final Wavelength (Angstoms) -------  2984 
Wavelength Increment (Angstroms) --  .25 
Filter Wheel #1 Position ---------- (1) Ground quartz diffuser (ND=2.32)
Filter Wheel #2 Position ---------- (1) Neutral Density 0.494



************************************************************
HS scan start time = 19:12:03
Dark Count =  7 


Time (GMT)  Wavelength (Ang)  Step Number  Raw Counts  Counts/Second

 1152.42        2950.00           1222          72.00       283.35
 1152.49        2950.25           1226          60.00       231.04
 1152.52        2950.50           1229          59.00       226.68
 1152.55        2950.75           1232          61.00       235.40
 1152.58        2951.00           1236          57.00       217.96
 1152.61        2951.25           1239          62.00       239.76
 1152.64        2951.50           1242          63.00       244.12
 1152.67        2951.75           1246          61.00       235.40
 1152.70        2952.00           1249          63.00       244.12
 1152.73        2952.25           1252          53.00       200.52
 1152.76        2952.50           1256          67.00       261.55
 1152.79        2952.75           1259          58.00       222.32
 1152.82        2953.00           1262          58.00       222.32
 1152.85        2953.25           1266          63.00       244.12
 1152.89        2953.50           1269          61.00       235.40
 1152.92        2953.75           1272          57.00       217.96
 1152.95        2954.00           1276          63.00       244.12
 1152.98        2954.25           1279          52.00       196.17
 1153.01        2954.50           1282          62.00       239.76
 1153.04        2954.75           1286          64.00       248.48
 1153.07        2955.00           1289          56.00       213.60
 1153.10        2955.25           1292          59.00       226.68
 1153.13        2955.50           1296          61.00       235.40
 1153.16        2955.75           1299          59.00       226.68
 1153.19        2956.00           1302          66.00       257.19
 1153.22        2956.25           1306          57.00       217.96
 1153.25        2956.50           1309          55.00       209.24
 1153.28        2956.75           1312          68.00       265.91
 1153.32        2957.00           1316          60.00       231.04
 1153.35        2957.25           1319          58.00       222.32
 1153.38        2957.50           1322          53.00       200.52
 1153.41        2957.75           1326          63.00       244.12
 1153.44        2958.00           1329          59.00       226.68
 1153.47        2958.25           1332          59.00       226.68
 1153.50        2958.50           1336          56.00       213.60
 1153.53        2958.75           1339          66.00       257.19
 1153.56        2959.00           1342          70.00       274.63
 1153.59        2959.25           1346          56.00       213.60
 1153.62        2959.50           1349          75.00       296.43
 1153.65        2959.75           1352          76.00       300.79
 1153.69        2960.00           1356         110.00       449.00
 1153.72        2960.25           1359         141.00       584.14
 1153.75        2960.50           1362         178.00       745.44
 1153.78        2960.75           1366         222.00       937.25
 1153.81        2961.00           1369         268.00      1137.79
 1153.84        2961.25           1372         301.00      1281.65
 1153.87        2961.50           1376         371.00      1586.82
 1153.90        2961.75           1379         493.00      2118.70
 1153.93        2962.00           1382         995.00      4307.44
 1153.96        2962.25           1386        2653.00     11538.43
 1154.00        2962.50           1389        4111.00     17899.76
 1154.03        2962.75           1392        5515.00     24027.78
 1154.06        2963.00           1396        7398.00     32250.02
 1154.09        2963.25           1399        8878.00     38715.39
 1154.12        2963.50           1402       10576.00     46136.18
 1154.15        2963.75           1406       12440.00     54286.25
 1154.18        2964.00           1409       13950.00     60891.43
 1154.21        2964.25           1412       15374.00     67122.83
 1154.24        2964.50           1416       17400.00     75992.58
 1154.28        2964.75           1419       18934.00     82711.53
 1154.31        2965.00           1422       20467.00     89428.81
 1154.34        2965.25           1426       22556.00     98586.71
 1154.37        2965.50           1429       23964.00    104762.10
 1154.40        2965.75           1432       25412.00    111115.20
 1154.43        2966.00           1436       27494.00    120254.30
 1154.46        2966.25           1439       28758.00    125805.20
 1154.49        2966.50           1442       29925.00    130931.80
 1154.52        2966.75           1446       31552.00    138081.70
 1154.55        2967.00           1449       31871.00    139483.90
 1154.58        2967.25           1452       31960.00    139875.20
 1154.62        2967.50           1456       31823.00    139272.90
 1154.65        2967.75           1459       31930.00    139743.30
 1154.68        2968.00           1462       31902.00    139620.20
 1154.71        2968.25           1466       30643.00    134086.70
 1154.74        2968.50           1469       29261.00    128014.70
 1154.77        2968.75           1472       28060.00    122739.70
 1154.80        2969.00           1476       26090.00    114090.80
 1154.83        2969.25           1479       24497.00    107100.30
 1154.86        2969.50           1482       23107.00    101003.10
 1154.90        2969.75           1486       21248.00     92852.02
 1154.93        2970.00           1489       19838.00     86672.33
 1154.96        2970.25           1492       18321.00     80026.25
 1154.99        2970.50           1496       16592.00     72454.62
 1155.02        2970.75           1499       15001.00     65490.36
 1155.05        2971.00           1502       13509.00     58962.09
 1155.08        2971.25           1506       11500.00     50175.74
 1155.11        2971.50           1509        9886.00     43120.26
 1155.14        2971.75           1513        7996.00     34862.08
 1155.18        2972.00           1516        6531.00     28463.70
 1155.21        2972.25           1519        5099.00     22211.84
 1155.24        2972.50           1523        3378.00     14701.34
 1155.27        2972.75           1526        2028.00      8812.27
 1155.30        2973.00           1529         862.00      3727.53
 1155.33        2973.25           1533         393.00      1682.74
 1155.36        2973.50           1536         300.00      1277.29
 1155.39        2973.75           1539         255.00      1081.12
 1155.42        2974.00           1543         225.00       950.33
 1155.45        2974.25           1546         163.00       680.05
 1155.48        2974.50           1549         132.00       544.91
 1155.51        2974.75           1553          87.00       348.74
 1155.54        2975.00           1556          77.00       305.15
 1155.58        2975.25           1559          64.00       248.48
 1155.61        2975.50           1563          56.00       213.60
 1155.64        2975.75           1566          63.00       244.12
 1155.67        2976.00           1569          67.00       261.55
 1155.70        2976.25           1573          55.00       209.24
 1155.73        2976.50           1576          60.00       231.04
 1155.76        2976.75           1579          57.00       217.96
 1155.79        2977.00           1583          49.00       183.09
 1155.82        2977.25           1586          58.00       222.32
 1155.85        2977.50           1590          59.00       226.68
 1155.88        2977.75           1593          60.00       231.04
 1155.91        2978.00           1596          60.00       231.04
 1155.94        2978.25           1600          48.00       178.73
 1155.97        2978.50           1603          54.00       204.88
 1156.00        2978.75           1606          59.00       226.68
 1156.04        2979.00           1610          55.00       209.24
 1156.07        2979.25           1613          64.00       248.48
 1156.10        2979.50           1616          57.00       217.96
 1156.13        2979.75           1620          55.00       209.24
 1156.16        2980.00           1623          54.00       204.88
 1156.19        2980.25           1626          60.00       231.04
 1156.22        2980.50           1630          61.00       235.40
 1156.25        2980.75           1633          51.00       191.81
 1156.28        2981.00           1637          51.00       191.81
 1156.31        2981.25           1640          63.00       244.12
 1156.34        2981.50           1643          54.00       204.88
 1156.37        2981.75           1647          51.00       191.81
 1156.41        2982.00           1650          51.00       191.81
 1156.44        2982.25           1653          50.00       187.45
 1156.47        2982.50           1657          48.00       178.73
 1156.50        2982.75           1660          57.00       217.96
 1156.53        2983.00           1663          53.00       200.52
 1156.56        2983.25           1667          53.00       200.52
 1156.59        2983.50           1670          50.00       187.45
 1156.62        2983.75           1673          54.00       204.88
 1156.65        2984.00           1677          60.00       231.04
HS scan finished at 19:16:52
end
