************************************************************
  HS Scan of (1) Internal mercury lamp
************************************************************
Integration time is 0.2294 seconds per sample
dh150318Manchester 53.47 2.23 2.804185pr1000
************************************************************
Dead Time -------------------------  3E-08 
Number of Cycles Used -------------  4 
Starting Wavelength (Angstroms) ---  2950 
Final Wavelength (Angstoms) -------  2984 
Wavelength Increment (Angstroms) --  .25 
Filter Wheel #1 Position ---------- (1) Ground quartz diffuser (ND=2.32)
Filter Wheel #2 Position ---------- (1) Neutral Density 0.494



************************************************************
HS scan start time = 03:22:58
Dark Count =  7.3 


Time (GMT)  Wavelength (Ang)  Step Number  Raw Counts  Counts/Second

  203.34        2950.00           1222          54.00       203.58
  203.40        2950.25           1226          64.00       247.17
  203.43        2950.50           1229          56.00       212.29
  203.46        2950.75           1232          60.00       229.73
  203.50        2951.00           1236          54.00       203.58
  203.53        2951.25           1239          57.00       216.65
  203.56        2951.50           1242          60.00       229.73
  203.59        2951.75           1246          61.00       234.09
  203.62        2952.00           1249          60.00       229.73
  203.65        2952.25           1252          62.00       238.45
  203.68        2952.50           1256          63.00       242.81
  203.71        2952.75           1259          67.00       260.25
  203.74        2953.00           1262          67.00       260.25
  203.77        2953.25           1266          53.00       199.22
  203.81        2953.50           1269          56.00       212.29
  203.84        2953.75           1272          62.00       238.45
  203.87        2954.00           1276          59.00       225.37
  203.90        2954.25           1279          52.00       194.86
  203.93        2954.50           1282          65.00       251.53
  203.96        2954.75           1286          50.00       186.14
  203.99        2955.00           1289          65.00       251.53
  204.02        2955.25           1292          59.00       225.37
  204.05        2955.50           1296          63.00       242.81
  204.08        2955.75           1299          52.00       194.86
  204.11        2956.00           1302          56.00       212.29
  204.14        2956.25           1306          54.00       203.58
  204.18        2956.50           1309          57.00       216.65
  204.21        2956.75           1312          58.00       221.01
  204.24        2957.00           1316          55.00       207.94
  204.27        2957.25           1319          63.00       242.81
  204.30        2957.50           1322          55.00       207.94
  204.33        2957.75           1326          48.00       177.42
  204.36        2958.00           1329          55.00       207.94
  204.39        2958.25           1332          61.00       234.09
  204.42        2958.50           1336          61.00       234.09
  204.45        2958.75           1339          64.00       247.17
  204.48        2959.00           1342          57.00       216.65
  204.52        2959.25           1346          61.00       234.09
  204.55        2959.50           1349          60.00       229.73
  204.58        2959.75           1352          69.00       268.96
  204.61        2960.00           1356          91.00       364.87
  204.64        2960.25           1359         118.00       482.57
  204.67        2960.50           1362         155.00       643.87
  204.70        2960.75           1366         193.00       809.52
  204.73        2961.00           1369         228.00       962.10
  204.76        2961.25           1372         281.00      1193.16
  204.79        2961.50           1376         372.00      1589.88
  204.82        2961.75           1379         583.00      2509.78
  204.86        2962.00           1382        1283.00      5561.96
  204.89        2962.25           1386        3027.00     13168.67
  204.92        2962.50           1389        4535.00     19748.84
  204.95        2962.75           1392        5966.00     25995.42
  204.98        2963.00           1396        7929.00     34568.10
  205.01        2963.25           1399        9438.00     41161.09
  205.04        2963.50           1402       10859.00     47371.99
  205.07        2963.75           1406       12762.00     55693.24
  205.10        2964.00           1409       14242.00     62167.72
  205.13        2964.25           1412       15890.00     69380.10
  205.17        2964.50           1416       17903.00     78194.11
  205.20        2964.75           1419       19454.00     84988.43
  205.23        2965.00           1422       21046.00     91965.24
  205.26        2965.25           1426       22944.00    100286.90
  205.29        2965.50           1429       24536.00    107270.10
  205.32        2965.75           1432       25883.00    113180.90
  205.35        2966.00           1436       27853.00    121829.40
  205.38        2966.25           1439       29459.00    128883.20
  205.41        2966.50           1442       30632.00    134037.00
  205.45        2966.75           1446       32044.00    140243.10
  205.48        2967.00           1449       32196.00    140911.40
  205.51        2967.25           1452       32293.00    141337.80
  205.54        2967.50           1456       32402.00    141817.00
  205.57        2967.75           1459       32232.00    141069.60
  205.60        2968.00           1462       31792.00    139135.40
  205.63        2968.25           1466       30916.00    135285.10
  205.66        2968.50           1469       29693.00    129911.20
  205.69        2968.75           1472       28385.00    124165.70
  205.72        2969.00           1476       26538.00    116055.90
  205.75        2969.25           1479       24941.00    109047.10
  205.79        2969.50           1482       23604.00    103181.60
  205.82        2969.75           1486       21688.00     94779.57
  205.85        2970.00           1489       20180.00     88169.69
  205.88        2970.25           1492       18651.00     81470.46
  205.91        2970.50           1496       16844.00     73556.65
  205.94        2970.75           1499       15242.00     66543.79
  205.97        2971.00           1502       13611.00     59407.01
  206.00        2971.25           1506       11651.00     50834.67
  206.03        2971.50           1509        9946.00     43381.18
  206.07        2971.75           1513        8045.00     35074.82
  206.10        2972.00           1516        6642.00     28947.10
  206.13        2972.25           1519        5284.00     23018.07
  206.16        2972.50           1523        3294.00     14333.54
  206.19        2972.75           1526        1885.00      8187.28
  206.22        2973.00           1529         842.00      3639.02
  206.25        2973.25           1533         420.00      1799.14
  206.28        2973.50           1536         327.00      1393.69
  206.31        2973.75           1539         288.00      1223.67
  206.34        2974.00           1543         234.00       988.26
  206.38        2974.25           1546         186.00       779.01
  206.41        2974.50           1549         139.00       574.12
  206.44        2974.75           1553          84.00       334.35
  206.47        2975.00           1556          65.00       251.53
  206.50        2975.25           1559          55.00       207.94
  206.53        2975.50           1563          59.00       225.37
  206.56        2975.75           1566          56.00       212.29
  206.59        2976.00           1569          54.00       203.58
  206.62        2976.25           1573          64.00       247.17
  206.65        2976.50           1576          55.00       207.94
  206.69        2976.75           1579          59.00       225.37
  206.72        2977.00           1583          57.00       216.65
  206.75        2977.25           1586          56.00       212.29
  206.78        2977.50           1590          52.00       194.86
  206.81        2977.75           1593          56.00       212.29
  206.84        2978.00           1596          56.00       212.29
  206.87        2978.25           1600          52.00       194.86
  206.90        2978.50           1603          56.00       212.29
  206.93        2978.75           1606          50.00       186.14
  206.96        2979.00           1610          53.00       199.22
  207.00        2979.25           1613          55.00       207.94
  207.03        2979.50           1616          55.00       207.94
  207.06        2979.75           1620          56.00       212.29
  207.09        2980.00           1623          56.00       212.29
  207.12        2980.25           1626          55.00       207.94
  207.15        2980.50           1630          65.00       251.53
  207.18        2980.75           1633          63.00       242.81
  207.21        2981.00           1637          57.00       216.65
  207.24        2981.25           1640          59.00       225.37
  207.27        2981.50           1643          54.00       203.58
  207.30        2981.75           1647          55.00       207.94
  207.34        2982.00           1650          52.00       194.86
  207.37        2982.25           1653          53.00       199.22
  207.40        2982.50           1657          58.00       221.01
  207.43        2982.75           1660          52.00       194.86
  207.46        2983.00           1663          51.00       190.50
  207.49        2983.25           1667          63.00       242.81
  207.52        2983.50           1670          51.00       190.50
  207.55        2983.75           1673          49.00       181.78
  207.58        2984.00           1677          59.00       225.37
HS scan finished at 03:27:48
end
************************************************************
  HS Scan of (1) Internal mercury lamp
************************************************************
Integration time is 0.2294 seconds per sample
dh150318Manchester 53.47 2.23 2.804185pr1000
************************************************************
Dead Time -------------------------  3E-08 
Number of Cycles Used -------------  4 
Starting Wavelength (Angstroms) ---  2950 
Final Wavelength (Angstoms) -------  2984 
Wavelength Increment (Angstroms) --  .25 
Filter Wheel #1 Position ---------- (1) Ground quartz diffuser (ND=2.32)
Filter Wheel #2 Position ---------- (1) Neutral Density 0.494



************************************************************
HS scan start time = 19:12:00
Dark Count =  7.3 


Time (GMT)  Wavelength (Ang)  Step Number  Raw Counts  Counts/Second

 1152.38        2950.00           1222          57.00       216.65
 1152.44        2950.25           1226          59.00       225.37
 1152.47        2950.50           1229          54.00       203.58
 1152.50        2950.75           1232          63.00       242.81
 1152.53        2951.00           1236          66.00       255.89
 1152.56        2951.25           1239          64.00       247.17
 1152.60        2951.50           1242          65.00       251.53
 1152.63        2951.75           1246          60.00       229.73
 1152.66        2952.00           1249          57.00       216.65
 1152.69        2952.25           1252          66.00       255.89
 1152.72        2952.50           1256          65.00       251.53
 1152.75        2952.75           1259          67.00       260.25
 1152.78        2953.00           1262          64.00       247.17
 1152.81        2953.25           1266          60.00       229.73
 1152.84        2953.50           1269          59.00       225.37
 1152.87        2953.75           1272          61.00       234.09
 1152.90        2954.00           1276          65.00       251.53
 1152.94        2954.25           1279          60.00       229.73
 1152.97        2954.50           1282          72.00       282.04
 1153.00        2954.75           1286          56.00       212.29
 1153.03        2955.00           1289          64.00       247.17
 1153.06        2955.25           1292          60.00       229.73
 1153.09        2955.50           1296          56.00       212.29
 1153.12        2955.75           1299          64.00       247.17
 1153.15        2956.00           1302          58.00       221.01
 1153.18        2956.25           1306          60.00       229.73
 1153.21        2956.50           1309          61.00       234.09
 1153.24        2956.75           1312          60.00       229.73
 1153.27        2957.00           1316          62.00       238.45
 1153.30        2957.25           1319          58.00       221.01
 1153.34        2957.50           1322          63.00       242.81
 1153.37        2957.75           1326          49.00       181.78
 1153.40        2958.00           1329          57.00       216.65
 1153.43        2958.25           1332          54.00       203.58
 1153.46        2958.50           1336          59.00       225.37
 1153.49        2958.75           1339          64.00       247.17
 1153.52        2959.00           1342          66.00       255.89
 1153.55        2959.25           1346          62.00       238.45
 1153.58        2959.50           1349          63.00       242.81
 1153.61        2959.75           1352          83.00       329.99
 1153.64        2960.00           1356         107.00       434.62
 1153.68        2960.25           1359         133.00       547.96
 1153.71        2960.50           1362         176.00       735.41
 1153.74        2960.75           1366         212.00       892.35
 1153.77        2961.00           1369         248.00      1049.29
 1153.80        2961.25           1372         298.00      1267.27
 1153.83        2961.50           1376         370.00      1581.16
 1153.86        2961.75           1379         527.00      2265.63
 1153.89        2962.00           1382        1186.00      5138.98
 1153.92        2962.25           1386        2809.00     12217.64
 1153.95        2962.50           1389        4274.00     18609.78
 1153.98        2962.75           1392        5766.00     25122.24
 1154.01        2963.00           1396        7684.00     33497.90
 1154.04        2963.25           1399        9256.00     40365.77
 1154.08        2963.50           1402       10752.00     46904.23
 1154.11        2963.75           1406       12675.00     55312.72
 1154.14        2964.00           1409       14242.00     62167.72
 1154.17        2964.25           1412       15701.00     68552.79
 1154.20        2964.50           1416       17712.00     77357.60
 1154.23        2964.75           1419       19472.00     85067.29
 1154.26        2965.00           1422       20799.00     90882.59
 1154.29        2965.25           1426       22860.00     99918.50
 1154.32        2965.50           1429       24141.00    105537.20
 1154.35        2965.75           1432       25621.00    112031.10
 1154.38        2966.00           1436       27558.00    120534.00
 1154.41        2966.25           1439       28939.00    126598.90
 1154.45        2966.50           1442       30267.00    132433.10
 1154.48        2966.75           1446       31653.00    138524.40
 1154.51        2967.00           1449       32185.00    140863.00
 1154.54        2967.25           1452       32135.00    140643.20
 1154.57        2967.50           1456       32177.00    140827.80
 1154.60        2967.75           1459       32238.00    141096.00
 1154.63        2968.00           1462       32076.00    140383.80
 1154.66        2968.25           1466       31068.00    135953.10
 1154.69        2968.50           1469       29711.00    129990.20
 1154.72        2968.75           1472       28235.00    123506.90
 1154.75        2969.00           1476       26574.00    116214.00
 1154.78        2969.25           1479       24903.00    108880.40
 1154.82        2969.50           1482       23688.00    103550.00
 1154.85        2969.75           1486       21670.00     94700.66
 1154.88        2970.00           1489       20168.00     88117.11
 1154.91        2970.25           1492       18751.00     81908.52
 1154.94        2970.50           1496       16810.00     73407.78
 1154.97        2970.75           1499       15150.00     66141.15
 1155.00        2971.00           1502       13650.00     59577.62
 1155.03        2971.25           1506       11550.00     50393.04
 1155.06        2971.50           1509       10122.00     44150.42
 1155.09        2971.75           1513        8275.00     36079.58
 1155.13        2972.00           1516        6832.00     29776.81
 1155.16        2972.25           1519        5273.00     22970.06
 1155.19        2972.50           1523        3419.00     14878.92
 1155.22        2972.75           1526        2041.00      8867.66
 1155.25        2973.00           1529         853.00      3686.98
 1155.28        2973.25           1533         416.00      1781.70
 1155.31        2973.50           1536         325.00      1384.97
 1155.34        2973.75           1539         269.00      1140.84
 1155.37        2974.00           1543         237.00      1001.34
 1155.40        2974.25           1546         179.00       748.49
 1155.43        2974.50           1549         140.00       578.48
 1155.46        2974.75           1553          99.00       399.74
 1155.50        2975.00           1556          76.00       299.48
 1155.53        2975.25           1559          60.00       229.73
 1155.56        2975.50           1563          61.00       234.09
 1155.59        2975.75           1566          63.00       242.81
 1155.62        2976.00           1569          57.00       216.65
 1155.65        2976.25           1573          57.00       216.65
 1155.68        2976.50           1576          57.00       216.65
 1155.71        2976.75           1579          54.00       203.58
 1155.74        2977.00           1583          57.00       216.65
 1155.77        2977.25           1586          67.00       260.25
 1155.80        2977.50           1590          55.00       207.94
 1155.83        2977.75           1593          55.00       207.94
 1155.86        2978.00           1596          55.00       207.94
 1155.90        2978.25           1600          48.00       177.42
 1155.93        2978.50           1603          53.00       199.22
 1155.96        2978.75           1606          52.00       194.86
 1155.99        2979.00           1610          58.00       221.01
 1156.02        2979.25           1613          52.00       194.86
 1156.05        2979.50           1616          60.00       229.73
 1156.08        2979.75           1620          56.00       212.29
 1156.11        2980.00           1623          49.00       181.78
 1156.14        2980.25           1626          51.00       190.50
 1156.17        2980.50           1630          52.00       194.86
 1156.20        2980.75           1633          57.00       216.65
 1156.23        2981.00           1637          51.00       190.50
 1156.26        2981.25           1640          53.00       199.22
 1156.29        2981.50           1643          44.00       159.98
 1156.32        2981.75           1647          58.00       221.01
 1156.36        2982.00           1650          54.00       203.58
 1156.39        2982.25           1653          63.00       242.81
 1156.42        2982.50           1657          50.00       186.14
 1156.45        2982.75           1660          52.00       194.86
 1156.48        2983.00           1663          53.00       199.22
 1156.51        2983.25           1667          51.00       190.50
 1156.54        2983.50           1670          57.00       216.65
 1156.57        2983.75           1673          55.00       207.94
 1156.60        2984.00           1677          48.00       177.42
HS scan finished at 19:16:49
end
