************************************************************
  HS Scan of (1) Internal mercury lamp
************************************************************
Integration time is 0.2294 seconds per sample
dh160317Manchester 53.47 2.23 2.804185pr1000
************************************************************
Dead Time -------------------------  3E-08 
Number of Cycles Used -------------  4 
Starting Wavelength (Angstroms) ---  2950 
Final Wavelength (Angstoms) -------  2984 
Wavelength Increment (Angstroms) --  .25 
Filter Wheel #1 Position ---------- (1) Ground quartz diffuser (ND=2.32)
Filter Wheel #2 Position ---------- (1) Neutral Density 0.494



************************************************************
HS scan start time = 03:18:18
Dark Count =  7.5 


Time (GMT)  Wavelength (Ang)  Step Number  Raw Counts  Counts/Second

  198.67        2950.00           1222          44.00       159.11
  198.73        2950.25           1226          46.00       167.83
  198.76        2950.50           1229          46.00       167.83
  198.80        2950.75           1232          45.00       163.47
  198.83        2951.00           1236          48.00       176.55
  198.86        2951.25           1239          52.00       193.99
  198.89        2951.50           1242          43.00       154.75
  198.92        2951.75           1246          46.00       167.83
  198.95        2952.00           1249          53.00       198.34
  198.98        2952.25           1252          43.00       154.75
  199.01        2952.50           1256          54.00       202.70
  199.04        2952.75           1259          51.00       189.63
  199.08        2953.00           1262          49.00       180.91
  199.11        2953.25           1266          52.00       193.99
  199.14        2953.50           1269          46.00       167.83
  199.17        2953.75           1272          41.00       146.03
  199.20        2954.00           1276          45.00       163.47
  199.23        2954.25           1279          44.00       159.11
  199.26        2954.50           1282          43.00       154.75
  199.29        2954.75           1286          50.00       185.27
  199.32        2955.00           1289          52.00       193.99
  199.35        2955.25           1292          46.00       167.83
  199.38        2955.50           1296          51.00       189.63
  199.41        2955.75           1299          43.00       154.75
  199.45        2956.00           1302          41.00       146.03
  199.48        2956.25           1306          50.00       185.27
  199.51        2956.50           1309          46.00       167.83
  199.54        2956.75           1312          50.00       185.27
  199.57        2957.00           1316          45.00       163.47
  199.60        2957.25           1319          44.00       159.11
  199.63        2957.50           1322          45.00       163.47
  199.66        2957.75           1326          51.00       189.63
  199.69        2958.00           1329          46.00       167.83
  199.73        2958.25           1332          40.00       141.67
  199.76        2958.50           1336          42.00       150.39
  199.79        2958.75           1339          48.00       176.55
  199.82        2959.00           1342          46.00       167.83
  199.85        2959.25           1346          43.00       154.75
  199.88        2959.50           1349          50.00       185.27
  199.91        2959.75           1352          55.00       207.06
  199.94        2960.00           1356          80.00       316.04
  199.97        2960.25           1359         102.00       411.95
  200.00        2960.50           1362         139.00       573.24
  200.03        2960.75           1366         203.00       852.24
  200.06        2961.00           1369         240.00      1013.54
  200.10        2961.25           1372         287.00      1218.44
  200.13        2961.50           1376         346.00      1475.65
  200.16        2961.75           1379         463.00      1985.73
  200.19        2962.00           1382         747.00      3223.94
  200.22        2962.25           1386        1872.00      8129.71
  200.25        2962.50           1389        3329.00     14485.37
  200.28        2962.75           1392        4838.00     21070.42
  200.31        2963.00           1396        7081.00     30863.35
  200.34        2963.25           1399        8774.00     38258.80
  200.37        2963.50           1402       10407.00     45395.26
  200.41        2963.75           1406       12700.00     55421.19
  200.44        2964.00           1409       14478.00     63199.49
  200.47        2964.25           1412       16032.00     70000.82
  200.50        2964.50           1416       18288.00     79879.51
  200.53        2964.75           1419       20000.00     87380.02
  200.56        2965.00           1422       21664.00     94673.48
  200.59        2965.25           1426       23987.00    104860.80
  200.62        2965.50           1429       25558.00    111753.70
  200.65        2965.75           1432       27403.00    119852.60
  200.69        2966.00           1436       29442.00    128807.60
  200.72        2966.25           1439       31089.00    136044.50
  200.75        2966.50           1442       32522.00    142343.70
  200.78        2966.75           1446       34358.00    150417.90
  200.81        2967.00           1449       35434.00    155151.60
  200.84        2967.25           1452       35783.00    156687.30
  200.87        2967.50           1456       35721.00    156414.50
  200.90        2967.75           1459       35511.00    155490.40
  200.93        2968.00           1462       35637.00    156044.90
  200.97        2968.25           1466       34995.00    153220.10
  201.00        2968.50           1469       34095.00    149261.00
  201.03        2968.75           1472       32816.00    143636.40
  201.06        2969.00           1476       30597.00    133882.40
  201.09        2969.25           1479       29049.00    127081.20
  201.12        2969.50           1482       27519.00    120361.90
  201.15        2969.75           1486       25056.00    109550.80
  201.18        2970.00           1489       23549.00    102939.50
  201.21        2970.25           1492       22161.00     96852.49
  201.24        2970.50           1496       19747.00     86271.38
  201.28        2970.75           1499       18160.00     79318.86
  201.31        2971.00           1502       16651.00     72710.75
  201.34        2971.25           1506       14422.00     62954.45
  201.37        2971.50           1509       12787.00     55801.71
  201.40        2971.75           1513       10660.00     46501.19
  201.43        2972.00           1516        9113.00     39740.03
  201.46        2972.25           1519        7394.00     32230.37
  201.49        2972.50           1523        5209.00     22689.81
  201.52        2972.75           1526        3624.00     15772.50
  201.56        2973.00           1529        2157.00      9372.73
  201.59        2973.25           1533         775.00      3346.02
  201.62        2973.50           1536         402.00      1719.79
  201.65        2973.75           1539         317.00      1349.23
  201.68        2974.00           1543         261.00      1105.09
  201.71        2974.25           1546         208.00       874.04
  201.74        2974.50           1549         157.00       651.71
  201.77        2974.75           1553          97.00       390.15
  201.80        2975.00           1556          71.00       276.81
  201.83        2975.25           1559          62.00       237.58
  201.86        2975.50           1563          54.00       202.70
  201.89        2975.75           1566          53.00       198.34
  201.92        2976.00           1569          52.00       193.99
  201.95        2976.25           1573          45.00       163.47
  201.98        2976.50           1576          47.00       172.19
  202.02        2976.75           1579          46.00       167.83
  202.05        2977.00           1583          44.00       159.11
  202.08        2977.25           1586          44.00       159.11
  202.11        2977.50           1590          42.00       150.39
  202.14        2977.75           1593          41.00       146.03
  202.17        2978.00           1596          40.00       141.67
  202.20        2978.25           1600          50.00       185.27
  202.23        2978.50           1603          43.00       154.75
  202.26        2978.75           1606          46.00       167.83
  202.29        2979.00           1610          37.00       128.60
  202.33        2979.25           1613          46.00       167.83
  202.36        2979.50           1616          43.00       154.75
  202.39        2979.75           1620          60.00       228.86
  202.42        2980.00           1623          48.00       176.55
  202.45        2980.25           1626          46.00       167.83
  202.48        2980.50           1630          46.00       167.83
  202.51        2980.75           1633          46.00       167.83
  202.54        2981.00           1637          42.00       150.39
  202.57        2981.25           1640          43.00       154.75
  202.61        2981.50           1643          47.00       172.19
  202.64        2981.75           1647          43.00       154.75
  202.67        2982.00           1650          41.00       146.03
  202.70        2982.25           1653          51.00       189.63
  202.73        2982.50           1657          48.00       176.55
  202.76        2982.75           1660          44.00       159.11
  202.79        2983.00           1663          73.00       285.53
  202.82        2983.25           1667          54.00       202.70
  202.85        2983.50           1670          50.00       185.27
  202.88        2983.75           1673          47.00       172.19
  202.91        2984.00           1677          49.00       180.91
HS scan finished at 03:23:08
end
************************************************************
  HS Scan of (1) Internal mercury lamp
************************************************************
Integration time is 0.2294 seconds per sample
dh160317Manchester 53.47 2.23 2.750537pr1000
************************************************************
Dead Time -------------------------  3E-08 
Number of Cycles Used -------------  4 
Starting Wavelength (Angstroms) ---  2950 
Final Wavelength (Angstoms) -------  2984 
Wavelength Increment (Angstroms) --  .25 
Filter Wheel #1 Position ---------- (1) Ground quartz diffuser (ND=2.32)
Filter Wheel #2 Position ---------- (1) Neutral Density 0.494



************************************************************
HS scan start time = 19:12:05
Dark Count =  5.2 


Time (GMT)  Wavelength (Ang)  Step Number  Raw Counts  Counts/Second

 1152.45        2950.00           1222          44.00       169.14
 1152.51        2950.25           1226          53.00       208.37
 1152.54        2950.50           1229          48.00       186.57
 1152.57        2950.75           1232          48.00       186.57
 1152.61        2951.00           1236          42.00       160.42
 1152.64        2951.25           1239          42.00       160.42
 1152.67        2951.50           1242          48.00       186.57
 1152.70        2951.75           1246          45.00       173.50
 1152.73        2952.00           1249          44.00       169.14
 1152.76        2952.25           1252          45.00       173.50
 1152.79        2952.50           1256          46.00       177.86
 1152.82        2952.75           1259          46.00       177.86
 1152.85        2953.00           1262          43.00       164.78
 1152.88        2953.25           1266          49.00       190.93
 1152.91        2953.50           1269          40.00       151.70
 1152.95        2953.75           1272          47.00       182.22
 1152.98        2954.00           1276          47.00       182.22
 1153.01        2954.25           1279          39.00       147.34
 1153.04        2954.50           1282          44.00       169.14
 1153.07        2954.75           1286          44.00       169.14
 1153.10        2955.00           1289          51.00       199.65
 1153.13        2955.25           1292          40.00       151.70
 1153.16        2955.50           1296          59.00       234.53
 1153.19        2955.75           1299          43.00       164.78
 1153.22        2956.00           1302          50.00       195.29
 1153.25        2956.25           1306          39.00       147.34
 1153.28        2956.50           1309          48.00       186.57
 1153.31        2956.75           1312          45.00       173.50
 1153.34        2957.00           1316          47.00       182.22
 1153.37        2957.25           1319          47.00       182.22
 1153.41        2957.50           1322          43.00       164.78
 1153.44        2957.75           1326          51.00       199.65
 1153.47        2958.00           1329          49.00       190.93
 1153.50        2958.25           1332          46.00       177.86
 1153.53        2958.50           1336          46.00       177.86
 1153.56        2958.75           1339          42.00       160.42
 1153.59        2959.00           1342          51.00       199.65
 1153.62        2959.25           1346          57.00       225.81
 1153.65        2959.50           1349          61.00       243.25
 1153.68        2959.75           1352          63.00       251.96
 1153.71        2960.00           1356          77.00       312.99
 1153.75        2960.25           1359         119.00       496.08
 1153.78        2960.50           1362         169.00       714.05
 1153.81        2960.75           1366         216.00       918.94
 1153.84        2961.00           1369         262.00      1119.48
 1153.87        2961.25           1372         294.00      1258.98
 1153.90        2961.50           1376         361.00      1551.07
 1153.93        2961.75           1379         594.00      2566.89
 1153.96        2962.00           1382        1255.00      5449.02
 1153.99        2962.25           1386        3198.00     13923.86
 1154.02        2962.50           1389        4774.00     20801.12
 1154.05        2962.75           1392        6337.00     27624.45
 1154.08        2963.00           1396        8357.00     36446.98
 1154.12        2963.25           1399       10021.00     43718.16
 1154.15        2963.50           1402       11757.00     51307.34
 1154.18        2963.75           1406       13997.00     61104.94
 1154.21        2964.00           1409       15691.00     68518.21
 1154.24        2964.25           1412       17448.00     76210.68
 1154.27        2964.50           1416       19382.00     84682.18
 1154.30        2964.75           1419       21182.00     92570.59
 1154.33        2965.00           1422       23052.00    100769.80
 1154.36        2965.25           1426       25051.00    109539.00
 1154.40        2965.50           1429       27062.00    118365.50
 1154.43        2965.75           1432       28561.00    124947.90
 1154.46        2966.00           1436       30880.00    135136.10
 1154.49        2966.25           1439       32407.00    141848.20
 1154.52        2966.50           1442       33606.00    147120.50
 1154.55        2966.75           1446       35055.00    153494.20
 1154.58        2967.00           1449       35468.00    155311.40
 1154.61        2967.25           1452       35636.00    156050.60
 1154.64        2967.50           1456       35362.00    154844.90
 1154.68        2967.75           1459       35457.00    155262.90
 1154.71        2968.00           1462       35260.00    154396.10
 1154.74        2968.25           1466       33945.00    148611.40
 1154.77        2968.50           1469       32486.00    142195.60
 1154.80        2968.75           1472       30816.00    134854.90
 1154.83        2969.00           1476       28592.00    125084.00
 1154.86        2969.25           1479       27081.00    118448.90
 1154.89        2969.50           1482       25424.00    111175.80
 1154.92        2969.75           1486       23327.00    101975.80
 1154.95        2970.00           1489       21611.00     94451.21
 1154.98        2970.25           1492       19989.00     87341.90
 1155.02        2970.50           1496       18015.00     78693.85
 1155.05        2970.75           1499       16162.00     70579.98
 1155.08        2971.00           1502       14521.00     63397.71
 1155.11        2971.25           1506       12184.00     53174.56
 1155.14        2971.50           1509       10361.00     45204.24
 1155.17        2971.75           1513        8217.00     35835.37
 1155.20        2972.00           1516        6709.00     29248.85
 1155.23        2972.25           1519        5142.00     22407.39
 1155.26        2972.50           1523        3137.00     13657.73
 1155.29        2972.75           1526        1828.00      7947.84
 1155.32        2973.00           1529         901.00      3905.43
 1155.36        2973.25           1533         432.00      1860.61
 1155.39        2973.50           1536         331.00      1420.29
 1155.42        2973.75           1539         289.00      1237.19
 1155.45        2974.00           1543         246.00      1049.73
 1155.48        2974.25           1546         186.00       788.16
 1155.51        2974.50           1549         159.00       670.46
 1155.54        2974.75           1553          97.00       400.18
 1155.57        2975.00           1556          74.00       299.92
 1155.60        2975.25           1559          58.00       230.17
 1155.63        2975.50           1563          55.00       217.09
 1155.66        2975.75           1566          55.00       217.09
 1155.70        2976.00           1569          45.00       173.50
 1155.73        2976.25           1573          46.00       177.86
 1155.76        2976.50           1576          43.00       164.78
 1155.79        2976.75           1579          54.00       212.73
 1155.82        2977.00           1583          47.00       182.22
 1155.85        2977.25           1586          43.00       164.78
 1155.88        2977.50           1590          45.00       173.50
 1155.91        2977.75           1593          46.00       177.86
 1155.94        2978.00           1596          46.00       177.86
 1155.97        2978.25           1600          45.00       173.50
 1156.00        2978.50           1603          45.00       173.50
 1156.03        2978.75           1606          48.00       186.57
 1156.06        2979.00           1610          48.00       186.57
 1156.10        2979.25           1613          47.00       182.22
 1156.13        2979.50           1616          50.00       195.29
 1156.16        2979.75           1620          47.00       182.22
 1156.19        2980.00           1623          50.00       195.29
 1156.22        2980.25           1626          37.00       138.62
 1156.25        2980.50           1630          37.00       138.62
 1156.28        2980.75           1633          43.00       164.78
 1156.31        2981.00           1637          48.00       186.57
 1156.34        2981.25           1640          39.00       147.34
 1156.37        2981.50           1643          51.00       199.65
 1156.40        2981.75           1647          51.00       199.65
 1156.43        2982.00           1650          43.00       164.78
 1156.46        2982.25           1653          37.00       138.62
 1156.50        2982.50           1657          51.00       199.65
 1156.53        2982.75           1660          44.00       169.14
 1156.56        2983.00           1663          42.00       160.42
 1156.59        2983.25           1667          46.00       177.86
 1156.62        2983.50           1670          39.00       147.34
 1156.65        2983.75           1673          47.00       182.22
 1156.68        2984.00           1677          45.00       173.50
HS scan finished at 19:16:54
end
