************************************************************
  HS Scan of (1) Internal mercury lamp
************************************************************
Integration time is 0.2294 seconds per sample
dh200319Manchester 53.47 2.23 2.804185pr1000
************************************************************
Dead Time -------------------------  3E-08 
Number of Cycles Used -------------  4 
Starting Wavelength (Angstroms) ---  2950 
Final Wavelength (Angstoms) -------  2984 
Wavelength Increment (Angstroms) --  .25 
Filter Wheel #1 Position ---------- (1) Ground quartz diffuser (ND=2.32)
Filter Wheel #2 Position ---------- (1) Neutral Density 0.494



************************************************************
HS scan start time = 03:05:51
Dark Count =  6.8 


Time (GMT)  Wavelength (Ang)  Step Number  Raw Counts  Counts/Second

  186.22        2950.00           1222          51.00       192.68
  186.28        2950.25           1226          57.00       218.83
  186.31        2950.50           1229          49.00       183.96
  186.34        2950.75           1232          61.00       236.27
  186.37        2951.00           1236          57.00       218.83
  186.41        2951.25           1239          54.00       205.76
  186.44        2951.50           1242          58.00       223.19
  186.47        2951.75           1246          51.00       192.68
  186.50        2952.00           1249          52.00       197.04
  186.53        2952.25           1252          53.00       201.40
  186.56        2952.50           1256          52.00       197.04
  186.59        2952.75           1259          60.00       231.91
  186.62        2953.00           1262          58.00       223.19
  186.65        2953.25           1266          62.00       240.63
  186.68        2953.50           1269          55.00       210.11
  186.71        2953.75           1272          55.00       210.11
  186.74        2954.00           1276          65.00       253.71
  186.78        2954.25           1279          58.00       223.19
  186.81        2954.50           1282          64.00       249.35
  186.84        2954.75           1286          57.00       218.83
  186.87        2955.00           1289          50.00       188.32
  186.90        2955.25           1292          48.00       179.60
  186.93        2955.50           1296          49.00       183.96
  186.96        2955.75           1299          57.00       218.83
  186.99        2956.00           1302          57.00       218.83
  187.02        2956.25           1306          58.00       223.19
  187.05        2956.50           1309          62.00       240.63
  187.09        2956.75           1312          59.00       227.55
  187.12        2957.00           1316          70.00       275.50
  187.15        2957.25           1319          60.00       231.91
  187.18        2957.50           1322          59.00       227.55
  187.21        2957.75           1326          56.00       214.47
  187.24        2958.00           1329          53.00       201.40
  187.27        2958.25           1332          51.00       192.68
  187.30        2958.50           1336          47.00       175.24
  187.33        2958.75           1339          56.00       214.47
  187.36        2959.00           1342          56.00       214.47
  187.39        2959.25           1346          59.00       227.55
  187.43        2959.50           1349          63.00       244.99
  187.46        2959.75           1352          61.00       236.27
  187.49        2960.00           1356          84.00       336.53
  187.52        2960.25           1359         107.00       436.80
  187.55        2960.50           1362         146.00       606.81
  187.58        2960.75           1366         188.00       789.91
  187.61        2961.00           1369         227.00       959.92
  187.64        2961.25           1372         260.00      1103.79
  187.69        2961.50           1376         359.00      1535.38
  187.72        2961.75           1379         681.00      2939.23
  187.76        2962.00           1382        1559.00      6767.72
  187.79        2962.25           1386        3006.00     13079.24
  187.82        2962.50           1389        4168.00     18149.38
  187.85        2962.75           1392        5434.00     23675.05
  187.88        2963.00           1396        7015.00     30578.17
  187.91        2963.25           1399        8050.00     35098.85
  187.94        2963.50           1402        9253.00     40354.85
  187.97        2963.75           1406       10996.00     47973.10
  188.00        2964.00           1409       12062.00     52634.05
  188.04        2964.25           1412       13490.00     58879.86
  188.07        2964.50           1416       15070.00     65793.21
  188.10        2964.75           1419       16153.00     70533.58
  188.13        2965.00           1422       17570.00     76737.93
  188.16        2965.25           1426       19116.00     83509.74
  188.19        2965.50           1429       20337.00     88859.93
  188.22        2965.75           1432       21648.00     94606.40
  188.25        2966.00           1436       23196.00    101394.30
  188.29        2966.25           1439       24224.00    105903.50
  188.32        2966.50           1442       25376.00    110958.10
  188.35        2966.75           1446       26452.00    115680.60
  188.38        2967.00           1449       26341.00    115193.40
  188.41        2967.25           1452       26293.00    114982.70
  188.44        2967.50           1456       26348.00    115224.10
  188.47        2967.75           1459       26355.00    115254.80
  188.50        2968.00           1462       25996.00    113679.10
  188.53        2968.25           1466       24855.00    108671.90
  188.57        2968.50           1469       23794.00    104017.20
  188.60        2968.75           1472       22692.00     99183.96
  188.63        2969.00           1476       21100.00     92204.12
  188.66        2969.25           1479       20174.00     88145.59
  188.69        2969.50           1482       18763.00     81963.28
  188.72        2969.75           1486       17116.00     74749.84
  188.75        2970.00           1489       15948.00     69636.18
  188.78        2970.25           1492       14864.00     64891.68
  188.81        2970.50           1496       13112.00     57226.33
  188.85        2970.75           1499       11789.00     51440.27
  188.88        2971.00           1502       10499.00     45800.47
  188.91        2971.25           1506        8916.00     38882.30
  188.94        2971.50           1509        7856.00     34251.40
  188.97        2971.75           1513        6102.00     26591.39
  189.00        2972.00           1516        4935.00     21496.86
  189.03        2972.25           1519        3763.00     16382.07
  189.06        2972.50           1523        2224.00      9668.02
  189.09        2972.75           1526        1128.00      4888.25
  189.13        2973.00           1529         569.00      2450.92
  189.16        2973.25           1533         321.00      1369.72
  189.19        2973.50           1536         277.00      1177.90
  189.22        2973.75           1539         231.00       977.36
  189.25        2974.00           1543         200.00       842.22
  189.28        2974.25           1546         158.00       659.12
  189.31        2974.50           1549         120.00       493.47
  189.34        2974.75           1553          82.00       327.81
  189.37        2975.00           1556          72.00       284.22
  189.40        2975.25           1559          61.00       236.27
  189.43        2975.50           1563          57.00       218.83
  189.47        2975.75           1566          54.00       205.76
  189.50        2976.00           1569          53.00       201.40
  189.53        2976.25           1573          55.00       210.11
  189.56        2976.50           1576          45.00       166.52
  189.59        2976.75           1579          53.00       201.40
  189.62        2977.00           1583          53.00       201.40
  189.65        2977.25           1586          49.00       183.96
  189.68        2977.50           1590          51.00       192.68
  189.71        2977.75           1593          54.00       205.76
  189.74        2978.00           1596          52.00       197.04
  189.78        2978.25           1600          53.00       201.40
  189.81        2978.50           1603          54.00       205.76
  189.84        2978.75           1606          46.00       170.88
  189.87        2979.00           1610          52.00       197.04
  189.90        2979.25           1613          55.00       210.11
  189.93        2979.50           1616          50.00       188.32
  189.96        2979.75           1620          42.00       153.44
  189.99        2980.00           1623          49.00       183.96
  190.02        2980.25           1626          53.00       201.40
  190.05        2980.50           1630          49.00       183.96
  190.09        2980.75           1633          47.00       175.24
  190.12        2981.00           1637          54.00       205.76
  190.15        2981.25           1640          47.00       175.24
  190.18        2981.50           1643          54.00       205.76
  190.21        2981.75           1647          48.00       179.60
  190.24        2982.00           1650          54.00       205.76
  190.27        2982.25           1653          48.00       179.60
  190.30        2982.50           1657          55.00       210.11
  190.33        2982.75           1660          53.00       201.40
  190.36        2983.00           1663          47.00       175.24
  190.39        2983.25           1667          52.00       197.04
  190.42        2983.50           1670          48.00       179.60
  190.45        2983.75           1673          54.00       205.76
  190.48        2984.00           1677          49.00       183.96
HS scan finished at 03:10:42
end
************************************************************
  HS Scan of (1) Internal mercury lamp
************************************************************
Integration time is 0.2294 seconds per sample
dh200319Manchester 53.47 2.23 2.804185pr1000
************************************************************
Dead Time -------------------------  3E-08 
Number of Cycles Used -------------  4 
Starting Wavelength (Angstroms) ---  2950 
Final Wavelength (Angstoms) -------  2984 
Wavelength Increment (Angstroms) --  .25 
Filter Wheel #1 Position ---------- (1) Ground quartz diffuser (ND=2.32)
Filter Wheel #2 Position ---------- (1) Neutral Density 0.494



************************************************************
HS scan start time = 19:12:09
Dark Count =  5.8 


Time (GMT)  Wavelength (Ang)  Step Number  Raw Counts  Counts/Second

 1152.52        2950.00           1222          55.00       214.47
 1152.58        2950.25           1226          58.00       227.55
 1152.61        2950.50           1229          53.00       205.76
 1152.65        2950.75           1232          61.00       240.63
 1152.68        2951.00           1236          52.00       201.40
 1152.71        2951.25           1239          56.00       218.83
 1152.74        2951.50           1242          56.00       218.83
 1152.77        2951.75           1246          58.00       227.55
 1152.80        2952.00           1249          57.00       223.19
 1152.83        2952.25           1252          53.00       205.76
 1152.86        2952.50           1256          54.00       210.11
 1152.89        2952.75           1259          50.00       192.68
 1152.92        2953.00           1262          56.00       218.83
 1152.95        2953.25           1266          52.00       201.40
 1152.99        2953.50           1269          61.00       240.63
 1153.02        2953.75           1272          53.00       205.76
 1153.05        2954.00           1276          58.00       227.55
 1153.08        2954.25           1279          53.00       205.76
 1153.11        2954.50           1282          56.00       218.83
 1153.14        2954.75           1286          59.00       231.91
 1153.17        2955.00           1289          62.00       244.99
 1153.20        2955.25           1292          55.00       214.47
 1153.23        2955.50           1296          48.00       183.96
 1153.26        2955.75           1299          59.00       231.91
 1153.30        2956.00           1302          52.00       201.40
 1153.33        2956.25           1306          53.00       205.76
 1153.36        2956.50           1309          50.00       192.68
 1153.39        2956.75           1312          54.00       210.11
 1153.42        2957.00           1316          55.00       214.47
 1153.45        2957.25           1319          55.00       214.47
 1153.48        2957.50           1322          52.00       201.40
 1153.51        2957.75           1326          46.00       175.24
 1153.54        2958.00           1329          50.00       192.68
 1153.57        2958.25           1332          60.00       236.27
 1153.60        2958.50           1336          60.00       236.27
 1153.63        2958.75           1339          67.00       266.79
 1153.66        2959.00           1342          56.00       218.83
 1153.69        2959.25           1346          54.00       210.11
 1153.73        2959.50           1349          60.00       236.27
 1153.76        2959.75           1352          72.00       288.58
 1153.79        2960.00           1356          88.00       358.33
 1153.82        2960.25           1359         119.00       493.47
 1153.85        2960.50           1362         161.00       676.56
 1153.88        2960.75           1366         183.00       772.47
 1153.91        2961.00           1369         214.00       907.61
 1153.94        2961.25           1372         254.00      1081.99
 1153.97        2961.50           1376         304.00      1299.96
 1154.00        2961.75           1379         443.00      1905.95
 1154.03        2962.00           1382         971.00      4208.03
 1154.06        2962.25           1386        2417.00     10514.21
 1154.09        2962.50           1389        3553.00     15470.13
 1154.12        2962.75           1392        4783.00     20837.79
 1154.16        2963.00           1396        6310.00     27503.94
 1154.19        2963.25           1399        7434.00     32412.50
 1154.22        2963.50           1402        8660.00     37768.14
 1154.25        2963.75           1406       10250.00     44716.45
 1154.28        2964.00           1409       11484.00     50111.02
 1154.31        2964.25           1412       12925.00     56412.74
 1154.34        2964.50           1416       14440.00     63040.65
 1154.37        2964.75           1419       15685.00     68489.33
 1154.40        2965.00           1422       16875.00     73698.94
 1154.43        2965.25           1426       18597.00     81240.48
 1154.47        2965.50           1429       19897.00     86936.12
 1154.50        2965.75           1432       21021.00     91862.22
 1154.53        2966.00           1436       22496.00     98328.87
 1154.56        2966.25           1439       23424.00    102398.70
 1154.59        2966.50           1442       24536.00    107276.70
 1154.62        2966.75           1446       25824.00    112928.60
 1154.65        2967.00           1449       26080.00    114052.20
 1154.68        2967.25           1452       26264.00    114859.80
 1154.71        2967.50           1456       26313.00    115074.90
 1154.74        2967.75           1459       26108.00    114175.10
 1154.78        2968.00           1462       26143.00    114328.70
 1154.81        2968.25           1466       25063.00    109589.00
 1154.84        2968.50           1469       23925.00    104596.20
 1154.87        2968.75           1472       22948.00    100311.00
 1154.90        2969.00           1476       21305.00     93107.13
 1154.93        2969.25           1479       20151.00     88049.19
 1154.96        2969.50           1482       19087.00     83387.06
 1154.99        2969.75           1486       17456.00     76243.06
 1155.02        2970.00           1489       16246.00     70945.09
 1155.06        2970.25           1492       15115.00     65994.53
 1155.09        2970.50           1496       13474.00     58814.23
 1155.12        2970.75           1499       12263.00     53517.42
 1155.15        2971.00           1502       11018.00     48073.64
 1155.18        2971.25           1506        9384.00     40931.67
 1155.21        2971.50           1509        8141.00     35500.74
 1155.24        2971.75           1513        6491.00     28294.28
 1155.27        2972.00           1516        5344.00     23286.53
 1155.30        2972.25           1519        4230.00     18424.31
 1155.33        2972.50           1523        2680.00     11661.45
 1155.37        2972.75           1526        1615.00      7016.30
 1155.40        2973.00           1529         718.00      3104.91
 1155.43        2973.25           1533         348.00      1491.78
 1155.46        2973.50           1536         264.00      1125.58
 1155.49        2973.75           1539         243.00      1034.03
 1155.52        2974.00           1543         189.00       798.62
 1155.55        2974.25           1546         155.00       650.41
 1155.58        2974.50           1549         137.00       571.94
 1155.61        2974.75           1553          92.00       375.77
 1155.64        2975.00           1556          70.00       279.86
 1155.67        2975.25           1559          60.00       236.27
 1155.70        2975.50           1563          57.00       223.19
 1155.73        2975.75           1566          50.00       192.68
 1155.77        2976.00           1569          63.00       249.35
 1155.80        2976.25           1573          61.00       240.63
 1155.83        2976.50           1576          49.00       188.32
 1155.86        2976.75           1579          49.00       188.32
 1155.89        2977.00           1583          52.00       201.40
 1155.92        2977.25           1586          54.00       210.11
 1155.95        2977.50           1590          48.00       183.96
 1155.98        2977.75           1593          55.00       214.47
 1156.01        2978.00           1596          51.00       197.04
 1156.04        2978.25           1600          54.00       210.11
 1156.07        2978.50           1603          53.00       205.76
 1156.10        2978.75           1606          53.00       205.76
 1156.13        2979.00           1610          51.00       197.04
 1156.16        2979.25           1613          48.00       183.96
 1156.19        2979.50           1616          52.00       201.40
 1156.23        2979.75           1620          56.00       218.83
 1156.26        2980.00           1623          53.00       205.76
 1156.29        2980.25           1626          50.00       192.68
 1156.32        2980.50           1630          51.00       197.04
 1156.35        2980.75           1633          61.00       240.63
 1156.38        2981.00           1637          45.00       170.88
 1156.41        2981.25           1640          45.00       170.88
 1156.44        2981.50           1643          50.00       192.68
 1156.47        2981.75           1647          53.00       205.76
 1156.50        2982.00           1650          52.00       201.40
 1156.53        2982.25           1653          50.00       192.68
 1156.56        2982.50           1657          48.00       183.96
 1156.60        2982.75           1660          52.00       201.40
 1156.63        2983.00           1663          51.00       197.04
 1156.66        2983.25           1667          60.00       236.27
 1156.69        2983.50           1670          47.00       179.60
 1156.72        2983.75           1673          53.00       205.76
 1156.75        2984.00           1677          57.00       223.19
HS scan finished at 19:16:58
end
