************************************************************
  HS Scan of (1) Internal mercury lamp
************************************************************
Integration time is 0.2294 seconds per sample
dh190319Manchester 53.47 2.23 2.804185pr1000
************************************************************
Dead Time -------------------------  3E-08 
Number of Cycles Used -------------  4 
Starting Wavelength (Angstroms) ---  2950 
Final Wavelength (Angstoms) -------  2984 
Wavelength Increment (Angstroms) --  .25 
Filter Wheel #1 Position ---------- (1) Ground quartz diffuser (ND=2.32)
Filter Wheel #2 Position ---------- (1) Neutral Density 0.494



************************************************************
HS scan start time = 03:08:36
Dark Count =  6.4 


Time (GMT)  Wavelength (Ang)  Step Number  Raw Counts  Counts/Second

  188.97        2950.00           1222          56.00       216.22
  189.04        2950.25           1226          53.00       203.14
  189.07        2950.50           1229          66.00       259.81
  189.10        2950.75           1232          63.00       246.73
  189.13        2951.00           1236          52.00       198.78
  189.16        2951.25           1239          60.00       233.65
  189.19        2951.50           1242          54.00       207.50
  189.22        2951.75           1246          56.00       216.22
  189.25        2952.00           1249          60.00       233.65
  189.28        2952.25           1252          59.00       229.30
  189.31        2952.50           1256          55.00       211.86
  189.35        2952.75           1259          59.00       229.30
  189.38        2953.00           1262          53.00       203.14
  189.41        2953.25           1266          56.00       216.22
  189.44        2953.50           1269          53.00       203.14
  189.47        2953.75           1272          61.00       238.01
  189.50        2954.00           1276          56.00       216.22
  189.53        2954.25           1279          62.00       242.37
  189.56        2954.50           1282          45.00       168.27
  189.59        2954.75           1286          56.00       216.22
  189.62        2955.00           1289          49.00       185.70
  189.65        2955.25           1292          48.00       181.34
  189.68        2955.50           1296          52.00       198.78
  189.71        2955.75           1299          47.00       176.98
  189.74        2956.00           1302          64.00       251.09
  189.77        2956.25           1306          51.00       194.42
  189.81        2956.50           1309          56.00       216.22
  189.84        2956.75           1312          51.00       194.42
  189.87        2957.00           1316          66.00       259.81
  189.90        2957.25           1319          55.00       211.86
  189.93        2957.50           1322          54.00       207.50
  189.96        2957.75           1326          52.00       198.78
  189.99        2958.00           1329          73.00       290.33
  190.02        2958.25           1332          60.00       233.65
  190.05        2958.50           1336          65.00       255.45
  190.08        2958.75           1339          54.00       207.50
  190.11        2959.00           1342          51.00       194.42
  190.14        2959.25           1346          52.00       198.78
  190.17        2959.50           1349          55.00       211.86
  190.20        2959.75           1352          73.00       290.33
  190.24        2960.00           1356          85.00       342.64
  190.27        2960.25           1359         112.00       460.34
  190.30        2960.50           1362         162.00       678.31
  190.33        2960.75           1366         186.00       782.93
  190.36        2961.00           1369         241.00      1022.70
  190.39        2961.25           1372         252.00      1070.65
  190.42        2961.50           1376         301.00      1284.27
  190.45        2961.75           1379         459.00      1973.09
  190.48        2962.00           1382         988.00      4279.54
  190.51        2962.25           1386        2319.00     10084.13
  190.54        2962.50           1389        3588.00     15620.22
  190.57        2962.75           1392        4785.00     20843.89
  190.61        2963.00           1396        6331.00     27593.02
  190.64        2963.25           1399        7466.00     32549.64
  190.67        2963.50           1402        8739.00     38110.68
  190.70        2963.75           1406       10313.00     44989.19
  190.73        2964.00           1409       11500.00     50178.35
  190.76        2964.25           1412       12655.00     55229.18
  190.79        2964.50           1416       14324.00     62530.44
  190.82        2964.75           1419       15682.00     68473.56
  190.85        2965.00           1422       16876.00     73700.70
  190.88        2965.25           1426       18486.00     80751.62
  190.92        2965.50           1429       19671.00     85943.18
  190.95        2965.75           1432       20916.00     91399.36
  190.98        2966.00           1436       22554.00     98580.56
  191.01        2966.25           1439       23709.00    103646.10
  191.04        2966.50           1442       24578.00    107458.30
  191.07        2966.75           1446       25975.00    113588.70
  191.10        2967.00           1449       26441.00    115634.10
  191.13        2967.25           1452       26384.00    115383.90
  191.16        2967.50           1456       26423.00    115555.10
  191.20        2967.75           1459       26497.00    115879.90
  191.23        2968.00           1462       26333.00    115160.00
  191.26        2968.25           1466       25625.00    112052.60
  191.29        2968.50           1469       24596.00    107537.30
  191.32        2968.75           1472       23432.00    102431.10
  191.35        2969.00           1476       21921.00     95805.05
  191.38        2969.25           1479       20805.00     90912.83
  191.41        2969.50           1482       19453.00     84987.99
  191.45        2969.75           1486       17787.00     77690.02
  191.48        2970.00           1489       16746.00     73131.50
  191.51        2970.25           1492       15567.00     67970.20
  191.54        2970.50           1496       13894.00     60649.05
  191.57        2970.75           1499       12818.00     55942.11
  191.60        2971.00           1502       11452.00     49968.49
  191.63        2971.25           1506        9712.00     42362.44
  191.66        2971.50           1509        8504.00     37083.95
  191.69        2971.75           1513        6812.00     29693.40
  191.72        2972.00           1516        5588.00     24349.08
  191.76        2972.25           1519        4463.00     19438.54
  191.79        2972.50           1523        2881.00     12535.66
  191.82        2972.75           1526        1689.00      7336.40
  191.85        2973.00           1529         837.00      3621.14
  191.88        2973.25           1533         375.00      1606.88
  191.91        2973.50           1536         281.00      1197.08
  191.94        2973.75           1539         236.00      1000.90
  191.97        2974.00           1543         203.00       857.04
  192.00        2974.25           1546         148.00       617.27
  192.03        2974.50           1549         116.00       477.77
  192.06        2974.75           1553          92.00       373.15
  192.09        2975.00           1556          67.00       264.17
  192.12        2975.25           1559          58.00       224.94
  192.15        2975.50           1563          53.00       203.14
  192.19        2975.75           1566          49.00       185.70
  192.22        2976.00           1569          61.00       238.01
  192.25        2976.25           1573          58.00       224.94
  192.28        2976.50           1576          50.00       190.06
  192.31        2976.75           1579          54.00       207.50
  192.34        2977.00           1583          55.00       211.86
  192.37        2977.25           1586          59.00       229.30
  192.40        2977.50           1590          48.00       181.34
  192.43        2977.75           1593          57.00       220.58
  192.46        2978.00           1596          54.00       207.50
  192.49        2978.25           1600          48.00       181.34
  192.52        2978.50           1603          50.00       190.06
  192.56        2978.75           1606          56.00       216.22
  192.59        2979.00           1610          53.00       203.14
  192.62        2979.25           1613          56.00       216.22
  192.65        2979.50           1616          51.00       194.42
  192.68        2979.75           1620          51.00       194.42
  192.71        2980.00           1623          49.00       185.70
  192.74        2980.25           1626          49.00       185.70
  192.77        2980.50           1630          45.00       168.27
  192.80        2980.75           1633          52.00       198.78
  192.83        2981.00           1637          48.00       181.34
  192.86        2981.25           1640          48.00       181.34
  192.90        2981.50           1643          49.00       185.70
  192.93        2981.75           1647          55.00       211.86
  192.96        2982.00           1650          47.00       176.98
  192.99        2982.25           1653          56.00       216.22
  193.02        2982.50           1657          50.00       190.06
  193.05        2982.75           1660          50.00       190.06
  193.08        2983.00           1663          46.00       172.63
  193.11        2983.25           1667          49.00       185.70
  193.14        2983.50           1670          50.00       190.06
  193.17        2983.75           1673          53.00       203.14
  193.20        2984.00           1677          52.00       198.78
HS scan finished at 03:13:25
end
************************************************************
  HS Scan of (1) Internal mercury lamp
************************************************************
Integration time is 0.2294 seconds per sample
dh190319Manchester 53.47 2.23 2.804185pr1000
************************************************************
Dead Time -------------------------  3E-08 
Number of Cycles Used -------------  4 
Starting Wavelength (Angstroms) ---  2950 
Final Wavelength (Angstoms) -------  2984 
Wavelength Increment (Angstroms) --  .25 
Filter Wheel #1 Position ---------- (1) Ground quartz diffuser (ND=2.32)
Filter Wheel #2 Position ---------- (1) Neutral Density 0.494



************************************************************
HS scan start time = 19:12:07
Dark Count =  5.8 


Time (GMT)  Wavelength (Ang)  Step Number  Raw Counts  Counts/Second

 1152.49        2950.00           1222          55.00       214.47
 1152.55        2950.25           1226          59.00       231.91
 1152.58        2950.50           1229          60.00       236.27
 1152.62        2950.75           1232          54.00       210.11
 1152.65        2951.00           1236          59.00       231.91
 1152.68        2951.25           1239          52.00       201.40
 1152.71        2951.50           1242          56.00       218.83
 1152.74        2951.75           1246          60.00       236.27
 1152.77        2952.00           1249          58.00       227.55
 1152.80        2952.25           1252          61.00       240.63
 1152.83        2952.50           1256          51.00       197.04
 1152.86        2952.75           1259          64.00       253.71
 1152.89        2953.00           1262          57.00       223.19
 1152.92        2953.25           1266          61.00       240.63
 1152.95        2953.50           1269          56.00       218.83
 1152.98        2953.75           1272          54.00       210.11
 1153.02        2954.00           1276          50.00       192.68
 1153.05        2954.25           1279          63.00       249.35
 1153.08        2954.50           1282          50.00       192.68
 1153.11        2954.75           1286          50.00       192.68
 1153.14        2955.00           1289          65.00       258.07
 1153.17        2955.25           1292          54.00       210.11
 1153.20        2955.50           1296          53.00       205.76
 1153.23        2955.75           1299          50.00       192.68
 1153.26        2956.00           1302          48.00       183.96
 1153.29        2956.25           1306          60.00       236.27
 1153.32        2956.50           1309          60.00       236.27
 1153.35        2956.75           1312          61.00       240.63
 1153.38        2957.00           1316          50.00       192.68
 1153.41        2957.25           1319          61.00       240.63
 1153.45        2957.50           1322          44.00       166.52
 1153.48        2957.75           1326          56.00       218.83
 1153.51        2958.00           1329          53.00       205.76
 1153.54        2958.25           1332          48.00       183.96
 1153.57        2958.50           1336          55.00       214.47
 1153.60        2958.75           1339          55.00       214.47
 1153.63        2959.00           1342          56.00       218.83
 1153.66        2959.25           1346          62.00       244.99
 1153.69        2959.50           1349          56.00       218.83
 1153.72        2959.75           1352          71.00       284.22
 1153.75        2960.00           1356         100.00       410.64
 1153.78        2960.25           1359         122.00       506.55
 1153.82        2960.50           1362         159.00       667.84
 1153.85        2960.75           1366         197.00       833.50
 1153.88        2961.00           1369         230.00       977.36
 1153.91        2961.25           1372         257.00      1095.07
 1153.94        2961.50           1376         320.00      1369.72
 1153.97        2961.75           1379         425.00      1827.48
 1154.00        2962.00           1382         946.00      4099.02
 1154.03        2962.25           1386        2291.00      9964.62
 1154.06        2962.50           1389        3537.00     15400.32
 1154.09        2962.75           1392        4671.00     20348.95
 1154.13        2963.00           1396        6193.00     26993.08
 1154.16        2963.25           1399        7447.00     32469.28
 1154.19        2963.50           1402        8540.00     37243.86
 1154.22        2963.75           1406       10034.00     43772.35
 1154.25        2964.00           1409       11205.00     48891.19
 1154.28        2964.25           1412       12572.00     54868.80
 1154.31        2964.50           1416       14351.00     62651.22
 1154.34        2964.75           1419       15330.00     66935.50
 1154.37        2965.00           1422       16598.00     72486.15
 1154.41        2965.25           1426       18392.00     80342.50
 1154.44        2965.50           1429       19652.00     85862.56
 1154.47        2965.75           1432       20722.00     90551.68
 1154.50        2966.00           1436       22524.00     98451.64
 1154.53        2966.25           1439       23576.00    103065.30
 1154.56        2966.50           1442       24641.00    107737.40
 1154.59        2966.75           1446       25792.00    112788.10
 1154.62        2967.00           1449       26183.00    114504.30
 1154.65        2967.25           1452       26313.00    115074.90
 1154.68        2967.50           1456       26237.00    114741.30
 1154.71        2967.75           1459       26300.00    115017.80
 1154.74        2968.00           1462       26281.00    114934.40
 1154.78        2968.25           1466       25408.00    111102.90
 1154.81        2968.50           1469       24153.00    105596.40
 1154.84        2968.75           1472       23252.00    101644.30
 1154.87        2969.00           1476       21703.00     94851.91
 1154.90        2969.25           1479       20398.00     89131.65
 1154.93        2969.50           1482       19288.00     84267.68
 1154.96        2969.75           1486       17726.00     77425.49
 1154.99        2970.00           1489       16533.00     72201.56
 1155.02        2970.25           1492       15386.00     67180.60
 1155.06        2970.50           1496       13864.00     60520.42
 1155.09        2970.75           1499       12609.00     55030.62
 1155.12        2971.00           1502       11485.00     50115.39
 1155.15        2971.25           1506        9675.00     42203.36
 1155.18        2971.50           1509        8399.00     36627.85
 1155.21        2971.75           1513        6757.00     29455.84
 1155.24        2972.00           1516        5612.00     24456.48
 1155.27        2972.25           1519        4436.00     19323.32
 1155.30        2972.50           1523        2835.00     12337.61
 1155.33        2972.75           1526        1807.00      7853.64
 1155.36        2973.00           1529         851.00      3684.80
 1155.39        2973.25           1533         358.00      1535.38
 1155.42        2973.50           1536         249.00      1060.19
 1155.46        2973.75           1539         226.00       959.92
 1155.49        2974.00           1543         198.00       837.86
 1155.52        2974.25           1546         147.00       615.53
 1155.55        2974.50           1549         104.00       428.08
 1155.58        2974.75           1553          85.00       345.25
 1155.61        2975.00           1556          60.00       236.27
 1155.64        2975.25           1559          56.00       218.83
 1155.67        2975.50           1563          51.00       197.04
 1155.70        2975.75           1566          58.00       227.55
 1155.73        2976.00           1569          49.00       188.32
 1155.76        2976.25           1573          58.00       227.55
 1155.79        2976.50           1576          54.00       210.11
 1155.83        2976.75           1579          52.00       201.40
 1155.86        2977.00           1583          52.00       201.40
 1155.89        2977.25           1586          58.00       227.55
 1155.92        2977.50           1590          50.00       192.68
 1155.95        2977.75           1593          54.00       210.11
 1155.98        2978.00           1596          48.00       183.96
 1156.01        2978.25           1600          47.00       179.60
 1156.04        2978.50           1603          55.00       214.47
 1156.07        2978.75           1606          44.00       166.52
 1156.10        2979.00           1610          55.00       214.47
 1156.13        2979.25           1613          54.00       210.11
 1156.16        2979.50           1616          53.00       205.76
 1156.19        2979.75           1620          49.00       188.32
 1156.23        2980.00           1623          52.00       201.40
 1156.26        2980.25           1626          44.00       166.52
 1156.29        2980.50           1630          47.00       179.60
 1156.32        2980.75           1633          44.00       166.52
 1156.35        2981.00           1637          48.00       183.96
 1156.38        2981.25           1640          57.00       223.19
 1156.41        2981.50           1643          48.00       183.96
 1156.44        2981.75           1647          46.00       175.24
 1156.47        2982.00           1650          52.00       201.40
 1156.51        2982.25           1653          53.00       205.76
 1156.54        2982.50           1657          58.00       227.55
 1156.57        2982.75           1660          51.00       197.04
 1156.60        2983.00           1663          47.00       179.60
 1156.63        2983.25           1667          45.00       170.88
 1156.66        2983.50           1670          58.00       227.55
 1156.69        2983.75           1673          58.00       227.55
 1156.73        2984.00           1677          50.00       192.68
HS scan finished at 19:16:57
end
