************************************************************
  HS Scan of (1) Internal mercury lamp
************************************************************
Integration time is 0.2294 seconds per sample
dh120318Manchester 53.47 2.23 2.750537pr1000
************************************************************
Dead Time -------------------------  3E-08 
Number of Cycles Used -------------  4 
Starting Wavelength (Angstroms) ---  2950 
Final Wavelength (Angstoms) -------  2984 
Wavelength Increment (Angstroms) --  .25 
Filter Wheel #1 Position ---------- (1) Ground quartz diffuser (ND=2.32)
Filter Wheel #2 Position ---------- (1) Neutral Density 0.494



************************************************************
HS scan start time = 03:33:36
Dark Count =  4.8 


Time (GMT)  Wavelength (Ang)  Step Number  Raw Counts  Counts/Second

  213.96        2950.00           1222          59.00       236.27
  214.03        2950.25           1226          56.00       223.19
  214.06        2950.50           1229          58.00       231.91
  214.09        2950.75           1232          58.00       231.91
  214.12        2951.00           1236          58.00       231.91
  214.15        2951.25           1239          63.00       253.71
  214.18        2951.50           1242          57.00       227.55
  214.21        2951.75           1246          63.00       253.71
  214.25        2952.00           1249          61.00       244.99
  214.28        2952.25           1252          62.00       249.35
  214.31        2952.50           1256          57.00       227.55
  214.34        2952.75           1259          61.00       244.99
  214.37        2953.00           1262          65.00       262.43
  214.40        2953.25           1266          56.00       223.19
  214.43        2953.50           1269          61.00       244.99
  214.46        2953.75           1272          68.00       275.50
  214.49        2954.00           1276          62.00       249.35
  214.52        2954.25           1279          60.00       240.63
  214.55        2954.50           1282          57.00       227.55
  214.58        2954.75           1286          69.00       279.86
  214.61        2955.00           1289          59.00       236.27
  214.64        2955.25           1292          62.00       249.35
  214.67        2955.50           1296          59.00       236.27
  214.71        2955.75           1299          58.00       231.91
  214.74        2956.00           1302          60.00       240.63
  214.77        2956.25           1306          60.00       240.63
  214.80        2956.50           1309          58.00       231.91
  214.83        2956.75           1312          54.00       214.47
  214.86        2957.00           1316          64.00       258.07
  214.89        2957.25           1319          55.00       218.83
  214.92        2957.50           1322          54.00       214.47
  214.95        2957.75           1326          61.00       244.99
  214.98        2958.00           1329          59.00       236.27
  215.01        2958.25           1332          61.00       244.99
  215.04        2958.50           1336          61.00       244.99
  215.08        2958.75           1339          60.00       240.63
  215.11        2959.00           1342          57.00       227.55
  215.14        2959.25           1346          62.00       249.35
  215.17        2959.50           1349          64.00       258.07
  215.20        2959.75           1352          69.00       279.86
  215.23        2960.00           1356          98.00       406.28
  215.26        2960.25           1359         125.00       523.98
  215.29        2960.50           1362         162.00       685.28
  215.32        2960.75           1366         210.00       894.53
  215.35        2961.00           1369         242.00      1034.03
  215.38        2961.25           1372         290.00      1243.29
  215.42        2961.50           1376         364.00      1565.90
  215.45        2961.75           1379         548.00      2368.08
  215.48        2962.00           1382        1256.00      5455.12
  215.51        2962.25           1386        2932.00     12765.13
  215.54        2962.50           1389        4222.00     18393.76
  215.57        2962.75           1392        5703.00     24858.12
  215.60        2963.00           1396        7739.00     33749.06
  215.63        2963.25           1399        9143.00     39882.92
  215.66        2963.50           1402       10766.00     46976.36
  215.69        2963.75           1406       12885.00     56242.16
  215.73        2964.00           1409       14316.00     62502.44
  215.76        2964.25           1412       15873.00     69316.62
  215.79        2964.50           1416       17844.00     77946.66
  215.82        2964.75           1419       19361.00     84591.91
  215.85        2965.00           1422       20859.00     91156.53
  215.88        2965.25           1426       22858.00     99920.69
  215.91        2965.50           1429       24325.00    106355.40
  215.94        2965.75           1432       25859.00    113086.60
  215.97        2966.00           1436       27938.00    122213.60
  216.00        2966.25           1439       29393.00    128604.20
  216.03        2966.50           1442       30600.00    133907.40
  216.06        2966.75           1446       31848.00    139392.50
  216.10        2967.00           1449       32141.00    140680.50
  216.13        2967.25           1452       32102.00    140509.10
  216.16        2967.50           1456       32245.00    141137.80
  216.19        2967.75           1459       32163.00    140777.30
  216.22        2968.00           1462       32059.00    140320.10
  216.25        2968.25           1466       30811.00    134834.60
  216.28        2968.50           1469       29696.00    129935.30
  216.31        2968.75           1472       28119.00    123008.50
  216.34        2969.00           1476       26157.00    114394.50
  216.37        2969.25           1479       24815.00    108505.20
  216.40        2969.50           1482       23080.00    100894.30
  216.43        2969.75           1486       21336.00     93247.41
  216.46        2970.00           1489       19912.00     87006.22
  216.50        2970.25           1492       18302.00     79952.66
  216.53        2970.50           1496       16463.00     71899.47
  216.56        2970.75           1499       14810.00     64664.12
  216.59        2971.00           1502       13354.00     58293.67
  216.62        2971.25           1506       11481.00     50102.28
  216.65        2971.50           1509       10104.00     44082.67
  216.68        2971.75           1513        8197.00     35749.74
  216.71        2972.00           1516        6559.00     28595.58
  216.74        2972.25           1519        5126.00     22339.29
  216.77        2972.50           1523        3255.00     14174.29
  216.81        2972.75           1526        1849.00      8041.17
  216.84        2973.00           1529         879.00      3811.25
  216.87        2973.25           1533         411.00      1770.80
  216.90        2973.50           1536         336.00      1443.83
  216.93        2973.75           1539         305.00      1308.68
  216.96        2974.00           1543         243.00      1038.39
  216.99        2974.25           1546         203.00       864.02
  217.02        2974.50           1549         151.00       637.33
  217.05        2974.75           1553          99.00       410.64
  217.08        2975.00           1556          84.00       345.25
  217.11        2975.25           1559          70.00       284.22
  217.15        2975.50           1563          56.00       223.19
  217.18        2975.75           1566          54.00       214.47
  217.21        2976.00           1569          56.00       223.19
  217.24        2976.25           1573          61.00       244.99
  217.27        2976.50           1576          67.00       271.14
  217.30        2976.75           1579          55.00       218.83
  217.33        2977.00           1583          60.00       240.63
  217.36        2977.25           1586          55.00       218.83
  217.39        2977.50           1590          52.00       205.76
  217.42        2977.75           1593          58.00       231.91
  217.45        2978.00           1596          50.00       197.04
  217.48        2978.25           1600          57.00       227.55
  217.51        2978.50           1603          60.00       240.63
  217.54        2978.75           1606          51.00       201.40
  217.58        2979.00           1610          58.00       231.91
  217.61        2979.25           1613          51.00       201.40
  217.64        2979.50           1616          52.00       205.76
  217.67        2979.75           1620          49.00       192.68
  217.70        2980.00           1623          53.00       210.11
  217.73        2980.25           1626          53.00       210.11
  217.76        2980.50           1630          48.00       188.32
  217.79        2980.75           1633          53.00       210.11
  217.82        2981.00           1637          55.00       218.83
  217.85        2981.25           1640          52.00       205.76
  217.88        2981.50           1643          49.00       192.68
  217.92        2981.75           1647          49.00       192.68
  217.95        2982.00           1650          53.00       210.11
  217.98        2982.25           1653          49.00       192.68
  218.01        2982.50           1657          50.00       197.04
  218.04        2982.75           1660          56.00       223.19
  218.07        2983.00           1663          55.00       218.83
  218.10        2983.25           1667          60.00       240.63
  218.13        2983.50           1670          64.00       258.07
  218.16        2983.75           1673          57.00       227.55
  218.19        2984.00           1677          53.00       210.11
HS scan finished at 03:38:24
end
************************************************************
  HS Scan of (1) Internal mercury lamp
************************************************************
Integration time is 0.2294 seconds per sample
dh120318Manchester 53.47 2.23 2.804185pr1000
************************************************************
Dead Time -------------------------  3E-08 
Number of Cycles Used -------------  4 
Starting Wavelength (Angstroms) ---  2950 
Final Wavelength (Angstoms) -------  2984 
Wavelength Increment (Angstroms) --  .25 
Filter Wheel #1 Position ---------- (1) Ground quartz diffuser (ND=2.32)
Filter Wheel #2 Position ---------- (1) Neutral Density 0.494



************************************************************
HS scan start time = 19:12:01
Dark Count =  3.6 


Time (GMT)  Wavelength (Ang)  Step Number  Raw Counts  Counts/Second

 1152.39        2950.00           1222          59.00       241.50
 1152.45        2950.25           1226          64.00       263.30
 1152.49        2950.50           1229          63.00       258.94
 1152.52        2950.75           1232          64.00       263.30
 1152.55        2951.00           1236          60.00       245.86
 1152.58        2951.25           1239          62.00       254.58
 1152.61        2951.50           1242          58.00       237.14
 1152.64        2951.75           1246          58.00       237.14
 1152.67        2952.00           1249          68.00       280.73
 1152.70        2952.25           1252          62.00       254.58
 1152.73        2952.50           1256          57.00       232.78
 1152.76        2952.75           1259          60.00       245.86
 1152.79        2953.00           1262          61.00       250.22
 1152.82        2953.25           1266          65.00       267.66
 1152.85        2953.50           1269          54.00       219.71
 1152.89        2953.75           1272          63.00       258.94
 1152.92        2954.00           1276          64.00       263.30
 1152.95        2954.25           1279          61.00       250.22
 1152.98        2954.50           1282          58.00       237.14
 1153.01        2954.75           1286          58.00       237.14
 1153.04        2955.00           1289          62.00       254.58
 1153.07        2955.25           1292          61.00       250.22
 1153.10        2955.50           1296          58.00       237.14
 1153.13        2955.75           1299          54.00       219.71
 1153.16        2956.00           1302          63.00       258.94
 1153.19        2956.25           1306          62.00       254.58
 1153.23        2956.50           1309          69.00       285.09
 1153.26        2956.75           1312          62.00       254.58
 1153.29        2957.00           1316          59.00       241.50
 1153.32        2957.25           1319          60.00       245.86
 1153.35        2957.50           1322          58.00       237.14
 1153.38        2957.75           1326          59.00       241.50
 1153.41        2958.00           1329          51.00       206.63
 1153.44        2958.25           1332          57.00       232.78
 1153.47        2958.50           1336          61.00       250.22
 1153.50        2958.75           1339          60.00       245.86
 1153.54        2959.00           1342          61.00       250.22
 1153.57        2959.25           1346          63.00       258.94
 1153.60        2959.50           1349          68.00       280.73
 1153.63        2959.75           1352          79.00       328.69
 1153.66        2960.00           1356         106.00       446.39
 1153.69        2960.25           1359         137.00       581.53
 1153.72        2960.50           1362         168.00       716.67
 1153.75        2960.75           1366         223.00       956.44
 1153.78        2961.00           1369         254.00      1091.58
 1153.81        2961.25           1372         306.00      1318.27
 1153.84        2961.50           1376         379.00      1636.52
 1153.88        2961.75           1379         534.00      2312.28
 1153.91        2962.00           1382        1248.00      5425.47
 1153.94        2962.25           1386        2915.00     12696.20
 1153.97        2962.50           1389        4292.00     18704.48
 1154.00        2962.75           1392        5658.00     24666.90
 1154.03        2963.00           1396        7596.00     33129.69
 1154.06        2963.25           1399        8977.00     39162.81
 1154.09        2963.50           1402       10470.00     45687.70
 1154.12        2963.75           1406       12619.00     55083.98
 1154.16        2964.00           1409       14179.00     61908.25
 1154.19        2964.25           1412       15752.00     68792.22
 1154.22        2964.50           1416       17912.00     78249.74
 1154.25        2964.75           1419       19304.00     84347.44
 1154.28        2965.00           1422       20809.00     90942.64
 1154.31        2965.25           1426       22885.00    100044.40
 1154.34        2965.50           1429       24413.00    106746.70
 1154.37        2965.75           1432       25824.00    112938.20
 1154.40        2966.00           1436       27427.00    119975.10
 1154.43        2966.25           1439       29168.00    127621.10
 1154.46        2966.50           1442       30628.00    134035.70
 1154.50        2966.75           1446       31755.00    138989.00
 1154.53        2967.00           1449       32046.00    140268.20
 1154.56        2967.25           1452       32022.00    140162.70
 1154.59        2967.50           1456       31959.00    139885.70
 1154.62        2967.75           1459       32040.00    140241.80
 1154.65        2968.00           1462       31761.00    139015.40
 1154.68        2968.25           1466       30788.00    134738.90
 1154.71        2968.50           1469       29424.00    128745.70
 1154.74        2968.75           1472       28082.00    122851.30
 1154.77        2969.00           1476       26110.00    114193.50
 1154.81        2969.25           1479       24820.00    108532.40
 1154.84        2969.50           1482       23345.00    102061.80
 1154.87        2969.75           1486       21388.00     93480.62
 1154.90        2970.00           1489       19926.00     87072.84
 1154.93        2970.25           1492       18485.00     80759.51
 1154.96        2970.50           1496       16537.00     72228.71
 1154.99        2970.75           1499       15040.00     65675.93
 1155.02        2971.00           1502       13469.00     58801.99
 1155.06        2971.25           1506       11429.00     49880.17
 1155.09        2971.50           1509       10068.00     43930.58
 1155.12        2971.75           1513        8131.00     35466.66
 1155.15        2972.00           1516        6743.00     29404.31
 1155.18        2972.25           1519        5264.00     22946.92
 1155.21        2972.50           1523        3487.00     15191.75
 1155.24        2972.75           1526        2042.00      8888.16
 1155.27        2973.00           1529         921.00      3999.61
 1155.30        2973.25           1533         411.00      1776.03
 1155.33        2973.50           1536         312.00      1344.43
 1155.37        2973.75           1539         260.00      1117.74
 1155.40        2974.00           1543         216.00       925.92
 1155.43        2974.25           1546         183.00       782.06
 1155.46        2974.50           1549         126.00       533.57
 1155.49        2974.75           1553          93.00       389.72
 1155.52        2975.00           1556          75.00       311.25
 1155.55        2975.25           1559          63.00       258.94
 1155.58        2975.50           1563          50.00       202.27
 1155.61        2975.75           1566          63.00       258.94
 1155.64        2976.00           1569          51.00       206.63
 1155.68        2976.25           1573          56.00       228.42
 1155.71        2976.50           1576          60.00       245.86
 1155.74        2976.75           1579          56.00       228.42
 1155.77        2977.00           1583          60.00       245.86
 1155.80        2977.25           1586          53.00       215.35
 1155.83        2977.50           1590          65.00       267.66
 1155.86        2977.75           1593          60.00       245.86
 1155.89        2978.00           1596          48.00       193.55
 1155.92        2978.25           1600          55.00       224.06
 1155.96        2978.50           1603          54.00       219.71
 1155.99        2978.75           1606          57.00       232.78
 1156.02        2979.00           1610          58.00       237.14
 1156.05        2979.25           1613          53.00       215.35
 1156.08        2979.50           1616          52.00       210.99
 1156.11        2979.75           1620          60.00       245.86
 1156.14        2980.00           1623          55.00       224.06
 1156.17        2980.25           1626          53.00       215.35
 1156.20        2980.50           1630          57.00       232.78
 1156.23        2980.75           1633          55.00       224.06
 1156.26        2981.00           1637          59.00       241.50
 1156.29        2981.25           1640          61.00       250.22
 1156.32        2981.50           1643          56.00       228.42
 1156.36        2981.75           1647          51.00       206.63
 1156.39        2982.00           1650          52.00       210.99
 1156.42        2982.25           1653          46.00       184.83
 1156.45        2982.50           1657          54.00       219.71
 1156.48        2982.75           1660          53.00       215.35
 1156.51        2983.00           1663          46.00       184.83
 1156.54        2983.25           1667          58.00       237.14
 1156.57        2983.50           1670          51.00       206.63
 1156.60        2983.75           1673          51.00       206.63
 1156.63        2984.00           1677          57.00       232.78
HS scan finished at 19:16:51
end
