************************************************************
  HS Scan of (1) Internal mercury lamp
************************************************************
Integration time is 0.2294 seconds per sample
dh190317Manchester 53.47 2.23 2.804185pr1000
************************************************************
Dead Time -------------------------  3E-08 
Number of Cycles Used -------------  4 
Starting Wavelength (Angstroms) ---  2950 
Final Wavelength (Angstoms) -------  2984 
Wavelength Increment (Angstroms) --  .25 
Filter Wheel #1 Position ---------- (1) Ground quartz diffuser (ND=2.32)
Filter Wheel #2 Position ---------- (1) Neutral Density 0.494



************************************************************
HS scan start time = 03:06:34
Dark Count =  6.8 


Time (GMT)  Wavelength (Ang)  Step Number  Raw Counts  Counts/Second

  186.94        2950.00           1222          56.00       214.47
  187.01        2950.25           1226          44.00       162.16
  187.04        2950.50           1229          51.00       192.68
  187.07        2950.75           1232          46.00       170.88
  187.10        2951.00           1236          50.00       188.32
  187.14        2951.25           1239          46.00       170.88
  187.17        2951.50           1242          44.00       162.16
  187.20        2951.75           1246          54.00       205.76
  187.23        2952.00           1249          49.00       183.96
  187.26        2952.25           1252          46.00       170.88
  187.29        2952.50           1256          47.00       175.24
  187.32        2952.75           1259          46.00       170.88
  187.35        2953.00           1262          46.00       170.88
  187.38        2953.25           1266          47.00       175.24
  187.41        2953.50           1269          37.00       131.65
  187.44        2953.75           1272          46.00       170.88
  187.47        2954.00           1276          50.00       188.32
  187.50        2954.25           1279          45.00       166.52
  187.53        2954.50           1282          46.00       170.88
  187.57        2954.75           1286          36.00       127.29
  187.60        2955.00           1289          43.00       157.80
  187.63        2955.25           1292          42.00       153.44
  187.66        2955.50           1296          45.00       166.52
  187.69        2955.75           1299          47.00       175.24
  187.72        2956.00           1302          44.00       162.16
  187.75        2956.25           1306          42.00       153.44
  187.78        2956.50           1309          44.00       162.16
  187.81        2956.75           1312          52.00       197.04
  187.84        2957.00           1316          49.00       183.96
  187.87        2957.25           1319          49.00       183.96
  187.91        2957.50           1322          48.00       179.60
  187.94        2957.75           1326          48.00       179.60
  187.97        2958.00           1329          45.00       166.52
  188.00        2958.25           1332          43.00       157.80
  188.03        2958.50           1336          52.00       197.04
  188.06        2958.75           1339          47.00       175.24
  188.09        2959.00           1342          57.00       218.83
  188.12        2959.25           1346          51.00       192.68
  188.15        2959.50           1349          59.00       227.55
  188.18        2959.75           1352          73.00       288.58
  188.22        2960.00           1356          95.00       384.49
  188.25        2960.25           1359         145.00       602.45
  188.28        2960.50           1362         180.00       755.03
  188.31        2960.75           1366         231.00       977.36
  188.34        2961.00           1369         276.00      1173.54
  188.37        2961.25           1372         328.00      1400.23
  188.40        2961.50           1376         410.00      1757.72
  188.43        2961.75           1379         721.00      3113.63
  188.46        2962.00           1382        1506.00      6536.59
  188.49        2962.25           1386        3393.00     14767.66
  188.52        2962.50           1389        4956.00     21588.52
  188.56        2962.75           1392        6624.00     28870.68
  188.59        2963.00           1396        8668.00     37798.73
  188.62        2963.25           1399       10257.00     44742.67
  188.65        2963.50           1402       11961.00     52192.39
  188.68        2963.75           1406       14131.00     61684.23
  188.71        2964.00           1409       16046.00     70065.16
  188.74        2964.25           1412       17757.00     77556.88
  188.77        2964.50           1416       20109.00     87860.75
  188.80        2964.75           1419       21859.00     95531.46
  188.84        2965.00           1422       23336.00    102008.30
  188.87        2965.25           1426       25371.00    110936.20
  188.90        2965.50           1429       27145.00    118722.90
  188.93        2965.75           1432       28736.00    125709.50
  188.96        2966.00           1436       30824.00    134883.00
  188.99        2966.25           1439       32452.00    142039.00
  189.02        2966.50           1442       34020.00    148934.20
  189.05        2966.75           1446       35459.00    155264.70
  189.08        2967.00           1449       36071.00    157957.70
  189.12        2967.25           1452       36046.00    157847.70
  189.15        2967.50           1456       36082.00    158006.10
  189.18        2967.75           1459       35874.00    157090.80
  189.21        2968.00           1462       35662.00    156157.90
  189.24        2968.25           1466       34498.00    151036.80
  189.27        2968.50           1469       33069.00    144751.90
  189.30        2968.75           1472       31661.00    138561.70
  189.33        2969.00           1476       29440.00    128801.90
  189.36        2969.25           1479       27879.00    121945.80
  189.40        2969.50           1482       26272.00    114890.50
  189.43        2969.75           1486       24122.00    105456.00
  189.46        2970.00           1489       22193.00     96995.87
  189.49        2970.25           1492       20614.00     90073.92
  189.52        2970.50           1496       18298.00     79926.38
  189.55        2970.75           1499       16568.00     72350.41
  189.58        2971.00           1502       15046.00     65688.18
  189.61        2971.25           1506       12905.00     56320.89
  189.64        2971.50           1509       11140.00     48602.64
  189.68        2971.75           1513        9042.00     39432.85
  189.71        2972.00           1516        7372.00     32137.34
  189.74        2972.25           1519        5639.00     24569.98
  189.77        2972.50           1523        3618.00     15749.37
  189.80        2972.75           1526        2092.00      9092.28
  189.83        2973.00           1529        1002.00      4338.84
  189.86        2973.25           1533         470.00      2019.30
  189.89        2973.50           1536         326.00      1391.51
  189.92        2973.75           1539         304.00      1295.60
  189.96        2974.00           1543         258.00      1095.07
  189.99        2974.25           1546         210.00       885.81
  190.02        2974.50           1549         148.00       615.53
  190.05        2974.75           1553          94.00       380.13
  190.08        2975.00           1556          73.00       288.58
  190.11        2975.25           1559          55.00       210.11
  190.14        2975.50           1563          51.00       192.68
  190.17        2975.75           1566          42.00       153.44
  190.20        2976.00           1569          49.00       183.96
  190.23        2976.25           1573          50.00       188.32
  190.26        2976.50           1576          50.00       188.32
  190.29        2976.75           1579          45.00       166.52
  190.32        2977.00           1583          55.00       210.11
  190.36        2977.25           1586          44.00       162.16
  190.39        2977.50           1590          54.00       205.76
  190.42        2977.75           1593          39.00       140.37
  190.45        2978.00           1596          43.00       157.80
  190.48        2978.25           1600          45.00       166.52
  190.51        2978.50           1603          48.00       179.60
  190.54        2978.75           1606          45.00       166.52
  190.57        2979.00           1610          49.00       183.96
  190.60        2979.25           1613          44.00       162.16
  190.63        2979.50           1616          46.00       170.88
  190.67        2979.75           1620          42.00       153.44
  190.70        2980.00           1623          49.00       183.96
  190.73        2980.25           1626          39.00       140.37
  190.76        2980.50           1630          43.00       157.80
  190.79        2980.75           1633          43.00       157.80
  190.82        2981.00           1637          50.00       188.32
  190.85        2981.25           1640          46.00       170.88
  190.88        2981.50           1643          46.00       170.88
  190.91        2981.75           1647          45.00       166.52
  190.94        2982.00           1650          44.00       162.16
  190.97        2982.25           1653          48.00       179.60
  191.00        2982.50           1657          43.00       157.80
  191.03        2982.75           1660          44.00       162.16
  191.06        2983.00           1663          45.00       166.52
  191.09        2983.25           1667          47.00       175.24
  191.12        2983.50           1670          45.00       166.52
  191.15        2983.75           1673          44.00       162.16
  191.19        2984.00           1677          40.00       144.73
HS scan finished at 03:11:24
end
************************************************************
  HS Scan of (1) Internal mercury lamp
************************************************************
Integration time is 0.2294 seconds per sample
dh190317Manchester 53.47 2.23 2.804185pr1000
************************************************************
Dead Time -------------------------  3E-08 
Number of Cycles Used -------------  4 
Starting Wavelength (Angstroms) ---  2950 
Final Wavelength (Angstoms) -------  2984 
Wavelength Increment (Angstroms) --  .25 
Filter Wheel #1 Position ---------- (1) Ground quartz diffuser (ND=2.32)
Filter Wheel #2 Position ---------- (1) Neutral Density 0.494



************************************************************
HS scan start time = 19:12:03
Dark Count =  6.7 


Time (GMT)  Wavelength (Ang)  Step Number  Raw Counts  Counts/Second

 1152.42        2950.00           1222          38.00       136.44
 1152.49        2950.25           1226          46.00       171.32
 1152.52        2950.50           1229          45.00       166.96
 1152.55        2950.75           1232          42.00       153.88
 1152.58        2951.00           1236          45.00       166.96
 1152.61        2951.25           1239          49.00       184.40
 1152.64        2951.50           1242          44.00       162.60
 1152.67        2951.75           1246          42.00       153.88
 1152.70        2952.00           1249          50.00       188.75
 1152.74        2952.25           1252          54.00       206.19
 1152.77        2952.50           1256          49.00       184.40
 1152.80        2952.75           1259          41.00       149.52
 1152.83        2953.00           1262          49.00       184.40
 1152.86        2953.25           1266          47.00       175.68
 1152.89        2953.50           1269          49.00       184.40
 1152.92        2953.75           1272          45.00       166.96
 1152.95        2954.00           1276          57.00       219.27
 1152.98        2954.25           1279          42.00       153.88
 1153.01        2954.50           1282          45.00       166.96
 1153.05        2954.75           1286          49.00       184.40
 1153.08        2955.00           1289          45.00       166.96
 1153.11        2955.25           1292          44.00       162.60
 1153.14        2955.50           1296          45.00       166.96
 1153.17        2955.75           1299          47.00       175.68
 1153.20        2956.00           1302          42.00       153.88
 1153.23        2956.25           1306          45.00       166.96
 1153.26        2956.50           1309          59.00       227.99
 1153.29        2956.75           1312          42.00       153.88
 1153.33        2957.00           1316          68.00       267.22
 1153.36        2957.25           1319          50.00       188.75
 1153.39        2957.50           1322          40.00       145.16
 1153.42        2957.75           1326          46.00       171.32
 1153.45        2958.00           1329          45.00       166.96
 1153.48        2958.25           1332          48.00       180.04
 1153.51        2958.50           1336          52.00       197.47
 1153.54        2958.75           1339          44.00       162.60
 1153.57        2959.00           1342          49.00       184.40
 1153.60        2959.25           1346          53.00       201.83
 1153.63        2959.50           1349          55.00       210.55
 1153.66        2959.75           1352          69.00       271.58
 1153.70        2960.00           1356          81.00       323.89
 1153.73        2960.25           1359         106.00       432.87
 1153.76        2960.50           1362         149.00       620.33
 1153.79        2960.75           1366         209.00       881.89
 1153.82        2961.00           1369         238.00      1008.31
 1153.85        2961.25           1372         297.00      1265.52
 1153.88        2961.50           1376         381.00      1631.73
 1153.91        2961.75           1379         601.00      2590.87
 1153.94        2962.00           1382        1158.00      5019.50
 1153.97        2962.25           1386        2951.00     12839.73
 1154.00        2962.50           1389        4470.00     19467.78
 1154.04        2962.75           1392        5977.00     26046.06
 1154.07        2963.00           1396        8125.00     35426.91
 1154.10        2963.25           1399        9831.00     42881.19
 1154.13        2963.50           1402       11490.00     50133.32
 1154.16        2963.75           1406       13643.00     59549.63
 1154.19        2964.00           1409       15350.00     67019.10
 1154.22        2964.25           1412       17304.00     75573.50
 1154.25        2964.50           1416       19622.00     85727.18
 1154.28        2964.75           1419       21163.00     92480.74
 1154.32        2965.00           1422       22822.00     99754.50
 1154.35        2965.25           1426       25127.00    109865.90
 1154.38        2965.50           1429       27005.00    118108.70
 1154.41        2965.75           1432       28339.00    123966.30
 1154.44        2966.00           1436       30810.00    134821.90
 1154.47        2966.25           1439       32517.00    142325.30
 1154.50        2966.50           1442       33621.00    147179.80
 1154.53        2966.75           1446       35246.00    154328.00
 1154.56        2967.00           1449       35677.00    156224.40
 1154.59        2967.25           1452       35925.00    157315.70
 1154.62        2967.50           1456       35889.00    157157.30
 1154.66        2967.75           1459       35962.00    157478.50
 1154.69        2968.00           1462       35770.00    156633.60
 1154.72        2968.25           1466       34768.00    152225.00
 1154.75        2968.50           1469       33415.00    146273.90
 1154.78        2968.75           1472       31852.00    139401.70
 1154.81        2969.00           1476       30002.00    131271.40
 1154.84        2969.25           1479       28304.00    123812.60
 1154.87        2969.50           1482       26782.00    117129.70
 1154.91        2969.75           1486       24608.00    107588.60
 1154.94        2970.00           1489       22712.00     99272.11
 1154.97        2970.25           1492       21138.00     92371.14
 1155.00        2970.50           1496       19013.00     83058.94
 1155.03        2970.75           1499       17459.00     76252.26
 1155.06        2971.00           1502       15615.00     68178.98
 1155.09        2971.25           1506       13515.00     58989.65
 1155.12        2971.50           1509       11855.00     51729.30
 1155.15        2971.75           1513        9645.00     42068.32
 1155.18        2972.00           1516        8045.00     35077.43
 1155.22        2972.25           1519        6420.00     27980.32
 1155.25        2972.50           1523        4335.00     18878.60
 1155.28        2972.75           1526        2813.00     12237.71
 1155.31        2973.00           1529        1466.00      6362.59
 1155.34        2973.25           1533         572.00      2464.44
 1155.37        2973.50           1536         383.00      1640.45
 1155.40        2973.75           1539         316.00      1348.35
 1155.43        2974.00           1543         253.00      1073.71
 1155.46        2974.25           1546         213.00       899.33
 1155.49        2974.50           1549         158.00       659.56
 1155.52        2974.75           1553          95.00       384.92
 1155.56        2975.00           1556          79.00       315.17
 1155.59        2975.25           1559          70.00       275.94
 1155.62        2975.50           1563          51.00       193.11
 1155.65        2975.75           1566          48.00       180.04
 1155.68        2976.00           1569          51.00       193.11
 1155.71        2976.25           1573          43.00       158.24
 1155.74        2976.50           1576          46.00       171.32
 1155.77        2976.75           1579          49.00       184.40
 1155.80        2977.00           1583          41.00       149.52
 1155.83        2977.25           1586          51.00       193.11
 1155.86        2977.50           1590          46.00       171.32
 1155.89        2977.75           1593          43.00       158.24
 1155.92        2978.00           1596          50.00       188.75
 1155.96        2978.25           1600          48.00       180.04
 1155.99        2978.50           1603          47.00       175.68
 1156.02        2978.75           1606          48.00       180.04
 1156.05        2979.00           1610          45.00       166.96
 1156.08        2979.25           1613          49.00       184.40
 1156.11        2979.50           1616          41.00       149.52
 1156.14        2979.75           1620          48.00       180.04
 1156.17        2980.00           1623          44.00       162.60
 1156.20        2980.25           1626          38.00       136.44
 1156.23        2980.50           1630          53.00       201.83
 1156.26        2980.75           1633          40.00       145.16
 1156.29        2981.00           1637          40.00       145.16
 1156.32        2981.25           1640          42.00       153.88
 1156.35        2981.50           1643          47.00       175.68
 1156.38        2981.75           1647          51.00       193.11
 1156.42        2982.00           1650          42.00       153.88
 1156.45        2982.25           1653          42.00       153.88
 1156.48        2982.50           1657          42.00       153.88
 1156.51        2982.75           1660          47.00       175.68
 1156.54        2983.00           1663          45.00       166.96
 1156.57        2983.25           1667          48.00       180.04
 1156.60        2983.50           1670          42.00       153.88
 1156.63        2983.75           1673          45.00       166.96
 1156.66        2984.00           1677          44.00       162.60
HS scan finished at 19:16:53
end
