************************************************************
  HS Scan of (1) Internal mercury lamp
************************************************************
Integration time is 0.2294 seconds per sample
dh130319Manchester 53.47 2.23 2.804185pr1000
************************************************************
Dead Time -------------------------  3E-08 
Number of Cycles Used -------------  4 
Starting Wavelength (Angstroms) ---  2950 
Final Wavelength (Angstoms) -------  2984 
Wavelength Increment (Angstroms) --  .25 
Filter Wheel #1 Position ---------- (1) Ground quartz diffuser (ND=2.32)
Filter Wheel #2 Position ---------- (1) Neutral Density 0.494



************************************************************
HS scan start time = 03:31:06
Dark Count =  5.1 


Time (GMT)  Wavelength (Ang)  Step Number  Raw Counts  Counts/Second

  211.46        2950.00           1222          57.00       226.24
  211.53        2950.25           1226          51.00       200.09
  211.56        2950.50           1229          49.00       191.37
  211.59        2950.75           1232          53.00       208.81
  211.62        2951.00           1236          57.00       226.24
  211.65        2951.25           1239          56.00       221.88
  211.69        2951.50           1242          59.00       234.96
  211.72        2951.75           1246          63.00       252.40
  211.75        2952.00           1249          59.00       234.96
  211.78        2952.25           1252          51.00       200.09
  211.81        2952.50           1256          52.00       204.45
  211.84        2952.75           1259          59.00       234.96
  211.87        2953.00           1262          61.00       243.68
  211.90        2953.25           1266          56.00       221.88
  211.93        2953.50           1269          49.00       191.37
  211.97        2953.75           1272          58.00       230.60
  212.00        2954.00           1276          56.00       221.88
  212.03        2954.25           1279          50.00       195.73
  212.06        2954.50           1282          61.00       243.68
  212.09        2954.75           1286          51.00       200.09
  212.12        2955.00           1289          57.00       226.24
  212.15        2955.25           1292          52.00       204.45
  212.18        2955.50           1296          58.00       230.60
  212.21        2955.75           1299          57.00       226.24
  212.24        2956.00           1302          53.00       208.81
  212.27        2956.25           1306          52.00       204.45
  212.31        2956.50           1309          66.00       265.48
  212.34        2956.75           1312          59.00       234.96
  212.37        2957.00           1316          54.00       213.17
  212.40        2957.25           1319          55.00       217.53
  212.43        2957.50           1322          61.00       243.68
  212.46        2957.75           1326          48.00       187.01
  212.49        2958.00           1329          48.00       187.01
  212.52        2958.25           1332          52.00       204.45
  212.55        2958.50           1336          54.00       213.17
  212.58        2958.75           1339          61.00       243.68
  212.61        2959.00           1342          49.00       191.37
  212.65        2959.25           1346          62.00       248.04
  212.68        2959.50           1349          62.00       248.04
  212.71        2959.75           1352          68.00       274.20
  212.74        2960.00           1356          73.00       295.99
  212.77        2960.25           1359          98.00       404.97
  212.80        2960.50           1362         126.00       527.04
  212.83        2960.75           1366         168.00       710.13
  212.86        2961.00           1369         211.00       897.58
  212.89        2961.25           1372         244.00      1041.44
  212.93        2961.50           1376         284.00      1215.82
  212.96        2961.75           1379         373.00      1603.83
  212.99        2962.00           1382         735.00      3182.08
  213.02        2962.25           1386        2002.00      8707.16
  213.05        2962.50           1389        3195.00     13911.21
  213.08        2962.75           1392        4392.00     19134.35
  213.11        2963.00           1396        5917.00     25791.09
  213.14        2963.25           1399        7163.00     31231.95
  213.17        2963.50           1402        8473.00     36954.20
  213.21        2963.75           1406       10003.00     43639.93
  213.24        2964.00           1409       11440.00     49921.71
  213.27        2964.25           1412       12607.00     55024.94
  213.30        2964.50           1416       14300.00     62431.12
  213.33        2964.75           1419       15543.00     67870.84
  213.36        2965.00           1422       16695.00     72913.90
  213.39        2965.25           1426       18502.00     80827.41
  213.42        2965.50           1429       19768.00     86373.92
  213.45        2965.75           1432       21037.00     91935.43
  213.49        2966.00           1436       22611.00     98836.22
  213.52        2966.25           1439       23532.00    102875.40
  213.55        2966.50           1442       24617.00    107635.20
  213.58        2966.75           1446       25991.00    113664.60
  213.61        2967.00           1449       26371.00    115332.50
  213.64        2967.25           1452       26590.00    116293.90
  213.67        2967.50           1456       26552.00    116127.10
  213.70        2967.75           1459       26570.00    116206.10
  213.73        2968.00           1462       26386.00    115398.40
  213.77        2968.25           1466       25697.00    112374.30
  213.80        2968.50           1469       24822.00    108534.60
  213.83        2968.75           1472       23396.00    102278.90
  213.86        2969.00           1476       21856.00     95525.76
  213.89        2969.25           1479       20811.00     90944.83
  213.92        2969.50           1482       19625.00     85747.33
  213.95        2969.75           1486       18057.00     78878.24
  213.98        2970.00           1489       16789.00     73325.46
  214.01        2970.25           1492       15756.00     68803.18
  214.05        2970.50           1496       14227.00     62111.71
  214.08        2970.75           1499       12841.00     56048.40
  214.11        2971.00           1502       11609.00     50660.64
  214.14        2971.25           1506        9834.00     42901.31
  214.17        2971.50           1509        8509.00     37111.49
  214.20        2971.75           1513        6945.00     30279.89
  214.23        2972.00           1516        5786.00     25219.16
  214.26        2972.25           1519        4568.00     19902.46
  214.29        2972.50           1523        3147.00     13701.80
  214.33        2972.75           1526        2062.00      8968.85
  214.36        2973.00           1529         991.00      4298.29
  214.39        2973.25           1533         415.00      1786.93
  214.42        2973.50           1536         291.00      1246.34
  214.45        2973.75           1539         252.00      1076.32
  214.48        2974.00           1543         210.00       893.22
  214.51        2974.25           1546         160.00       675.25
  214.54        2974.50           1549         150.00       631.66
  214.57        2974.75           1553         106.00       439.85
  214.60        2975.00           1556          78.00       317.79
  214.64        2975.25           1559          65.00       261.12
  214.67        2975.50           1563          58.00       230.60
  214.70        2975.75           1566          55.00       217.53
  214.73        2976.00           1569          58.00       230.60
  214.76        2976.25           1573          51.00       200.09
  214.79        2976.50           1576          45.00       173.93
  214.82        2976.75           1579          51.00       200.09
  214.85        2977.00           1583          48.00       187.01
  214.88        2977.25           1586          52.00       204.45
  214.92        2977.50           1590          51.00       200.09
  214.95        2977.75           1593          53.00       208.81
  214.98        2978.00           1596          52.00       204.45
  215.01        2978.25           1600          48.00       187.01
  215.04        2978.50           1603          51.00       200.09
  215.07        2978.75           1606          44.00       169.57
  215.10        2979.00           1610          60.00       239.32
  215.13        2979.25           1613          52.00       204.45
  215.16        2979.50           1616          47.00       182.65
  215.19        2979.75           1620          59.00       234.96
  215.23        2980.00           1623          57.00       226.24
  215.26        2980.25           1626          50.00       195.73
  215.29        2980.50           1630          51.00       200.09
  215.32        2980.75           1633          58.00       230.60
  215.35        2981.00           1637          43.00       165.21
  215.38        2981.25           1640          50.00       195.73
  215.41        2981.50           1643          57.00       226.24
  215.44        2981.75           1647          48.00       187.01
  215.47        2982.00           1650          45.00       173.93
  215.50        2982.25           1653          54.00       213.17
  215.53        2982.50           1657          53.00       208.81
  215.57        2982.75           1660          54.00       213.17
  215.60        2983.00           1663          46.00       178.29
  215.63        2983.25           1667          44.00       169.57
  215.66        2983.50           1670          55.00       217.53
  215.69        2983.75           1673          53.00       208.81
  215.72        2984.00           1677          44.00       169.57
HS scan finished at 03:35:56
end
************************************************************
  HS Scan of (1) Internal mercury lamp
************************************************************
Integration time is 0.2294 seconds per sample
dh130319Manchester 53.47 2.23 2.804185pr1000
************************************************************
Dead Time -------------------------  3E-08 
Number of Cycles Used -------------  4 
Starting Wavelength (Angstroms) ---  2950 
Final Wavelength (Angstoms) -------  2984 
Wavelength Increment (Angstroms) --  .25 
Filter Wheel #1 Position ---------- (1) Ground quartz diffuser (ND=2.32)
Filter Wheel #2 Position ---------- (1) Neutral Density 0.494



************************************************************
HS scan start time = 19:12:08
Dark Count =  3.9 


Time (GMT)  Wavelength (Ang)  Step Number  Raw Counts  Counts/Second

 1152.50        2950.00           1222          62.00       253.27
 1152.57        2950.25           1226          65.00       266.35
 1152.60        2950.50           1229          56.00       227.12
 1152.63        2950.75           1232          55.00       222.76
 1152.66        2951.00           1236          59.00       240.19
 1152.69        2951.25           1239          58.00       235.83
 1152.72        2951.50           1242          49.00       196.60
 1152.75        2951.75           1246          75.00       309.94
 1152.78        2952.00           1249          59.00       240.19
 1152.81        2952.25           1252          51.00       205.32
 1152.84        2952.50           1256          54.00       218.40
 1152.88        2952.75           1259          60.00       244.55
 1152.91        2953.00           1262          58.00       235.83
 1152.94        2953.25           1266          58.00       235.83
 1152.97        2953.50           1269          64.00       261.99
 1153.00        2953.75           1272          56.00       227.12
 1153.03        2954.00           1276          53.00       214.04
 1153.06        2954.25           1279          54.00       218.40
 1153.09        2954.50           1282          60.00       244.55
 1153.12        2954.75           1286          50.00       200.96
 1153.15        2955.00           1289          55.00       222.76
 1153.19        2955.25           1292          55.00       222.76
 1153.22        2955.50           1296          57.00       231.48
 1153.25        2955.75           1299          60.00       244.55
 1153.28        2956.00           1302          45.00       179.16
 1153.31        2956.25           1306          56.00       227.12
 1153.34        2956.50           1309          55.00       222.76
 1153.37        2956.75           1312          62.00       253.27
 1153.40        2957.00           1316          48.00       192.24
 1153.43        2957.25           1319          53.00       214.04
 1153.46        2957.50           1322          56.00       227.12
 1153.49        2957.75           1326          53.00       214.04
 1153.53        2958.00           1329          61.00       248.91
 1153.56        2958.25           1332          48.00       192.24
 1153.59        2958.50           1336          58.00       235.83
 1153.62        2958.75           1339          55.00       222.76
 1153.65        2959.00           1342          59.00       240.19
 1153.68        2959.25           1346          66.00       270.71
 1153.71        2959.50           1349          64.00       261.99
 1153.74        2959.75           1352          66.00       270.71
 1153.77        2960.00           1356          90.00       375.33
 1153.80        2960.25           1359         117.00       493.03
 1153.83        2960.50           1362         138.00       584.58
 1153.86        2960.75           1366         172.00       732.80
 1153.89        2961.00           1369         208.00       889.74
 1153.93        2961.25           1372         255.00      1094.63
 1153.96        2961.50           1376         277.00      1190.54
 1153.99        2961.75           1379         378.00      1630.86
 1154.02        2962.00           1382         714.00      3095.75
 1154.05        2962.25           1386        1946.00      8468.15
 1154.08        2962.50           1389        3067.00     13358.01
 1154.11        2962.75           1392        4163.00     18140.21
 1154.14        2963.00           1396        5599.00     24408.02
 1154.17        2963.25           1399        6887.00     30031.84
 1154.20        2963.50           1402        8129.00     35456.62
 1154.23        2963.75           1406        9807.00     42788.55
 1154.27        2964.00           1409       11087.00     48383.61
 1154.30        2964.25           1412       12228.00     53372.66
 1154.33        2964.50           1416       13812.00     60301.23
 1154.36        2964.75           1419       15105.00     65959.07
 1154.39        2965.00           1422       16364.00     71469.99
 1154.42        2965.25           1426       17995.00     78611.95
 1154.45        2965.50           1429       19285.00     84262.87
 1154.48        2965.75           1432       20469.00     89451.14
 1154.51        2966.00           1436       22041.00     96342.12
 1154.55        2966.25           1439       23125.00    101095.60
 1154.58        2966.50           1442       24253.00    106043.50
 1154.61        2966.75           1446       25514.00    111576.40
 1154.64        2967.00           1449       26129.00    114275.60
 1154.67        2967.25           1452       26240.00    114762.80
 1154.70        2967.50           1456       26419.00    115548.50
 1154.73        2967.75           1459       26326.00    115140.30
 1154.76        2968.00           1462       26157.00    114398.50
 1154.79        2968.25           1466       25696.00    112375.20
 1154.82        2968.50           1469       24726.00    108118.70
 1154.85        2968.75           1472       23572.00    103056.10
 1154.89        2969.00           1476       22101.00     96605.21
 1154.92        2969.25           1479       20897.00     91327.03
 1154.95        2969.50           1482       19749.00     86295.91
 1154.98        2969.75           1486       18122.00     79168.19
 1155.01        2970.00           1489       16807.00     73409.53
 1155.04        2970.25           1492       15746.00     68764.65
 1155.07        2970.50           1496       14319.00     62519.51
 1155.10        2970.75           1499       12895.00     56289.83
 1155.14        2971.00           1502       11727.00     51181.84
 1155.17        2971.25           1506        9995.00     43610.21
 1155.20        2971.50           1509        8687.00     37894.41
 1155.23        2971.75           1513        7095.00     30940.22
 1155.26        2972.00           1516        5990.00     26115.05
 1155.29        2972.25           1519        4838.00     21086.13
 1155.32        2972.50           1523        3213.00     13994.98
 1155.35        2972.75           1526        2111.00      9187.80
 1155.38        2973.00           1529        1069.00      4643.63
 1155.41        2973.25           1533         397.00      1713.69
 1155.44        2973.50           1536         290.00      1247.21
 1155.47        2973.75           1539         235.00      1007.44
 1155.50        2974.00           1543         193.00       824.34
 1155.54        2974.25           1546         157.00       667.41
 1155.57        2974.50           1549         106.00       445.08
 1155.60        2974.75           1553          76.00       314.30
 1155.63        2975.00           1556          74.00       305.58
 1155.66        2975.25           1559          56.00       227.12
 1155.69        2975.50           1563          46.00       183.52
 1155.72        2975.75           1566          52.00       209.68
 1155.75        2976.00           1569          55.00       222.76
 1155.78        2976.25           1573          61.00       248.91
 1155.82        2976.50           1576          49.00       196.60
 1155.85        2976.75           1579          49.00       196.60
 1155.88        2977.00           1583          48.00       192.24
 1155.91        2977.25           1586          52.00       209.68
 1155.94        2977.50           1590          53.00       214.04
 1155.97        2977.75           1593          55.00       222.76
 1156.00        2978.00           1596          44.00       174.80
 1156.03        2978.25           1600          53.00       214.04
 1156.06        2978.50           1603          54.00       218.40
 1156.09        2978.75           1606          48.00       192.24
 1156.12        2979.00           1610          57.00       231.48
 1156.15        2979.25           1613          56.00       227.12
 1156.18        2979.50           1616          47.00       187.88
 1156.21        2979.75           1620          45.00       179.16
 1156.24        2980.00           1623          51.00       205.32
 1156.27        2980.25           1626          48.00       192.24
 1156.31        2980.50           1630          50.00       200.96
 1156.34        2980.75           1633          54.00       218.40
 1156.37        2981.00           1637          48.00       192.24
 1156.40        2981.25           1640          52.00       209.68
 1156.43        2981.50           1643          54.00       218.40
 1156.46        2981.75           1647          56.00       227.12
 1156.49        2982.00           1650          51.00       205.32
 1156.52        2982.25           1653          57.00       231.48
 1156.55        2982.50           1657          43.00       170.45
 1156.59        2982.75           1660          58.00       235.83
 1156.62        2983.00           1663          50.00       200.96
 1156.65        2983.25           1667          47.00       187.88
 1156.68        2983.50           1670          43.00       170.45
 1156.71        2983.75           1673          50.00       200.96
 1156.74        2984.00           1677          49.00       196.60
HS scan finished at 19:16:58
end
