************************************************************
  HS Scan of (1) Internal mercury lamp
************************************************************
Integration time is 0.2294 seconds per sample
dh120317Manchester 53.47 2.23 2.804185pr1000
************************************************************
Dead Time -------------------------  3E-08 
Number of Cycles Used -------------  4 
Starting Wavelength (Angstroms) ---  2950 
Final Wavelength (Angstoms) -------  2984 
Wavelength Increment (Angstroms) --  .25 
Filter Wheel #1 Position ---------- (1) Ground quartz diffuser (ND=2.32)
Filter Wheel #2 Position ---------- (1) Neutral Density 0.494



************************************************************
HS scan start time = 03:32:44
Dark Count =  8.3 


Time (GMT)  Wavelength (Ang)  Step Number  Raw Counts  Counts/Second

  213.10        2950.00           1222          44.00       155.62
  213.17        2950.25           1226          42.00       146.91
  213.20        2950.50           1229          44.00       155.62
  213.23        2950.75           1232          50.00       181.78
  213.26        2951.00           1236          45.00       159.98
  213.29        2951.25           1239          42.00       146.91
  213.32        2951.50           1242          51.00       186.14
  213.35        2951.75           1246          42.00       146.91
  213.38        2952.00           1249          46.00       164.34
  213.41        2952.25           1252          47.00       168.70
  213.44        2952.50           1256          48.00       173.06
  213.47        2952.75           1259          44.00       155.62
  213.51        2953.00           1262          43.00       151.26
  213.54        2953.25           1266          45.00       159.98
  213.57        2953.50           1269          43.00       151.26
  213.60        2953.75           1272          46.00       164.34
  213.63        2954.00           1276          44.00       155.62
  213.66        2954.25           1279          39.00       133.83
  213.69        2954.50           1282          46.00       164.34
  213.72        2954.75           1286          45.00       159.98
  213.75        2955.00           1289          49.00       177.42
  213.78        2955.25           1292          51.00       186.14
  213.81        2955.50           1296          48.00       173.06
  213.84        2955.75           1299          47.00       168.70
  213.87        2956.00           1302          46.00       164.34
  213.91        2956.25           1306          41.00       142.55
  213.94        2956.50           1309          43.00       151.26
  213.97        2956.75           1312          43.00       151.26
  214.00        2957.00           1316          44.00       155.62
  214.03        2957.25           1319          48.00       173.06
  214.06        2957.50           1322          47.00       168.70
  214.09        2957.75           1326          45.00       159.98
  214.12        2958.00           1329          59.00       221.01
  214.15        2958.25           1332          43.00       151.26
  214.18        2958.50           1336          44.00       155.62
  214.21        2958.75           1339          48.00       173.06
  214.24        2959.00           1342          55.00       203.58
  214.28        2959.25           1346          53.00       194.86
  214.31        2959.50           1349          47.00       168.70
  214.34        2959.75           1352          59.00       221.01
  214.37        2960.00           1356          73.00       282.04
  214.40        2960.25           1359          96.00       382.31
  214.43        2960.50           1362         130.00       530.52
  214.46        2960.75           1366         194.00       809.52
  214.49        2961.00           1369         246.00      1036.21
  214.52        2961.25           1372         271.00      1145.20
  214.55        2961.50           1376         381.00      1624.75
  214.58        2961.75           1379         644.00      2771.37
  214.61        2962.00           1382        1296.00      5614.28
  214.64        2962.25           1386        2968.00     12906.92
  214.67        2962.50           1389        4618.00     20106.72
  214.71        2962.75           1392        6254.00     27248.51
  214.74        2963.00           1396        8274.00     36070.84
  214.77        2963.25           1399        9990.00     43569.12
  214.80        2963.50           1402       11533.00     50314.34
  214.83        2963.75           1406       13812.00     60281.98
  214.86        2964.00           1409       15782.00     68902.96
  214.89        2964.25           1412       17569.00     76726.97
  214.92        2964.50           1416       19965.00     87223.14
  214.96        2964.75           1419       21763.00     95104.00
  214.99        2965.00           1422       23167.00    101260.50
  215.02        2965.25           1426       25497.00    111482.50
  215.05        2965.50           1429       27173.00    118839.20
  215.08        2965.75           1432       28877.00    126322.20
  215.11        2966.00           1436       30951.00    135434.50
  215.14        2966.25           1439       32443.00    141992.90
  215.17        2966.50           1442       33888.00    148347.10
  215.20        2966.75           1446       35466.00    155288.90
  215.23        2967.00           1449       35938.00    157365.90
  215.27        2967.25           1452       35857.00    157009.40
  215.30        2967.50           1456       36030.00    157770.70
  215.33        2967.75           1459       35901.00    157203.00
  215.36        2968.00           1462       35590.00    155834.50
  215.39        2968.25           1466       34812.00    152411.50
  215.42        2968.50           1469       33204.00    145339.00
  215.45        2968.75           1472       31715.00    138792.50
  215.48        2969.00           1476       29768.00    130236.30
  215.51        2969.25           1479       28261.00    123616.70
  215.55        2969.50           1482       26551.00    116108.60
  215.58        2969.75           1486       24371.00    106541.80
  215.61        2970.00           1489       22502.00     98344.22
  215.64        2970.25           1492       21001.00     91763.61
  215.67        2970.50           1496       18943.00     82745.25
  215.70        2970.75           1499       17181.00     75027.88
  215.73        2971.00           1502       15531.00     67804.31
  215.76        2971.25           1506       13281.00     57959.02
  215.79        2971.50           1509       11582.00     50528.59
  215.82        2971.75           1513        9449.00     41204.79
  215.85        2972.00           1516        7895.00     34415.20
  215.88        2972.25           1519        6199.00     27008.36
  215.92        2972.50           1523        4211.00     18330.48
  215.95        2972.75           1526        2724.00     11842.48
  215.98        2973.00           1529        1353.00      5862.84
  216.01        2973.25           1533         574.00      2466.18
  216.04        2973.50           1536         385.00      1642.19
  216.07        2973.75           1539         320.00      1358.82
  216.10        2974.00           1543         307.00      1302.14
  216.13        2974.25           1546         227.00       953.38
  216.16        2974.50           1549         195.00       813.88
  216.19        2974.75           1553         140.00       574.12
  216.22        2975.00           1556          97.00       386.67
  216.26        2975.25           1559          60.00       225.37
  216.29        2975.50           1563          58.00       216.65
  216.32        2975.75           1566          45.00       159.98
  216.35        2976.00           1569          48.00       173.06
  216.38        2976.25           1573          38.00       129.47
  216.41        2976.50           1576          54.00       199.22
  216.44        2976.75           1579          44.00       155.62
  216.47        2977.00           1583          45.00       159.98
  216.50        2977.25           1586          47.00       168.70
  216.53        2977.50           1590          43.00       151.26
  216.57        2977.75           1593          47.00       168.70
  216.60        2978.00           1596          55.00       203.58
  216.63        2978.25           1600          50.00       181.78
  216.66        2978.50           1603          55.00       203.58
  216.69        2978.75           1606          45.00       159.98
  216.72        2979.00           1610          49.00       177.42
  216.75        2979.25           1613          46.00       164.34
  216.78        2979.50           1616          52.00       190.50
  216.81        2979.75           1620          45.00       159.98
  216.84        2980.00           1623          53.00       194.86
  216.87        2980.25           1626          42.00       146.91
  216.90        2980.50           1630          45.00       159.98
  216.94        2980.75           1633          45.00       159.98
  216.97        2981.00           1637          40.00       138.19
  217.00        2981.25           1640          43.00       151.26
  217.03        2981.50           1643          47.00       168.70
  217.06        2981.75           1647          41.00       142.55
  217.09        2982.00           1650          45.00       159.98
  217.12        2982.25           1653          42.00       146.91
  217.15        2982.50           1657          44.00       155.62
  217.18        2982.75           1660          54.00       199.22
  217.21        2983.00           1663          49.00       177.42
  217.24        2983.25           1667          41.00       142.55
  217.27        2983.50           1670          43.00       151.26
  217.31        2983.75           1673          40.00       138.19
  217.34        2984.00           1677          44.00       155.62
HS scan finished at 03:37:33
end
************************************************************
  HS Scan of (1) Internal mercury lamp
************************************************************
Integration time is 0.2294 seconds per sample
dh120317Manchester 53.47 2.23 2.804185pr1000
************************************************************
Dead Time -------------------------  3E-08 
Number of Cycles Used -------------  4 
Starting Wavelength (Angstroms) ---  2950 
Final Wavelength (Angstoms) -------  2984 
Wavelength Increment (Angstroms) --  .25 
Filter Wheel #1 Position ---------- (1) Ground quartz diffuser (ND=2.32)
Filter Wheel #2 Position ---------- (1) Neutral Density 0.494



************************************************************
HS scan start time = 19:12:01
Dark Count =  6.4 


Time (GMT)  Wavelength (Ang)  Step Number  Raw Counts  Counts/Second

 1152.39        2950.00           1222          47.00       176.98
 1152.45        2950.25           1226          73.00       290.33
 1152.49        2950.50           1229          46.00       172.63
 1152.52        2950.75           1232          40.00       146.47
 1152.55        2951.00           1236          42.00       155.19
 1152.58        2951.25           1239          42.00       155.19
 1152.61        2951.50           1242          53.00       203.14
 1152.64        2951.75           1246          44.00       163.91
 1152.67        2952.00           1249          48.00       181.34
 1152.70        2952.25           1252          41.00       150.83
 1152.73        2952.50           1256          42.00       155.19
 1152.76        2952.75           1259          52.00       198.78
 1152.79        2953.00           1262          45.00       168.27
 1152.82        2953.25           1266          50.00       190.06
 1152.85        2953.50           1269          51.00       194.42
 1152.88        2953.75           1272          47.00       176.98
 1152.91        2954.00           1276          45.00       168.27
 1152.94        2954.25           1279          46.00       172.63
 1152.98        2954.50           1282          43.00       159.55
 1153.01        2954.75           1286          43.00       159.55
 1153.04        2955.00           1289          58.00       224.94
 1153.07        2955.25           1292          39.00       142.11
 1153.10        2955.50           1296          42.00       155.19
 1153.13        2955.75           1299          49.00       185.70
 1153.16        2956.00           1302          67.00       264.17
 1153.19        2956.25           1306          46.00       172.63
 1153.22        2956.50           1309          42.00       155.19
 1153.25        2956.75           1312          52.00       198.78
 1153.29        2957.00           1316          44.00       163.91
 1153.32        2957.25           1319          46.00       172.63
 1153.35        2957.50           1322          42.00       155.19
 1153.38        2957.75           1326          46.00       172.63
 1153.41        2958.00           1329          39.00       142.11
 1153.44        2958.25           1332          61.00       238.01
 1153.47        2958.50           1336          45.00       168.27
 1153.50        2958.75           1339          53.00       203.14
 1153.53        2959.00           1342          44.00       163.91
 1153.56        2959.25           1346          53.00       203.14
 1153.60        2959.50           1349          50.00       190.06
 1153.63        2959.75           1352          68.00       268.53
 1153.66        2960.00           1356          81.00       325.20
 1153.69        2960.25           1359         122.00       503.93
 1153.72        2960.50           1362         154.00       643.43
 1153.75        2960.75           1366         211.00       891.92
 1153.78        2961.00           1369         261.00      1109.89
 1153.81        2961.25           1372         289.00      1231.96
 1153.84        2961.50           1376         382.00      1637.40
 1153.87        2961.75           1379         475.00      2042.85
 1153.90        2962.00           1382         848.00      3669.10
 1153.94        2962.25           1386        2220.00      9652.32
 1153.97        2962.50           1389        3652.00     15899.48
 1154.00        2962.75           1392        5189.00     22607.31
 1154.03        2963.00           1396        7522.00     32794.24
 1154.06        2963.25           1399        9158.00     39941.47
 1154.09        2963.50           1402       10695.00     46658.99
 1154.12        2963.75           1406       12953.00     56532.59
 1154.15        2964.00           1409       14692.00     64140.74
 1154.18        2964.25           1412       16351.00     71402.13
 1154.21        2964.50           1416       18684.00     81618.96
 1154.25        2964.75           1419       20379.00     89045.75
 1154.28        2965.00           1422       21950.00     95932.19
 1154.31        2965.25           1426       24307.00    106269.40
 1154.34        2965.50           1429       25985.00    113632.60
 1154.37        2965.75           1432       27350.00    119624.70
 1154.40        2966.00           1436       29601.00    129510.90
 1154.43        2966.25           1439       31130.00    136229.60
 1154.46        2966.50           1442       32662.00    142964.10
 1154.49        2966.75           1446       34379.00    150515.10
 1154.52        2967.00           1449       35374.00    154892.50
 1154.56        2967.25           1452       35759.00    156586.50
 1154.59        2967.50           1456       35652.00    156115.70
 1154.62        2967.75           1459       35637.00    156049.70
 1154.65        2968.00           1462       35542.00    155631.70
 1154.68        2968.25           1466       34841.00    152547.50
 1154.71        2968.50           1469       33552.00    146877.70
 1154.74        2968.75           1472       32071.00    140365.80
 1154.77        2969.00           1476       30017.00    131338.60
 1154.80        2969.25           1479       28504.00    124692.30
 1154.84        2969.50           1482       26717.00    116845.70
 1154.87        2969.75           1486       24771.00    108305.10
 1154.90        2970.00           1489       23189.00    101365.30
 1154.93        2970.25           1492       21508.00     93994.41
 1154.96        2970.50           1496       19330.00     84449.08
 1154.99        2970.75           1499       17483.00     76358.68
 1155.02        2971.00           1502       15894.00     69401.55
 1155.05        2971.25           1506       13543.00     59113.46
 1155.08        2971.50           1509       11948.00     52137.28
 1155.12        2971.75           1513       10015.00     43686.69
 1155.15        2972.00           1516        8422.00     36725.70
 1155.18        2972.25           1519        6695.00     29182.47
 1155.21        2972.50           1523        4651.00     20259.04
 1155.24        2972.75           1526        3092.00     13456.17
 1155.27        2973.00           1529        1624.00      7052.93
 1155.30        2973.25           1533         606.00      2613.98
 1155.33        2973.50           1536         369.00      1580.72
 1155.36        2973.75           1539         308.00      1314.79
 1155.39        2974.00           1543         259.00      1101.17
 1155.42        2974.25           1546         205.00       865.76
 1155.46        2974.50           1549         153.00       639.07
 1155.49        2974.75           1553          99.00       403.67
 1155.52        2975.00           1556          82.00       329.56
 1155.55        2975.25           1559          63.00       246.73
 1155.58        2975.50           1563          48.00       181.34
 1155.61        2975.75           1566          48.00       181.34
 1155.64        2976.00           1569          48.00       181.34
 1155.67        2976.25           1573          53.00       203.14
 1155.70        2976.50           1576          50.00       190.06
 1155.73        2976.75           1579          38.00       137.75
 1155.76        2977.00           1583          46.00       172.63
 1155.80        2977.25           1586          43.00       159.55
 1155.83        2977.50           1590          50.00       190.06
 1155.86        2977.75           1593          49.00       185.70
 1155.89        2978.00           1596          50.00       190.06
 1155.92        2978.25           1600          50.00       190.06
 1155.95        2978.50           1603          53.00       203.14
 1155.98        2978.75           1606          44.00       163.91
 1156.01        2979.00           1610          43.00       159.55
 1156.04        2979.25           1613          45.00       168.27
 1156.07        2979.50           1616          39.00       142.11
 1156.10        2979.75           1620          46.00       172.63
 1156.13        2980.00           1623          48.00       181.34
 1156.16        2980.25           1626          46.00       172.63
 1156.20        2980.50           1630          50.00       190.06
 1156.23        2980.75           1633          46.00       172.63
 1156.26        2981.00           1637          46.00       172.63
 1156.29        2981.25           1640          48.00       181.34
 1156.32        2981.50           1643          43.00       159.55
 1156.35        2981.75           1647          46.00       172.63
 1156.38        2982.00           1650          37.00       133.39
 1156.41        2982.25           1653          51.00       194.42
 1156.44        2982.50           1657          39.00       142.11
 1156.47        2982.75           1660          45.00       168.27
 1156.51        2983.00           1663          44.00       163.91
 1156.54        2983.25           1667          40.00       146.47
 1156.57        2983.50           1670          41.00       150.83
 1156.60        2983.75           1673          47.00       176.98
 1156.63        2984.00           1677          43.00       159.55
HS scan finished at 19:16:51
end
