************************************************************
  HS Scan of (1) Internal mercury lamp
************************************************************
Integration time is 0.2294 seconds per sample
dh120319Manchester 53.47 2.23 2.804185pr1000
************************************************************
Dead Time -------------------------  3E-08 
Number of Cycles Used -------------  4 
Starting Wavelength (Angstroms) ---  2950 
Final Wavelength (Angstoms) -------  2984 
Wavelength Increment (Angstroms) --  .25 
Filter Wheel #1 Position ---------- (1) Ground quartz diffuser (ND=2.32)
Filter Wheel #2 Position ---------- (1) Neutral Density 0.494



************************************************************
HS scan start time = 03:35:47
Dark Count =  5 


Time (GMT)  Wavelength (Ang)  Step Number  Raw Counts  Counts/Second

  216.16        2950.00           1222          56.00       222.32
  216.23        2950.25           1226          56.00       222.32
  216.26        2950.50           1229          57.00       226.68
  216.29        2950.75           1232          54.00       213.60
  216.32        2951.00           1236          48.00       187.45
  216.35        2951.25           1239          53.00       209.24
  216.38        2951.50           1242          57.00       226.68
  216.41        2951.75           1246          50.00       196.17
  216.44        2952.00           1249          55.00       217.96
  216.47        2952.25           1252          62.00       248.48
  216.50        2952.50           1256          57.00       226.68
  216.54        2952.75           1259          50.00       196.17
  216.57        2953.00           1262          59.00       235.40
  216.60        2953.25           1266          43.00       165.65
  216.63        2953.50           1269          59.00       235.40
  216.66        2953.75           1272          49.00       191.81
  216.69        2954.00           1276          49.00       191.81
  216.72        2954.25           1279          52.00       204.88
  216.75        2954.50           1282          55.00       217.96
  216.78        2954.75           1286          54.00       213.60
  216.81        2955.00           1289          59.00       235.40
  216.84        2955.25           1292          54.00       213.60
  216.88        2955.50           1296          56.00       222.32
  216.91        2955.75           1299          51.00       200.52
  216.94        2956.00           1302          49.00       191.81
  216.97        2956.25           1306          61.00       244.12
  217.00        2956.50           1309          59.00       235.40
  217.03        2956.75           1312          51.00       200.52
  217.06        2957.00           1316          53.00       209.24
  217.09        2957.25           1319          58.00       231.04
  217.12        2957.50           1322          56.00       222.32
  217.15        2957.75           1326          46.00       178.73
  217.19        2958.00           1329          59.00       235.40
  217.22        2958.25           1332          56.00       222.32
  217.25        2958.50           1336          55.00       217.96
  217.28        2958.75           1339          53.00       209.24
  217.31        2959.00           1342          56.00       222.32
  217.34        2959.25           1346          55.00       217.96
  217.37        2959.50           1349          59.00       235.40
  217.40        2959.75           1352          58.00       231.04
  217.43        2960.00           1356          89.00       366.18
  217.46        2960.25           1359         106.00       440.28
  217.49        2960.50           1362         126.00       527.47
  217.53        2960.75           1366         169.00       714.92
  217.56        2961.00           1369         189.00       802.11
  217.59        2961.25           1372         242.00      1033.16
  217.62        2961.50           1376         297.00      1272.93
  217.65        2961.75           1379         438.00      1887.64
  217.68        2962.00           1382        1033.00      4481.86
  217.71        2962.25           1386        2294.00      9981.19
  217.74        2962.50           1389        3502.00     15251.09
  217.77        2962.75           1392        4762.00     20749.62
  217.80        2963.00           1396        6323.00     27564.20
  217.83        2963.25           1399        7577.00     33040.58
  217.87        2963.50           1402        8806.00     38409.54
  217.90        2963.75           1406       10564.00     46092.47
  217.93        2964.00           1409       11786.00     51435.02
  217.96        2964.25           1412       13249.00     57833.48
  217.99        2964.50           1416       14702.00     64190.63
  218.02        2964.75           1419       15829.00     69123.15
  218.05        2965.00           1422       17057.00     74499.36
  218.08        2965.25           1426       18640.00     81432.35
  218.11        2965.50           1429       19929.00     87079.85
  218.15        2965.75           1432       21211.00     92698.59
  218.18        2966.00           1436       22789.00     99617.24
  218.21        2966.25           1439       23881.00    104406.70
  218.24        2966.50           1442       25148.00    109965.50
  218.27        2966.75           1446       26045.00    113902.10
  218.30        2967.00           1449       26297.00    115008.20
  218.33        2967.25           1452       26314.00    115082.80
  218.36        2967.50           1456       26320.00    115109.10
  218.39        2967.75           1459       26276.00    114916.00
  218.43        2968.00           1462       26180.00    114494.60
  218.46        2968.25           1466       25091.00    109715.40
  218.49        2968.50           1469       24148.00    105578.00
  218.52        2968.75           1472       22924.00    100209.30
  218.55        2969.00           1476       21443.00     93715.59
  218.58        2969.25           1479       20117.00     87903.69
  218.61        2969.50           1482       19023.00     83110.18
  218.64        2969.75           1486       17282.00     75484.61
  218.67        2970.00           1489       16026.00     69985.50
  218.71        2970.25           1492       14851.00     64842.67
  218.74        2970.50           1496       13335.00     58209.67
  218.77        2970.75           1499       12111.00     52856.20
  218.80        2971.00           1502       10851.00     47347.07
  218.83        2971.25           1506        9258.00     40384.56
  218.86        2971.50           1509        8149.00     35539.18
  218.89        2971.75           1513        6491.00     28297.77
  218.92        2972.00           1516        5153.00     22456.28
  218.95        2972.25           1519        3995.00     17402.28
  218.98        2972.50           1523        2506.00     10905.92
  219.02        2972.75           1526        1385.00      6016.78
  219.05        2973.00           1529         631.00      2729.08
  219.08        2973.25           1533         348.00      1495.27
  219.11        2973.50           1536         271.00      1159.59
  219.14        2973.75           1539         228.00       972.13
  219.17        2974.00           1543         195.00       828.27
  219.20        2974.25           1546         150.00       632.10
  219.23        2974.50           1549         126.00       527.47
  219.26        2974.75           1553          85.00       348.74
  219.29        2975.00           1556          63.00       252.84
  219.33        2975.25           1559          57.00       226.68
  219.36        2975.50           1563          55.00       217.96
  219.39        2975.75           1566          56.00       222.32
  219.42        2976.00           1569          55.00       217.96
  219.45        2976.25           1573          69.00       278.99
  219.48        2976.50           1576          57.00       226.68
  219.51        2976.75           1579          48.00       187.45
  219.54        2977.00           1583          61.00       244.12
  219.57        2977.25           1586          46.00       178.73
  219.61        2977.50           1590          49.00       191.81
  219.64        2977.75           1593          54.00       213.60
  219.67        2978.00           1596          56.00       222.32
  219.70        2978.25           1600          53.00       209.24
  219.73        2978.50           1603          53.00       209.24
  219.76        2978.75           1606          50.00       196.17
  219.79        2979.00           1610          54.00       213.60
  219.82        2979.25           1613          54.00       213.60
  219.85        2979.50           1616          55.00       217.96
  219.89        2979.75           1620          50.00       196.17
  219.92        2980.00           1623          52.00       204.88
  219.95        2980.25           1626          47.00       183.09
  219.98        2980.50           1630          46.00       178.73
  220.01        2980.75           1633          56.00       222.32
  220.04        2981.00           1637          47.00       183.09
  220.07        2981.25           1640          50.00       196.17
  220.10        2981.50           1643          54.00       213.60
  220.13        2981.75           1647          46.00       178.73
  220.16        2982.00           1650          53.00       209.24
  220.19        2982.25           1653          53.00       209.24
  220.23        2982.50           1657          46.00       178.73
  220.26        2982.75           1660          48.00       187.45
  220.29        2983.00           1663          49.00       191.81
  220.32        2983.25           1667          50.00       196.17
  220.35        2983.50           1670          52.00       204.88
  220.38        2983.75           1673          56.00       222.32
  220.41        2984.00           1677          48.00       187.45
HS scan finished at 03:40:38
end
************************************************************
  HS Scan of (1) Internal mercury lamp
************************************************************
Integration time is 0.2294 seconds per sample
dh120319Manchester 53.47 2.23 2.804185pr1000
************************************************************
Dead Time -------------------------  3E-08 
Number of Cycles Used -------------  4 
Starting Wavelength (Angstroms) ---  2950 
Final Wavelength (Angstoms) -------  2984 
Wavelength Increment (Angstroms) --  .25 
Filter Wheel #1 Position ---------- (1) Ground quartz diffuser (ND=2.32)
Filter Wheel #2 Position ---------- (1) Neutral Density 0.494



************************************************************
HS scan start time = 19:12:07
Dark Count =  7.5 


Time (GMT)  Wavelength (Ang)  Step Number  Raw Counts  Counts/Second

 1152.49        2950.00           1222          56.00       211.42
 1152.55        2950.25           1226          61.00       233.22
 1152.58        2950.50           1229          47.00       172.19
 1152.62        2950.75           1232          50.00       185.27
 1152.65        2951.00           1236          57.00       215.78
 1152.68        2951.25           1239          52.00       193.99
 1152.71        2951.50           1242          59.00       224.50
 1152.74        2951.75           1246          61.00       233.22
 1152.77        2952.00           1249          51.00       189.63
 1152.80        2952.25           1252          51.00       189.63
 1152.83        2952.50           1256          58.00       220.14
 1152.86        2952.75           1259          56.00       211.42
 1152.89        2953.00           1262          48.00       176.55
 1152.93        2953.25           1266          53.00       198.34
 1152.96        2953.50           1269          59.00       224.50
 1152.99        2953.75           1272          68.00       263.73
 1153.02        2954.00           1276          54.00       202.70
 1153.05        2954.25           1279          54.00       202.70
 1153.08        2954.50           1282          52.00       193.99
 1153.11        2954.75           1286          62.00       237.58
 1153.14        2955.00           1289          52.00       193.99
 1153.17        2955.25           1292          53.00       198.34
 1153.20        2955.50           1296          49.00       180.91
 1153.23        2955.75           1299          54.00       202.70
 1153.26        2956.00           1302          55.00       207.06
 1153.30        2956.25           1306          60.00       228.86
 1153.33        2956.50           1309          59.00       224.50
 1153.36        2956.75           1312          54.00       202.70
 1153.39        2957.00           1316          55.00       207.06
 1153.42        2957.25           1319          50.00       185.27
 1153.45        2957.50           1322          52.00       193.99
 1153.48        2957.75           1326          50.00       185.27
 1153.51        2958.00           1329          57.00       215.78
 1153.54        2958.25           1332          58.00       220.14
 1153.57        2958.50           1336          55.00       207.06
 1153.60        2958.75           1339          52.00       193.99
 1153.64        2959.00           1342          50.00       185.27
 1153.67        2959.25           1346          57.00       215.78
 1153.70        2959.50           1349          60.00       228.86
 1153.73        2959.75           1352          77.00       302.97
 1153.76        2960.00           1356         102.00       411.95
 1153.79        2960.25           1359         119.00       486.06
 1153.82        2960.50           1362         137.00       564.53
 1153.85        2960.75           1366         192.00       804.29
 1153.88        2961.00           1369         219.00       922.00
 1153.91        2961.25           1372         244.00      1030.98
 1153.94        2961.50           1376         338.00      1440.78
 1153.97        2961.75           1379         515.00      2212.44
 1154.00        2962.00           1382        1209.00      5238.40
 1154.03        2962.25           1386        2618.00     11383.57
 1154.07        2962.50           1389        3785.00     16475.01
 1154.10        2962.75           1392        5005.00     21799.35
 1154.13        2963.00           1396        6453.00     28120.93
 1154.16        2963.25           1399        7553.00     32924.83
 1154.19        2963.50           1402        8742.00     38118.98
 1154.22        2963.75           1406       10381.00     45281.61
 1154.25        2964.00           1409       11583.00     50536.46
 1154.28        2964.25           1412       12823.00     55959.16
 1154.31        2964.50           1416       14421.00     62950.07
 1154.35        2964.75           1419       15629.00     68236.76
 1154.38        2965.00           1422       17012.00     74291.38
 1154.41        2965.25           1426       18758.00     81938.31
 1154.44        2965.50           1429       19945.00     87139.01
 1154.47        2965.75           1432       21121.00     92293.12
 1154.50        2966.00           1436       22625.00     98887.09
 1154.53        2966.25           1439       23752.00    103829.90
 1154.56        2966.50           1442       24920.00    108954.10
 1154.59        2966.75           1446       26048.00    113904.30
 1154.62        2967.00           1449       26360.00    115273.70
 1154.66        2967.25           1452       26322.00    115106.90
 1154.69        2967.50           1456       26462.00    115721.50
 1154.72        2967.75           1459       26174.00    114457.30
 1154.75        2968.00           1462       26070.00    114000.80
 1154.78        2968.25           1466       25313.00    110678.60
 1154.81        2968.50           1469       24051.00    105141.50
 1154.84        2968.75           1472       23053.00    100764.00
 1154.87        2969.00           1476       21469.00     93818.61
 1154.91        2969.25           1479       20549.00     89785.99
 1154.94        2969.50           1482       19261.00     84141.96
 1154.97        2969.75           1486       17584.00     76796.18
 1155.00        2970.00           1489       16490.00     72005.86
 1155.03        2970.25           1492       15263.00     66634.81
 1155.06        2970.50           1496       13527.00     59038.65
 1155.09        2970.75           1499       12323.00     53772.38
 1155.12        2971.00           1502       10961.00     47817.02
 1155.15        2971.25           1506        9366.00     40845.58
 1155.18        2971.50           1509        8134.00     35462.73
 1155.22        2971.75           1513        6595.00     28740.99
 1155.25        2972.00           1516        5270.00     22956.08
 1155.28        2972.25           1519        4204.00     18303.42
 1155.31        2972.50           1523        2683.00     11667.12
 1155.34        2972.75           1526        1571.00      6817.00
 1155.37        2973.00           1529         716.00      3088.78
 1155.40        2973.25           1533         345.00      1471.29
 1155.43        2973.50           1536         257.00      1087.66
 1155.46        2973.75           1539         220.00       926.36
 1155.50        2974.00           1543         178.00       743.26
 1155.53        2974.25           1546         136.00       560.17
 1155.56        2974.50           1549         110.00       446.82
 1155.59        2974.75           1553          75.00       294.25
 1155.62        2975.00           1556          66.00       255.02
 1155.65        2975.25           1559          51.00       189.63
 1155.68        2975.50           1563          58.00       220.14
 1155.71        2975.75           1566          56.00       211.42
 1155.74        2976.00           1569          53.00       198.34
 1155.78        2976.25           1573          55.00       207.06
 1155.81        2976.50           1576          56.00       211.42
 1155.84        2976.75           1579          50.00       185.27
 1155.87        2977.00           1583          49.00       180.91
 1155.90        2977.25           1586          49.00       180.91
 1155.93        2977.50           1590          48.00       176.55
 1155.96        2977.75           1593          49.00       180.91
 1155.99        2978.00           1596          63.00       241.94
 1156.02        2978.25           1600          47.00       172.19
 1156.05        2978.50           1603          51.00       189.63
 1156.08        2978.75           1606          43.00       154.75
 1156.11        2979.00           1610          63.00       241.94
 1156.15        2979.25           1613          57.00       215.78
 1156.18        2979.50           1616          56.00       211.42
 1156.21        2979.75           1620          56.00       211.42
 1156.24        2980.00           1623          62.00       237.58
 1156.27        2980.25           1626          52.00       193.99
 1156.30        2980.50           1630          48.00       176.55
 1156.33        2980.75           1633          50.00       185.27
 1156.36        2981.00           1637          51.00       189.63
 1156.39        2981.25           1640          53.00       198.34
 1156.42        2981.50           1643          43.00       154.75
 1156.45        2981.75           1647          57.00       215.78
 1156.49        2982.00           1650          47.00       172.19
 1156.52        2982.25           1653          49.00       180.91
 1156.55        2982.50           1657          45.00       163.47
 1156.58        2982.75           1660          55.00       207.06
 1156.61        2983.00           1663          51.00       189.63
 1156.64        2983.25           1667          49.00       180.91
 1156.67        2983.50           1670          52.00       193.99
 1156.70        2983.75           1673          54.00       202.70
 1156.73        2984.00           1677          45.00       163.47
HS scan finished at 19:16:57
end
