************************************************************
  HS Scan of (1) Internal mercury lamp
************************************************************
Integration time is 0.2294 seconds per sample
dh110319Manchester 53.47 2.23 2.750537pr1000
************************************************************
Dead Time -------------------------  3E-08 
Number of Cycles Used -------------  4 
Starting Wavelength (Angstroms) ---  2950 
Final Wavelength (Angstoms) -------  2984 
Wavelength Increment (Angstroms) --  .25 
Filter Wheel #1 Position ---------- (1) Ground quartz diffuser (ND=2.32)
Filter Wheel #2 Position ---------- (1) Neutral Density 0.494



************************************************************
HS scan start time = 03:38:05
Dark Count =  6.4 


Time (GMT)  Wavelength (Ang)  Step Number  Raw Counts  Counts/Second

  218.45        2950.00           1222          57.00       220.58
  218.51        2950.25           1226          52.00       198.78
  218.55        2950.50           1229          54.00       207.50
  218.58        2950.75           1232          49.00       185.70
  218.61        2951.00           1236          51.00       194.42
  218.64        2951.25           1239          63.00       246.73
  218.67        2951.50           1242          53.00       203.14
  218.70        2951.75           1246          51.00       194.42
  218.73        2952.00           1249          56.00       216.22
  218.76        2952.25           1252          61.00       238.01
  218.79        2952.50           1256          54.00       207.50
  218.82        2952.75           1259          51.00       194.42
  218.85        2953.00           1262          55.00       211.86
  218.88        2953.25           1266          54.00       207.50
  218.92        2953.50           1269          59.00       229.30
  218.95        2953.75           1272          52.00       198.78
  218.98        2954.00           1276          58.00       224.94
  219.01        2954.25           1279          54.00       207.50
  219.04        2954.50           1282          59.00       229.30
  219.07        2954.75           1286          52.00       198.78
  219.10        2955.00           1289          58.00       224.94
  219.13        2955.25           1292          49.00       185.70
  219.16        2955.50           1296          48.00       181.34
  219.19        2955.75           1299          50.00       190.06
  219.22        2956.00           1302          62.00       242.37
  219.25        2956.25           1306          61.00       238.01
  219.29        2956.50           1309          55.00       211.86
  219.32        2956.75           1312          70.00       277.25
  219.35        2957.00           1316          64.00       251.09
  219.38        2957.25           1319          49.00       185.70
  219.41        2957.50           1322          58.00       224.94
  219.44        2957.75           1326          54.00       207.50
  219.47        2958.00           1329          55.00       211.86
  219.50        2958.25           1332          54.00       207.50
  219.53        2958.50           1336          55.00       211.86
  219.56        2958.75           1339          58.00       224.94
  219.59        2959.00           1342          60.00       233.65
  219.63        2959.25           1346          53.00       203.14
  219.66        2959.50           1349          61.00       238.01
  219.69        2959.75           1352          75.00       299.04
  219.72        2960.00           1356         101.00       412.39
  219.75        2960.25           1359         127.00       525.73
  219.78        2960.50           1362         168.00       704.46
  219.81        2960.75           1366         187.00       787.29
  219.84        2961.00           1369         224.00       948.59
  219.87        2961.25           1372         271.00      1153.48
  219.90        2961.50           1376         332.00      1419.42
  219.93        2961.75           1379         509.00      2191.08
  219.97        2962.00           1382        1153.00      4999.01
  220.00        2962.25           1386        2468.00     10734.06
  220.03        2962.50           1389        3675.00     15999.83
  220.06        2962.75           1392        4940.00     21520.43
  220.09        2963.00           1396        6553.00     28562.39
  220.12        2963.25           1399        7740.00     33746.44
  220.15        2963.50           1402        8948.00     39023.86
  220.18        2963.75           1406       10777.00     47017.45
  220.21        2964.00           1409       11874.00     51813.69
  220.25        2964.25           1412       13127.00     57293.69
  220.28        2964.50           1416       14756.00     64420.81
  220.31        2964.75           1419       15916.00     69497.85
  220.34        2965.00           1422       17150.00     74900.46
  220.37        2965.25           1426       18868.00     82425.02
  220.40        2965.50           1429       20059.00     87643.38
  220.43        2965.75           1432       21348.00     93293.00
  220.46        2966.00           1436       22885.00    100032.10
  220.49        2966.25           1439       24011.00    104970.90
  220.52        2966.50           1442       25223.00    110288.50
  220.55        2966.75           1446       26062.00    113970.50
  220.59        2967.00           1449       26418.00    115533.10
  220.62        2967.25           1452       26315.00    115081.00
  220.65        2967.50           1456       26411.00    115502.40
  220.68        2967.75           1459       26252.00    114804.50
  220.71        2968.00           1462       25883.00    113184.90
  220.74        2968.25           1466       25202.00    110196.30
  220.77        2968.50           1469       23911.00    104532.20
  220.80        2968.75           1472       22769.00     99523.38
  220.83        2969.00           1476       21137.00     92368.06
  220.86        2969.25           1479       19886.00     86885.29
  220.90        2969.50           1482       18800.00     82127.12
  220.93        2969.75           1486       17116.00     74751.58
  220.96        2970.00           1489       15829.00     69117.01
  220.99        2970.25           1492       14881.00     64967.83
  221.02        2970.50           1496       13252.00     57840.48
  221.05        2970.75           1499       11937.00     52089.19
  221.08        2971.00           1502       10855.00     47358.44
  221.11        2971.25           1506        9242.00     40308.52
  221.14        2971.50           1509        7955.00     34685.60
  221.17        2971.75           1513        6238.00     27186.95
  221.21        2972.00           1516        4941.00     21524.80
  221.24        2972.25           1519        3853.00     16776.53
  221.27        2972.50           1523        2257.00      9813.70
  221.30        2972.75           1526        1227.00      5321.69
  221.33        2973.00           1529         568.00      2448.31
  221.36        2973.25           1533         308.00      1314.79
  221.39        2973.50           1536         259.00      1101.17
  221.42        2973.75           1539         225.00       952.95
  221.45        2974.00           1543         188.00       791.65
  221.48        2974.25           1546         133.00       551.88
  221.51        2974.50           1549         121.00       499.57
  221.54        2974.75           1553          77.00       307.76
  221.57        2975.00           1556          55.00       211.86
  221.61        2975.25           1559          54.00       207.50
  221.64        2975.50           1563          57.00       220.58
  221.67        2975.75           1566          52.00       198.78
  221.70        2976.00           1569          50.00       190.06
  221.73        2976.25           1573          58.00       224.94
  221.76        2976.50           1576          55.00       211.86
  221.79        2976.75           1579          55.00       211.86
  221.82        2977.00           1583          50.00       190.06
  221.85        2977.25           1586          49.00       185.70
  221.88        2977.50           1590          49.00       185.70
  221.91        2977.75           1593          59.00       229.30
  221.94        2978.00           1596          55.00       211.86
  221.97        2978.25           1600          45.00       168.27
  222.01        2978.50           1603          51.00       194.42
  222.04        2978.75           1606          48.00       181.34
  222.07        2979.00           1610          51.00       194.42
  222.10        2979.25           1613          47.00       176.98
  222.13        2979.50           1616          50.00       190.06
  222.16        2979.75           1620          46.00       172.63
  222.19        2980.00           1623          45.00       168.27
  222.22        2980.25           1626          50.00       190.06
  222.25        2980.50           1630          47.00       176.98
  222.28        2980.75           1633          50.00       190.06
  222.31        2981.00           1637          48.00       181.34
  222.35        2981.25           1640          54.00       207.50
  222.38        2981.50           1643          48.00       181.34
  222.41        2981.75           1647          42.00       155.19
  222.44        2982.00           1650          53.00       203.14
  222.47        2982.25           1653          55.00       211.86
  222.50        2982.50           1657          49.00       185.70
  222.53        2982.75           1660          51.00       194.42
  222.56        2983.00           1663          44.00       163.91
  222.59        2983.25           1667          49.00       185.70
  222.62        2983.50           1670          51.00       194.42
  222.66        2983.75           1673          50.00       190.06
  222.69        2984.00           1677          54.00       207.50
HS scan finished at 03:42:54
end
************************************************************
  HS Scan of (1) Internal mercury lamp
************************************************************
Integration time is 0.2294 seconds per sample
dh110319Manchester 53.47 2.23 2.804185pr1000
************************************************************
Dead Time -------------------------  3E-08 
Number of Cycles Used -------------  4 
Starting Wavelength (Angstroms) ---  2950 
Final Wavelength (Angstoms) -------  2984 
Wavelength Increment (Angstroms) --  .25 
Filter Wheel #1 Position ---------- (1) Ground quartz diffuser (ND=2.32)
Filter Wheel #2 Position ---------- (1) Neutral Density 0.494



************************************************************
HS scan start time = 19:12:05
Dark Count =  7.6 


Time (GMT)  Wavelength (Ang)  Step Number  Raw Counts  Counts/Second

 1152.45        2950.00           1222          58.00       219.71
 1152.52        2950.25           1226          48.00       176.11
 1152.55        2950.50           1229          52.00       193.55
 1152.58        2950.75           1232          56.00       210.99
 1152.61        2951.00           1236          54.00       202.27
 1152.64        2951.25           1239          55.00       206.63
 1152.68        2951.50           1242          53.00       197.91
 1152.71        2951.75           1246          55.00       206.63
 1152.74        2952.00           1249          59.00       224.06
 1152.77        2952.25           1252          52.00       193.55
 1152.80        2952.50           1256          51.00       189.19
 1152.83        2952.75           1259          54.00       202.27
 1152.86        2953.00           1262          62.00       237.14
 1152.89        2953.25           1266          58.00       219.71
 1152.92        2953.50           1269          64.00       245.86
 1152.95        2953.75           1272          60.00       228.42
 1152.98        2954.00           1276          63.00       241.50
 1153.01        2954.25           1279          62.00       237.14
 1153.04        2954.50           1282          56.00       210.99
 1153.07        2954.75           1286          49.00       180.47
 1153.11        2955.00           1289          51.00       189.19
 1153.14        2955.25           1292          57.00       215.35
 1153.17        2955.50           1296          53.00       197.91
 1153.20        2955.75           1299          54.00       202.27
 1153.23        2956.00           1302          57.00       215.35
 1153.26        2956.25           1306          59.00       224.06
 1153.29        2956.50           1309          50.00       184.83
 1153.32        2956.75           1312          61.00       232.78
 1153.35        2957.00           1316          55.00       206.63
 1153.38        2957.25           1319          54.00       202.27
 1153.41        2957.50           1322          61.00       232.78
 1153.44        2957.75           1326          56.00       210.99
 1153.47        2958.00           1329          55.00       206.63
 1153.50        2958.25           1332          54.00       202.27
 1153.54        2958.50           1336          54.00       202.27
 1153.57        2958.75           1339          56.00       210.99
 1153.60        2959.00           1342          55.00       206.63
 1153.63        2959.25           1346          53.00       197.91
 1153.66        2959.50           1349          58.00       219.71
 1153.69        2959.75           1352          74.00       289.45
 1153.72        2960.00           1356          83.00       328.69
 1153.75        2960.25           1359         109.00       442.03
 1153.78        2960.50           1362         131.00       537.93
 1153.81        2960.75           1366         182.00       760.26
 1153.84        2961.00           1369         201.00       843.09
 1153.87        2961.25           1372         231.00       973.87
 1153.90        2961.50           1376         309.00      1313.91
 1153.94        2961.75           1379         466.00      1998.38
 1153.97        2962.00           1382        1042.00      4509.76
 1154.00        2962.25           1386        2451.00     10654.67
 1154.03        2962.50           1389        3617.00     15741.52
 1154.06        2962.75           1392        4864.00     21183.47
 1154.09        2963.00           1396        6392.00     27854.13
 1154.12        2963.25           1399        7519.00     32775.89
 1154.15        2963.50           1402        8718.00     38013.69
 1154.18        2963.75           1406       10367.00     45219.98
 1154.21        2964.00           1409       11654.00     50846.47
 1154.25        2964.25           1412       12845.00     56054.96
 1154.28        2964.50           1416       14504.00     63312.82
 1154.31        2964.75           1419       15827.00     69103.00
 1154.34        2965.00           1422       17143.00     74864.55
 1154.37        2965.25           1426       18729.00     81810.84
 1154.40        2965.50           1429       19895.00     86919.48
 1154.43        2965.75           1432       21171.00     92511.85
 1154.46        2966.00           1436       22809.00     99693.53
 1154.49        2966.25           1439       23848.00    104250.60
 1154.52        2966.50           1442       24940.00    109041.40
 1154.56        2966.75           1446       26055.00    113934.60
 1154.59        2967.00           1449       26264.00    114851.90
 1154.62        2967.25           1452       26274.00    114895.80
 1154.65        2967.50           1456       26241.00    114751.00
 1154.68        2967.75           1459       26210.00    114614.90
 1154.71        2968.00           1462       26155.00    114373.50
 1154.74        2968.25           1466       24879.00    108773.70
 1154.77        2968.50           1469       23999.00    104913.00
 1154.80        2968.75           1472       22821.00     99746.18
 1154.83        2969.00           1476       21277.00     92976.51
 1154.87        2969.25           1479       20102.00     87826.56
 1154.90        2969.50           1482       19058.00     83252.13
 1154.93        2969.75           1486       17418.00     76068.78
 1154.96        2970.00           1489       16085.00     70232.40
 1154.99        2970.25           1492       15195.00     66336.77
 1155.02        2970.50           1496       13478.00     58823.87
 1155.05        2970.75           1499       12166.00     53085.35
 1155.08        2971.00           1502       10976.00     47882.17
 1155.11        2971.25           1506        9333.00     40700.93
 1155.14        2971.50           1509        8113.00     35370.56
 1155.18        2971.75           1513        6494.00     28299.52
 1155.21        2972.00           1516        5369.00     23387.81
 1155.24        2972.25           1519        4172.00     18163.34
 1155.27        2972.50           1523        2588.00     11252.27
 1155.30        2972.75           1526        1510.00      6550.55
 1155.33        2973.00           1529         689.00      2970.62
 1155.36        2973.25           1533         345.00      1470.86
 1155.39        2973.50           1536         264.00      1117.74
 1155.42        2973.75           1539         237.00      1000.03
 1155.46        2974.00           1543         198.00       830.01
 1155.49        2974.25           1546         149.00       616.40
 1155.52        2974.50           1549         124.00       507.42
 1155.55        2974.75           1553          80.00       315.61
 1155.58        2975.00           1556          79.00       311.25
 1155.61        2975.25           1559          56.00       210.99
 1155.64        2975.50           1563          56.00       210.99
 1155.67        2975.75           1566          51.00       189.19
 1155.70        2976.00           1569          54.00       202.27
 1155.73        2976.25           1573          52.00       193.55
 1155.76        2976.50           1576          47.00       171.75
 1155.79        2976.75           1579          53.00       197.91
 1155.83        2977.00           1583          52.00       193.55
 1155.86        2977.25           1586          51.00       189.19
 1155.89        2977.50           1590          55.00       206.63
 1155.92        2977.75           1593          58.00       219.71
 1155.95        2978.00           1596          46.00       167.39
 1155.98        2978.25           1600          53.00       197.91
 1156.01        2978.50           1603          51.00       189.19
 1156.04        2978.75           1606          54.00       202.27
 1156.07        2979.00           1610          45.00       163.03
 1156.10        2979.25           1613          50.00       184.83
 1156.13        2979.50           1616          43.00       154.32
 1156.16        2979.75           1620          46.00       167.39
 1156.19        2980.00           1623          47.00       171.75
 1156.22        2980.25           1626          48.00       176.11
 1156.25        2980.50           1630          53.00       197.91
 1156.29        2980.75           1633          48.00       176.11
 1156.32        2981.00           1637          55.00       206.63
 1156.35        2981.25           1640          55.00       206.63
 1156.38        2981.50           1643          54.00       202.27
 1156.41        2981.75           1647          50.00       184.83
 1156.44        2982.00           1650          52.00       193.55
 1156.47        2982.25           1653          50.00       184.83
 1156.50        2982.50           1657          60.00       228.42
 1156.53        2982.75           1660          50.00       184.83
 1156.56        2983.00           1663          48.00       176.11
 1156.59        2983.25           1667          66.00       254.58
 1156.63        2983.50           1670          56.00       210.99
 1156.66        2983.75           1673          41.00       145.60
 1156.69        2984.00           1677          49.00       180.47
HS scan finished at 19:16:54
end
