************************************************************
  HS Scan of (1) Internal mercury lamp
************************************************************
Integration time is 0.2294 seconds per sample
dh200317Manchester 53.47 2.23 2.804185pr1000
************************************************************
Dead Time -------------------------  3E-08 
Number of Cycles Used -------------  4 
Starting Wavelength (Angstroms) ---  2950 
Final Wavelength (Angstoms) -------  2984 
Wavelength Increment (Angstroms) --  .25 
Filter Wheel #1 Position ---------- (1) Ground quartz diffuser (ND=2.32)
Filter Wheel #2 Position ---------- (1) Neutral Density 0.494



************************************************************
HS scan start time = 03:02:28
Dark Count =  7.1 


Time (GMT)  Wavelength (Ang)  Step Number  Raw Counts  Counts/Second

  182.83        2950.00           1222          52.00       195.73
  182.90        2950.25           1226          45.00       165.21
  182.93        2950.50           1229          48.00       178.29
  182.96        2950.75           1232          44.00       160.86
  182.99        2951.00           1236          47.00       173.93
  183.02        2951.25           1239          50.00       187.01
  183.05        2951.50           1242          49.00       182.65
  183.08        2951.75           1246          52.00       195.73
  183.11        2952.00           1249          48.00       178.29
  183.15        2952.25           1252          50.00       187.01
  183.18        2952.50           1256          46.00       169.57
  183.21        2952.75           1259          47.00       173.93
  183.24        2953.00           1262          49.00       182.65
  183.27        2953.25           1266          51.00       191.37
  183.30        2953.50           1269          52.00       195.73
  183.33        2953.75           1272          56.00       213.17
  183.36        2954.00           1276          49.00       182.65
  183.39        2954.25           1279          48.00       178.29
  183.42        2954.50           1282          46.00       169.57
  183.45        2954.75           1286          52.00       195.73
  183.48        2955.00           1289          46.00       169.57
  183.51        2955.25           1292          47.00       173.93
  183.54        2955.50           1296          51.00       191.37
  183.57        2955.75           1299          41.00       147.78
  183.60        2956.00           1302          49.00       182.65
  183.64        2956.25           1306          46.00       169.57
  183.67        2956.50           1309          47.00       173.93
  183.70        2956.75           1312          48.00       178.29
  183.73        2957.00           1316          43.00       156.50
  183.76        2957.25           1319          47.00       173.93
  183.79        2957.50           1322          40.00       143.42
  183.82        2957.75           1326          40.00       143.42
  183.85        2958.00           1329          42.00       152.14
  183.88        2958.25           1332          42.00       152.14
  183.91        2958.50           1336          48.00       178.29
  183.94        2958.75           1339          48.00       178.29
  183.97        2959.00           1342          49.00       182.65
  184.01        2959.25           1346          54.00       204.45
  184.04        2959.50           1349          49.00       182.65
  184.07        2959.75           1352          53.00       200.09
  184.10        2960.00           1356          90.00       361.38
  184.13        2960.25           1359         126.00       518.32
  184.16        2960.50           1362         166.00       692.69
  184.19        2960.75           1366         228.00       962.97
  184.22        2961.00           1369         266.00      1128.63
  184.25        2961.25           1372         312.00      1329.17
  184.28        2961.50           1376         382.00      1634.34
  184.31        2961.75           1379         584.00      2515.01
  184.34        2962.00           1382        1130.00      4895.66
  184.38        2962.25           1386        2799.00     12174.89
  184.41        2962.50           1389        4329.00     18850.67
  184.44        2962.75           1392        5918.00     25786.73
  184.47        2963.00           1396        8031.00     35014.53
  184.50        2963.25           1399        9694.00     42280.71
  184.53        2963.50           1402       11354.00     49536.96
  184.56        2963.75           1406       13761.00     60064.11
  184.59        2964.00           1409       15406.00     67262.45
  184.62        2964.25           1412       17239.00     75287.12
  184.66        2964.50           1416       19343.00     84502.97
  184.69        2964.75           1419       20907.00     91356.84
  184.72        2965.00           1422       22620.00     98866.92
  184.75        2965.25           1426       24768.00    108288.90
  184.78        2965.50           1429       26350.00    115231.60
  184.81        2965.75           1432       28234.00    123503.40
  184.84        2966.00           1436       30431.00    133154.70
  184.87        2966.25           1439       32218.00    141008.90
  184.90        2966.50           1442       33545.00    146843.80
  184.94        2966.75           1446       35348.00    154775.00
  184.97        2967.00           1449       36057.00    157894.80
  185.00        2967.25           1452       36211.00    158572.50
  185.03        2967.50           1456       36109.00    158123.70
  185.06        2967.75           1459       36175.00    158414.10
  185.09        2968.00           1462       36008.00    157679.20
  185.12        2968.25           1466       35200.00    154123.80
  185.15        2968.50           1469       33851.00    148189.60
  185.18        2968.75           1472       32424.00    141914.60
  185.22        2969.00           1476       30130.00    131832.10
  185.25        2969.25           1479       28571.00    124983.40
  185.28        2969.50           1482       26926.00    117760.10
  185.31        2969.75           1486       24642.00    107736.10
  185.34        2970.00           1489       23076.00    100866.70
  185.37        2970.25           1492       21709.00     94872.52
  185.40        2970.50           1496       19289.00     84266.38
  185.43        2970.75           1499       17832.00     77884.04
  185.46        2971.00           1502       16239.00     70908.75
  185.50        2971.25           1506       13908.00     60707.24
  185.53        2971.50           1509       12094.00     52772.67
  185.56        2971.75           1513        9708.00     42341.90
  185.59        2972.00           1516        8204.00     35770.28
  185.62        2972.25           1519        6428.00     28013.51
  185.65        2972.50           1523        4284.00     18654.29
  185.68        2972.75           1526        2769.00     12044.02
  185.71        2973.00           1529        1332.00      5776.50
  185.74        2973.25           1533         541.00      2327.54
  185.77        2973.50           1536         362.00      1547.15
  185.80        2973.75           1539         291.00      1237.62
  185.83        2974.00           1543         246.00      1041.44
  185.86        2974.25           1546         182.00       762.44
  185.90        2974.50           1549         130.00       535.75
  185.93        2974.75           1553          91.00       365.74
  185.96        2975.00           1556          73.00       287.27
  185.99        2975.25           1559          60.00       230.60
  186.02        2975.50           1563          57.00       217.53
  186.05        2975.75           1566          49.00       182.65
  186.08        2976.00           1569          43.00       156.50
  186.11        2976.25           1573          52.00       195.73
  186.14        2976.50           1576          44.00       160.86
  186.17        2976.75           1579          47.00       173.93
  186.20        2977.00           1583          46.00       169.57
  186.23        2977.25           1586          49.00       182.65
  186.27        2977.50           1590          44.00       160.86
  186.30        2977.75           1593          45.00       165.21
  186.33        2978.00           1596          46.00       169.57
  186.36        2978.25           1600          51.00       191.37
  186.39        2978.50           1603          48.00       178.29
  186.42        2978.75           1606          45.00       165.21
  186.45        2979.00           1610          55.00       208.81
  186.48        2979.25           1613          44.00       160.86
  186.51        2979.50           1616          45.00       165.21
  186.54        2979.75           1620          43.00       156.50
  186.57        2980.00           1623          48.00       178.29
  186.60        2980.25           1626          48.00       178.29
  186.63        2980.50           1630          42.00       152.14
  186.66        2980.75           1633          43.00       156.50
  186.69        2981.00           1637          45.00       165.21
  186.73        2981.25           1640          45.00       165.21
  186.76        2981.50           1643          45.00       165.21
  186.79        2981.75           1647          46.00       169.57
  186.82        2982.00           1650          44.00       160.86
  186.85        2982.25           1653          47.00       173.93
  186.88        2982.50           1657          42.00       152.14
  186.91        2982.75           1660          42.00       152.14
  186.94        2983.00           1663          38.00       134.70
  186.97        2983.25           1667          39.00       139.06
  187.01        2983.50           1670          42.00       152.14
  187.04        2983.75           1673          44.00       160.86
  187.07        2984.00           1677          46.00       169.57
HS scan finished at 03:07:17
end
************************************************************
  HS Scan of (1) Internal mercury lamp
************************************************************
Integration time is 0.2294 seconds per sample
dh200317Manchester 53.47 2.23 2.804185pr1000
************************************************************
Dead Time -------------------------  3E-08 
Number of Cycles Used -------------  4 
Starting Wavelength (Angstroms) ---  2950 
Final Wavelength (Angstoms) -------  2984 
Wavelength Increment (Angstroms) --  .25 
Filter Wheel #1 Position ---------- (1) Ground quartz diffuser (ND=2.32)
Filter Wheel #2 Position ---------- (1) Neutral Density 0.494



************************************************************
HS scan start time = 19:12:05
Dark Count =  5.3 


Time (GMT)  Wavelength (Ang)  Step Number  Raw Counts  Counts/Second

 1152.45        2950.00           1222          49.00       190.50
 1152.52        2950.25           1226          49.00       190.50
 1152.55        2950.50           1229          47.00       181.78
 1152.58        2950.75           1232          49.00       190.50
 1152.61        2951.00           1236          45.00       173.06
 1152.64        2951.25           1239          49.00       190.50
 1152.68        2951.50           1242          39.00       146.91
 1152.71        2951.75           1246          47.00       181.78
 1152.74        2952.00           1249          44.00       168.70
 1152.77        2952.25           1252          41.00       155.62
 1152.80        2952.50           1256          50.00       194.86
 1152.83        2952.75           1259          43.00       164.34
 1152.86        2953.00           1262          41.00       155.62
 1152.89        2953.25           1266          46.00       177.42
 1152.92        2953.50           1269          52.00       203.58
 1152.95        2953.75           1272          50.00       194.86
 1152.98        2954.00           1276          46.00       177.42
 1153.01        2954.25           1279          49.00       190.50
 1153.04        2954.50           1282          44.00       168.70
 1153.08        2954.75           1286          46.00       177.42
 1153.11        2955.00           1289          56.00       221.01
 1153.14        2955.25           1292          46.00       177.42
 1153.17        2955.50           1296          46.00       177.42
 1153.20        2955.75           1299          55.00       216.65
 1153.23        2956.00           1302          50.00       194.86
 1153.26        2956.25           1306          44.00       168.70
 1153.29        2956.50           1309          58.00       229.73
 1153.32        2956.75           1312          54.00       212.29
 1153.36        2957.00           1316          49.00       190.50
 1153.39        2957.25           1319          45.00       173.06
 1153.42        2957.50           1322          56.00       221.01
 1153.45        2957.75           1326          49.00       190.50
 1153.48        2958.00           1329          52.00       203.58
 1153.51        2958.25           1332          50.00       194.86
 1153.54        2958.50           1336          48.00       186.14
 1153.57        2958.75           1339          46.00       177.42
 1153.60        2959.00           1342          49.00       190.50
 1153.63        2959.25           1346          53.00       207.94
 1153.66        2959.50           1349          52.00       203.58
 1153.70        2959.75           1352          62.00       247.17
 1153.73        2960.00           1356          92.00       377.95
 1153.76        2960.25           1359         120.00       500.01
 1153.79        2960.50           1362         160.00       674.38
 1153.82        2960.75           1366         208.00       883.63
 1153.85        2961.00           1369         254.00      1084.17
 1153.88        2961.25           1372         295.00      1262.91
 1153.91        2961.50           1376         391.00      1681.43
 1153.94        2961.75           1379         567.00      2448.74
 1153.97        2962.00           1382        1142.00      4955.84
 1154.00        2962.25           1386        2770.00     12056.24
 1154.03        2962.50           1389        4386.00     19107.29
 1154.07        2962.75           1392        6003.00     26165.69
 1154.10        2963.00           1396        8051.00     35109.76
 1154.13        2963.25           1399        9674.00     42201.17
 1154.16        2963.50           1402       11360.00     49571.05
 1154.19        2963.75           1406       13776.00     60137.61
 1154.22        2964.00           1409       15316.00     66876.41
 1154.25        2964.25           1412       17081.00     74603.15
 1154.28        2964.50           1416       19300.00     84322.46
 1154.31        2964.75           1419       20887.00     91277.06
 1154.35        2965.00           1422       22623.00     98887.96
 1154.38        2965.25           1426       24911.00    108924.20
 1154.41        2965.50           1429       26529.00    116025.20
 1154.44        2965.75           1432       27936.00    122202.60
 1154.47        2966.00           1436       30174.00    132033.30
 1154.50        2966.25           1439       31779.00    139087.00
 1154.53        2966.50           1442       33284.00    145703.90
 1154.56        2966.75           1446       34972.00    153128.60
 1154.59        2967.00           1449       35617.00    155966.50
 1154.62        2967.25           1452       35811.00    156820.20
 1154.66        2967.50           1456       35689.00    156283.30
 1154.69        2967.75           1459       35829.00    156899.40
 1154.72        2968.00           1462       35618.00    155970.90
 1154.75        2968.25           1466       34784.00    152301.50
 1154.78        2968.50           1469       33436.00    146372.40
 1154.81        2968.75           1472       31895.00    139596.90
 1154.84        2969.00           1476       29829.00    130517.50
 1154.87        2969.25           1479       28346.00    124003.20
 1154.91        2969.50           1482       26618.00    116415.90
 1154.94        2969.75           1486       24592.00    107524.60
 1154.97        2970.00           1489       22612.00     98839.72
 1155.00        2970.25           1492       21013.00     91829.34
 1155.03        2970.50           1496       18805.00     82153.84
 1155.06        2970.75           1499       17266.00     75413.23
 1155.09        2971.00           1502       15479.00     67589.84
 1155.12        2971.25           1506       13221.00     57709.69
 1155.15        2971.50           1509       11607.00     50651.02
 1155.18        2971.75           1513        9375.00     40894.52
 1155.22        2972.00           1516        7819.00     34096.33
 1155.25        2972.25           1519        6251.00     27248.51
 1155.28        2972.50           1523        4144.00     18051.19
 1155.31        2972.75           1526        2595.00     11292.84
 1155.34        2973.00           1529        1312.00      5697.14
 1155.37        2973.25           1533         503.00      2169.71
 1155.40        2973.50           1536         364.00      1563.72
 1155.43        2973.75           1539         296.00      1267.27
 1155.46        2974.00           1543         254.00      1084.17
 1155.49        2974.25           1546         180.00       761.57
 1155.52        2974.50           1549         145.00       608.99
 1155.56        2974.75           1553          96.00       395.38
 1155.59        2975.00           1556          74.00       299.48
 1155.62        2975.25           1559          62.00       247.17
 1155.65        2975.50           1563          58.00       229.73
 1155.68        2975.75           1566          51.00       199.22
 1155.71        2976.00           1569          54.00       212.29
 1155.74        2976.25           1573          44.00       168.70
 1155.77        2976.50           1576          52.00       203.58
 1155.80        2976.75           1579          54.00       212.29
 1155.83        2977.00           1583          48.00       186.14
 1155.86        2977.25           1586          50.00       194.86
 1155.90        2977.50           1590          42.00       159.98
 1155.93        2977.75           1593          53.00       207.94
 1155.96        2978.00           1596          47.00       181.78
 1155.99        2978.25           1600          52.00       203.58
 1156.02        2978.50           1603          52.00       203.58
 1156.05        2978.75           1606          49.00       190.50
 1156.08        2979.00           1610          41.00       155.62
 1156.11        2979.25           1613          51.00       199.22
 1156.14        2979.50           1616          51.00       199.22
 1156.17        2979.75           1620          51.00       199.22
 1156.20        2980.00           1623          47.00       181.78
 1156.23        2980.25           1626          44.00       168.70
 1156.26        2980.50           1630          45.00       173.06
 1156.29        2980.75           1633          51.00       199.22
 1156.33        2981.00           1637          45.00       173.06
 1156.36        2981.25           1640          53.00       207.94
 1156.39        2981.50           1643          42.00       159.98
 1156.42        2981.75           1647          43.00       164.34
 1156.45        2982.00           1650          46.00       177.42
 1156.48        2982.25           1653          44.00       168.70
 1156.51        2982.50           1657          37.00       138.19
 1156.54        2982.75           1660          45.00       173.06
 1156.57        2983.00           1663          41.00       155.62
 1156.60        2983.25           1667          44.00       168.70
 1156.64        2983.50           1670          44.00       168.70
 1156.67        2983.75           1673          55.00       216.65
 1156.70        2984.00           1677          52.00       203.58
HS scan finished at 19:16:55
end
