************************************************************
  HS Scan of (1) Internal mercury lamp
************************************************************
Integration time is 0.2294 seconds per sample
dh200318Manchester 53.47 2.23 2.804185pr1000
************************************************************
Dead Time -------------------------  3E-08 
Number of Cycles Used -------------  4 
Starting Wavelength (Angstroms) ---  2950 
Final Wavelength (Angstoms) -------  2984 
Wavelength Increment (Angstroms) --  .25 
Filter Wheel #1 Position ---------- (1) Ground quartz diffuser (ND=2.32)
Filter Wheel #2 Position ---------- (1) Neutral Density 0.494



************************************************************
HS scan start time = 03:03:29
Dark Count =  7.6 


Time (GMT)  Wavelength (Ang)  Step Number  Raw Counts  Counts/Second

  183.85        2950.00           1222          65.00       250.22
  183.92        2950.25           1226          56.00       210.99
  183.95        2950.50           1229          60.00       228.42
  183.98        2950.75           1232          55.00       206.63
  184.01        2951.00           1236          64.00       245.86
  184.04        2951.25           1239          60.00       228.42
  184.07        2951.50           1242          64.00       245.86
  184.10        2951.75           1246          59.00       224.06
  184.13        2952.00           1249          48.00       176.11
  184.16        2952.25           1252          55.00       206.63
  184.19        2952.50           1256          56.00       210.99
  184.23        2952.75           1259          62.00       237.14
  184.26        2953.00           1262          57.00       215.35
  184.29        2953.25           1266          64.00       245.86
  184.32        2953.50           1269          61.00       232.78
  184.35        2953.75           1272          54.00       202.27
  184.38        2954.00           1276          51.00       189.19
  184.41        2954.25           1279          57.00       215.35
  184.44        2954.50           1282          67.00       258.94
  184.47        2954.75           1286          61.00       232.78
  184.50        2955.00           1289          59.00       224.06
  184.53        2955.25           1292          57.00       215.35
  184.56        2955.50           1296          55.00       206.63
  184.60        2955.75           1299          55.00       206.63
  184.63        2956.00           1302          56.00       210.99
  184.66        2956.25           1306          64.00       245.86
  184.69        2956.50           1309          61.00       232.78
  184.72        2956.75           1312          56.00       210.99
  184.75        2957.00           1316          59.00       224.06
  184.78        2957.25           1319          59.00       224.06
  184.81        2957.50           1322          68.00       263.30
  184.84        2957.75           1326          57.00       215.35
  184.87        2958.00           1329          58.00       219.71
  184.90        2958.25           1332          64.00       245.86
  184.94        2958.50           1336          62.00       237.14
  184.97        2958.75           1339          64.00       245.86
  185.00        2959.00           1342          57.00       215.35
  185.03        2959.25           1346          60.00       228.42
  185.06        2959.50           1349          61.00       232.78
  185.09        2959.75           1352          74.00       289.45
  185.12        2960.00           1356          94.00       376.64
  185.15        2960.25           1359         123.00       503.06
  185.18        2960.50           1362         166.00       690.51
  185.21        2960.75           1366         199.00       834.37
  185.24        2961.00           1369         236.00       995.67
  185.27        2961.25           1372         286.00      1213.64
  185.30        2961.50           1376         367.00      1566.77
  185.34        2961.75           1379         544.00      2338.44
  185.37        2962.00           1382        1144.00      4954.53
  185.40        2962.25           1386        2909.00     12652.58
  185.43        2962.50           1389        4387.00     19101.61
  185.46        2962.75           1392        5802.00     25278.10
  185.49        2963.00           1396        7687.00     33509.69
  185.52        2963.25           1399        9151.00     39905.64
  185.55        2963.50           1402       10720.00     46763.03
  185.58        2963.75           1406       12750.00     55639.45
  185.62        2964.00           1409       14171.00     61855.74
  185.65        2964.25           1412       15814.00     69046.10
  185.68        2964.50           1416       17675.00     77194.26
  185.71        2964.75           1419       19141.00     83615.77
  185.74        2965.00           1422       20663.00     90285.19
  185.77        2965.25           1426       22682.00     99136.61
  185.80        2965.50           1429       24580.00    107461.90
  185.83        2965.75           1432       25840.00    112990.90
  185.86        2966.00           1436       27958.00    122289.20
  185.90        2966.25           1439       29415.00    128688.50
  185.93        2966.50           1442       30485.00    133389.80
  185.96        2966.75           1446       31873.00    139490.10
  185.99        2967.00           1449       31980.00    139960.50
  186.02        2967.25           1452       32019.00    140131.90
  186.05        2967.50           1456       31811.00    139217.50
  186.08        2967.75           1459       31985.00    139982.50
  186.11        2968.00           1462       31720.00    138817.50
  186.14        2968.25           1466       30325.00    132686.70
  186.18        2968.50           1469       29271.00    128056.00
  186.21        2968.75           1472       27732.00    121296.70
  186.24        2969.00           1476       25660.00    112200.90
  186.27        2969.25           1479       24198.00    105785.90
  186.30        2969.50           1482       22813.00     99711.09
  186.33        2969.75           1486       20911.00     91372.19
  186.36        2970.00           1489       19476.00     85083.51
  186.39        2970.25           1492       18130.00     79187.03
  186.42        2970.50           1496       16245.00     70932.83
  186.46        2970.75           1499       14646.00     63934.20
  186.49        2971.00           1502       13263.00     57883.34
  186.52        2971.25           1506       11141.00     48603.51
  186.55        2971.50           1509        9643.00     42055.64
  186.58        2971.75           1513        7558.00     32946.24
  186.61        2972.00           1516        6246.00     27216.63
  186.64        2972.25           1519        4805.00     20925.95
  186.67        2972.50           1523        2959.00     12870.71
  186.70        2972.75           1526        1721.00      7470.72
  186.74        2973.00           1529         802.00      3463.31
  186.77        2973.25           1533         417.00      1784.75
  186.80        2973.50           1536         331.00      1409.82
  186.83        2973.75           1539         285.00      1209.29
  186.86        2974.00           1543         230.00       969.51
  186.89        2974.25           1546         198.00       830.01
  186.92        2974.50           1549         139.00       572.81
  186.95        2974.75           1553         113.00       459.47
  186.98        2975.00           1556          91.00       363.56
  187.01        2975.25           1559          59.00       224.06
  187.04        2975.50           1563          48.00       176.11
  187.07        2975.75           1566          58.00       219.71
  187.11        2976.00           1569          59.00       224.06
  187.14        2976.25           1573          54.00       202.27
  187.17        2976.50           1576          55.00       206.63
  187.20        2976.75           1579          55.00       206.63
  187.23        2977.00           1583          63.00       241.50
  187.26        2977.25           1586          62.00       237.14
  187.29        2977.50           1590          54.00       202.27
  187.32        2977.75           1593          54.00       202.27
  187.35        2978.00           1596          55.00       206.63
  187.39        2978.25           1600          54.00       202.27
  187.42        2978.50           1603          49.00       180.47
  187.45        2978.75           1606          57.00       215.35
  187.48        2979.00           1610          48.00       176.11
  187.51        2979.25           1613          50.00       184.83
  187.54        2979.50           1616          51.00       189.19
  187.57        2979.75           1620          55.00       206.63
  187.60        2980.00           1623          50.00       184.83
  187.63        2980.25           1626          50.00       184.83
  187.66        2980.50           1630          55.00       206.63
  187.69        2980.75           1633          56.00       210.99
  187.72        2981.00           1637          52.00       193.55
  187.76        2981.25           1640          55.00       206.63
  187.79        2981.50           1643          51.00       189.19
  187.82        2981.75           1647          57.00       215.35
  187.85        2982.00           1650          53.00       197.91
  187.88        2982.25           1653          52.00       193.55
  187.91        2982.50           1657          58.00       219.71
  187.94        2982.75           1660          55.00       206.63
  187.97        2983.00           1663          61.00       232.78
  188.00        2983.25           1667          49.00       180.47
  188.03        2983.50           1670          51.00       189.19
  188.06        2983.75           1673          49.00       180.47
  188.09        2984.00           1677          53.00       197.91
HS scan finished at 03:08:19
end
************************************************************
  HS Scan of (1) Internal mercury lamp
************************************************************
Integration time is 0.2294 seconds per sample
dh200318Manchester 53.47 2.23 2.804185pr1000
************************************************************
Dead Time -------------------------  3E-08 
Number of Cycles Used -------------  4 
Starting Wavelength (Angstroms) ---  2950 
Final Wavelength (Angstoms) -------  2984 
Wavelength Increment (Angstroms) --  .25 
Filter Wheel #1 Position ---------- (1) Ground quartz diffuser (ND=2.32)
Filter Wheel #2 Position ---------- (1) Neutral Density 0.494



************************************************************
HS scan start time = 19:12:04
Dark Count =  6.9 


Time (GMT)  Wavelength (Ang)  Step Number  Raw Counts  Counts/Second

 1152.43        2950.00           1222          65.00       253.27
 1152.50        2950.25           1226          57.00       218.40
 1152.53        2950.50           1229          57.00       218.40
 1152.56        2950.75           1232          63.00       244.55
 1152.59        2951.00           1236          62.00       240.19
 1152.62        2951.25           1239          60.00       231.48
 1152.65        2951.50           1242          54.00       205.32
 1152.68        2951.75           1246          55.00       209.68
 1152.71        2952.00           1249          62.00       240.19
 1152.74        2952.25           1252          64.00       248.91
 1152.77        2952.50           1256          64.00       248.91
 1152.80        2952.75           1259          55.00       209.68
 1152.83        2953.00           1262          65.00       253.27
 1152.86        2953.25           1266          56.00       214.04
 1152.90        2953.50           1269          58.00       222.76
 1152.93        2953.75           1272          56.00       214.04
 1152.96        2954.00           1276          57.00       218.40
 1152.99        2954.25           1279          56.00       214.04
 1153.02        2954.50           1282          61.00       235.83
 1153.05        2954.75           1286          68.00       266.35
 1153.08        2955.00           1289          61.00       235.83
 1153.11        2955.25           1292          51.00       192.24
 1153.14        2955.50           1296          59.00       227.12
 1153.18        2955.75           1299          63.00       244.55
 1153.21        2956.00           1302          65.00       253.27
 1153.24        2956.25           1306          60.00       231.48
 1153.27        2956.50           1309          50.00       187.88
 1153.30        2956.75           1312          60.00       231.48
 1153.33        2957.00           1316          58.00       222.76
 1153.36        2957.25           1319          59.00       227.12
 1153.39        2957.50           1322          61.00       235.83
 1153.42        2957.75           1326          60.00       231.48
 1153.45        2958.00           1329          56.00       214.04
 1153.48        2958.25           1332          65.00       253.27
 1153.51        2958.50           1336          56.00       214.04
 1153.55        2958.75           1339          64.00       248.91
 1153.58        2959.00           1342          58.00       222.76
 1153.61        2959.25           1346          55.00       209.68
 1153.64        2959.50           1349          62.00       240.19
 1153.67        2959.75           1352          80.00       318.66
 1153.70        2960.00           1356         118.00       484.31
 1153.73        2960.25           1359         139.00       575.86
 1153.76        2960.50           1362         177.00       741.52
 1153.79        2960.75           1366         232.00       981.28
 1153.82        2961.00           1369         260.00      1103.35
 1153.85        2961.25           1372         317.00      1351.84
 1153.89        2961.50           1376         399.00      1709.33
 1153.92        2961.75           1379         625.00      2694.64
 1153.95        2962.00           1382        1347.00      5842.79
 1153.98        2962.25           1386        3126.00     13602.33
 1154.01        2962.50           1389        4648.00     20243.77
 1154.04        2962.75           1392        5952.00     25936.04
 1154.07        2963.00           1396        7942.00     34626.63
 1154.10        2963.25           1399        9474.00     41320.15
 1154.13        2963.50           1402       10975.00     47880.85
 1154.16        2963.75           1406       12978.00     56639.75
 1154.20        2964.00           1409       14441.00     63040.21
 1154.23        2964.25           1412       15941.00     69605.10
 1154.26        2964.50           1416       17902.00     78191.49
 1154.29        2964.75           1419       19442.00     84937.61
 1154.32        2965.00           1422       20764.00     90730.93
 1154.35        2965.25           1426       22813.00     99714.14
 1154.38        2965.50           1429       24373.00    106556.70
 1154.42        2965.75           1432       25822.00    112915.00
 1154.45        2966.00           1436       27980.00    122388.80
 1154.48        2966.25           1439       29357.00    128436.80
 1154.51        2966.50           1442       30454.00    133256.60
 1154.54        2966.75           1446       31484.00    137783.30
 1154.57        2967.00           1449       31840.00    139348.10
 1154.60        2967.25           1452       31769.00    139036.00
 1154.63        2967.50           1456       31802.00    139181.10
 1154.66        2967.75           1459       31811.00    139220.60
 1154.70        2968.00           1462       31355.00    137216.30
 1154.73        2968.25           1466       30062.00    131534.10
 1154.76        2968.50           1469       28712.00    125603.60
 1154.79        2968.75           1472       27452.00    120070.40
 1154.82        2969.00           1476       25273.00    110505.70
 1154.85        2969.25           1479       23926.00    104595.80
 1154.88        2969.50           1482       22586.00     98718.69
 1154.91        2969.75           1486       20554.00     89810.52
 1154.94        2970.00           1489       19157.00     83688.93
 1154.98        2970.25           1492       17909.00     78222.15
 1155.01        2970.50           1496       15916.00     69495.65
 1155.04        2970.75           1499       14400.00     62860.80
 1155.07        2971.00           1502       13088.00     57120.90
 1155.10        2971.25           1506       11117.00     48501.65
 1155.13        2971.50           1509        9538.00     41599.83
 1155.16        2971.75           1513        7568.00     32992.97
 1155.19        2972.00           1516        6130.00     26713.21
 1155.22        2972.25           1519        4643.00     20221.94
 1155.26        2972.50           1523        2613.00     11364.38
 1155.29        2972.75           1526        1363.00      5912.56
 1155.32        2973.00           1529         605.00      2607.44
 1155.35        2973.25           1533         372.00      1591.62
 1155.38        2973.50           1536         296.00      1260.29
 1155.41        2973.75           1539         235.00       994.36
 1155.44        2974.00           1543         198.00       833.06
 1155.47        2974.25           1546         156.00       649.97
 1155.50        2974.50           1549         130.00       536.63
 1155.54        2974.75           1553          89.00       357.89
 1155.57        2975.00           1556          78.00       309.94
 1155.60        2975.25           1559          60.00       231.48
 1155.63        2975.50           1563          59.00       227.12
 1155.66        2975.75           1566          56.00       214.04
 1155.69        2976.00           1569          56.00       214.04
 1155.72        2976.25           1573          58.00       222.76
 1155.75        2976.50           1576          57.00       218.40
 1155.78        2976.75           1579          50.00       187.88
 1155.81        2977.00           1583          57.00       218.40
 1155.84        2977.25           1586          59.00       227.12
 1155.87        2977.50           1590          59.00       227.12
 1155.90        2977.75           1593          54.00       205.32
 1155.94        2978.00           1596          52.00       196.60
 1155.97        2978.25           1600          64.00       248.91
 1156.00        2978.50           1603          50.00       187.88
 1156.03        2978.75           1606          61.00       235.83
 1156.06        2979.00           1610          57.00       218.40
 1156.09        2979.25           1613          58.00       222.76
 1156.12        2979.50           1616          66.00       257.63
 1156.15        2979.75           1620          53.00       200.96
 1156.18        2980.00           1623          58.00       222.76
 1156.21        2980.25           1626          63.00       244.55
 1156.24        2980.50           1630          57.00       218.40
 1156.27        2980.75           1633          53.00       200.96
 1156.30        2981.00           1637          54.00       205.32
 1156.34        2981.25           1640          57.00       218.40
 1156.37        2981.50           1643          58.00       222.76
 1156.40        2981.75           1647          57.00       218.40
 1156.43        2982.00           1650          54.00       205.32
 1156.46        2982.25           1653          61.00       235.83
 1156.49        2982.50           1657          53.00       200.96
 1156.52        2982.75           1660          48.00       179.16
 1156.55        2983.00           1663          59.00       227.12
 1156.58        2983.25           1667          59.00       227.12
 1156.61        2983.50           1670          59.00       227.12
 1156.64        2983.75           1673          54.00       205.32
 1156.68        2984.00           1677          59.00       227.12
HS scan finished at 19:16:54
end
